May 24, 2023   20:41:44
Amperometric i-t Curve
File: c:/users/mapence2/desktop/data/2023_05_24\expt2\mix_1\it_1.bin
Data Source:  Experiment
Instrument Model:  CHI760E
Header: CA
Note: 

Init E (V) = 0.7
Sample Interval (s) = 0.1
Run Time (sec) = 30
Quiet Time (sec) = 2
Sensitivity (A/V) = 1e-9

Results:

Channel 1:

Time/sec, Current/A

1.000e-1, -2.262e-10
2.000e-1, -2.227e-10
3.000e-1, -2.195e-10
4.000e-1, -2.168e-10
5.000e-1, -2.142e-10
6.000e-1, -2.118e-10
7.000e-1, -2.095e-10
8.000e-1, -2.075e-10
9.000e-1, -2.056e-10
1.000e+0, -2.039e-10
1.100e+0, -2.020e-10
1.200e+0, -2.003e-10
1.300e+0, -1.988e-10
1.400e+0, -1.975e-10
1.500e+0, -1.959e-10
1.600e+0, -1.944e-10
1.700e+0, -1.932e-10
1.800e+0, -1.920e-10
1.900e+0, -1.910e-10
2.000e+0, -1.899e-10
2.100e+0, -1.888e-10
2.200e+0, -1.876e-10
2.300e+0, -1.865e-10
2.400e+0, -1.856e-10
2.500e+0, -1.845e-10
2.600e+0, -1.836e-10
2.700e+0, -1.827e-10
2.800e+0, -1.819e-10
2.900e+0, -1.812e-10
3.000e+0, -1.805e-10
3.100e+0, -1.798e-10
3.200e+0, -1.793e-10
3.300e+0, -1.785e-10
3.400e+0, -1.779e-10
3.500e+0, -1.773e-10
3.600e+0, -1.767e-10
3.700e+0, -1.761e-10
3.800e+0, -1.755e-10
3.900e+0, -1.749e-10
4.000e+0, -1.743e-10
4.100e+0, -1.737e-10
4.200e+0, -1.731e-10
4.300e+0, -1.726e-10
4.400e+0, -1.721e-10
4.500e+0, -1.716e-10
4.600e+0, -1.711e-10
4.700e+0, -1.708e-10
4.800e+0, -1.704e-10
4.900e+0, -1.699e-10
5.000e+0, -1.694e-10
5.100e+0, -1.690e-10
5.200e+0, -1.686e-10
5.300e+0, -1.682e-10
5.400e+0, -1.678e-10
5.500e+0, -1.674e-10
5.600e+0, -1.670e-10
5.700e+0, -1.668e-10
5.800e+0, -1.666e-10
5.900e+0, -1.663e-10
6.000e+0, -1.659e-10
6.100e+0, -1.656e-10
6.200e+0, -1.653e-10
6.300e+0, -1.649e-10
6.400e+0, -1.645e-10
6.500e+0, -1.642e-10
6.600e+0, -1.639e-10
6.700e+0, -1.637e-10
6.800e+0, -1.634e-10
6.900e+0, -1.632e-10
7.000e+0, -1.630e-10
7.100e+0, -1.628e-10
7.200e+0, -1.625e-10
7.300e+0, -1.622e-10
7.400e+0, -1.618e-10
7.500e+0, -1.615e-10
7.600e+0, -1.613e-10
7.700e+0, -1.610e-10
7.800e+0, -1.609e-10
7.900e+0, -1.607e-10
8.000e+0, -1.606e-10
8.100e+0, -1.603e-10
8.200e+0, -1.601e-10
8.300e+0, -1.599e-10
8.400e+0, -1.597e-10
8.500e+0, -1.596e-10
8.600e+0, -1.590e-10
8.700e+0, -1.590e-10
8.800e+0, -1.590e-10
8.900e+0, -1.588e-10
9.000e+0, -1.587e-10
9.100e+0, -1.584e-10
9.200e+0, -1.583e-10
9.300e+0, -1.584e-10
9.400e+0, -1.582e-10
9.500e+0, -1.579e-10
9.600e+0, -1.576e-10
9.700e+0, -1.575e-10
9.800e+0, -1.574e-10
9.900e+0, -1.573e-10
1.000e+1, -1.572e-10
1.010e+1, -1.570e-10
1.020e+1, -1.569e-10
1.030e+1, -1.568e-10
1.040e+1, -1.568e-10
1.050e+1, -1.568e-10
1.060e+1, -1.569e-10
1.070e+1, -1.568e-10
1.080e+1, -1.566e-10
1.090e+1, -1.565e-10
1.100e+1, -1.565e-10
1.110e+1, -1.564e-10
1.120e+1, -1.563e-10
1.130e+1, -1.562e-10
1.140e+1, -1.562e-10
1.150e+1, -1.561e-10
1.160e+1, -1.560e-10
1.170e+1, -1.559e-10
1.180e+1, -1.558e-10
1.190e+1, -1.558e-10
1.200e+1, -1.557e-10
1.210e+1, -1.556e-10
1.220e+1, -1.554e-10
1.230e+1, -1.553e-10
1.240e+1, -1.552e-10
1.250e+1, -1.551e-10
1.260e+1, -1.549e-10
1.270e+1, -1.548e-10
1.280e+1, -1.548e-10
1.290e+1, -1.547e-10
1.300e+1, -1.546e-10
1.310e+1, -1.544e-10
1.320e+1, -1.544e-10
1.330e+1, -1.542e-10
1.340e+1, -1.543e-10
1.350e+1, -1.541e-10
1.360e+1, -1.540e-10
1.370e+1, -1.540e-10
1.380e+1, -1.539e-10
1.390e+1, -1.538e-10
1.400e+1, -1.537e-10
1.410e+1, -1.536e-10
1.420e+1, -1.535e-10
1.430e+1, -1.534e-10
1.440e+1, -1.533e-10
1.450e+1, -1.531e-10
1.460e+1, -1.531e-10
1.470e+1, -1.530e-10
1.480e+1, -1.529e-10
1.490e+1, -1.529e-10
1.500e+1, -1.527e-10
1.510e+1, -1.526e-10
1.520e+1, -1.525e-10
1.530e+1, -1.524e-10
1.540e+1, -1.522e-10
1.550e+1, -1.521e-10
1.560e+1, -1.519e-10
1.570e+1, -1.518e-10
1.580e+1, -1.517e-10
1.590e+1, -1.516e-10
1.600e+1, -1.515e-10
1.610e+1, -1.514e-10
1.620e+1, -1.513e-10
1.630e+1, -1.511e-10
1.640e+1, -1.510e-10
1.650e+1, -1.509e-10
1.660e+1, -1.508e-10
1.670e+1, -1.507e-10
1.680e+1, -1.506e-10
1.690e+1, -1.505e-10
1.700e+1, -1.505e-10
1.710e+1, -1.504e-10
1.720e+1, -1.503e-10
1.730e+1, -1.502e-10
1.740e+1, -1.502e-10
1.750e+1, -1.502e-10
1.760e+1, -1.501e-10
1.770e+1, -1.500e-10
1.780e+1, -1.499e-10
1.790e+1, -1.498e-10
1.800e+1, -1.498e-10
1.810e+1, -1.498e-10
1.820e+1, -1.498e-10
1.830e+1, -1.497e-10
1.840e+1, -1.496e-10
1.850e+1, -1.494e-10
1.860e+1, -1.494e-10
1.870e+1, -1.493e-10
1.880e+1, -1.494e-10
1.890e+1, -1.496e-10
1.900e+1, -1.496e-10
1.910e+1, -1.495e-10
1.920e+1, -1.494e-10
1.930e+1, -1.492e-10
1.940e+1, -1.490e-10
1.950e+1, -1.492e-10
1.960e+1, -1.495e-10
1.970e+1, -1.492e-10
1.980e+1, -1.489e-10
1.990e+1, -1.487e-10
2.000e+1, -1.487e-10
2.010e+1, -1.487e-10
2.020e+1, -1.487e-10
2.030e+1, -1.489e-10
2.040e+1, -1.490e-10
2.050e+1, -1.491e-10
2.060e+1, -1.491e-10
2.070e+1, -1.492e-10
2.080e+1, -1.492e-10
2.090e+1, -1.493e-10
2.100e+1, -1.493e-10
2.110e+1, -1.493e-10
2.120e+1, -1.492e-10
2.130e+1, -1.494e-10
2.140e+1, -1.493e-10
2.150e+1, -1.492e-10
2.160e+1, -1.491e-10
2.170e+1, -1.489e-10
2.180e+1, -1.489e-10
2.190e+1, -1.489e-10
2.200e+1, -1.490e-10
2.210e+1, -1.489e-10
2.220e+1, -1.488e-10
2.230e+1, -1.486e-10
2.240e+1, -1.486e-10
2.250e+1, -1.487e-10
2.260e+1, -1.487e-10
2.270e+1, -1.487e-10
2.280e+1, -1.485e-10
2.290e+1, -1.486e-10
2.300e+1, -1.485e-10
2.310e+1, -1.483e-10
2.320e+1, -1.485e-10
2.330e+1, -1.483e-10
2.340e+1, -1.481e-10
2.350e+1, -1.481e-10
2.360e+1, -1.482e-10
2.370e+1, -1.480e-10
2.380e+1, -1.485e-10
2.390e+1, -1.488e-10
2.400e+1, -1.484e-10
2.410e+1, -1.485e-10
2.420e+1, -1.484e-10
2.430e+1, -1.484e-10
2.440e+1, -1.487e-10
2.450e+1, -1.486e-10
2.460e+1, -1.487e-10
2.470e+1, -1.488e-10
2.480e+1, -1.486e-10
2.490e+1, -1.485e-10
2.500e+1, -1.485e-10
2.510e+1, -1.486e-10
2.520e+1, -1.486e-10
2.530e+1, -1.485e-10
2.540e+1, -1.486e-10
2.550e+1, -1.484e-10
2.560e+1, -1.482e-10
2.570e+1, -1.483e-10
2.580e+1, -1.482e-10
2.590e+1, -1.481e-10
2.600e+1, -1.480e-10
2.610e+1, -1.479e-10
2.620e+1, -1.478e-10
2.630e+1, -1.477e-10
2.640e+1, -1.476e-10
2.650e+1, -1.475e-10
2.660e+1, -1.475e-10
2.670e+1, -1.474e-10
2.680e+1, -1.473e-10
2.690e+1, -1.471e-10
2.700e+1, -1.470e-10
2.710e+1, -1.470e-10
2.720e+1, -1.470e-10
2.730e+1, -1.471e-10
2.740e+1, -1.470e-10
2.750e+1, -1.468e-10
2.760e+1, -1.466e-10
2.770e+1, -1.465e-10
2.780e+1, -1.464e-10
2.790e+1, -1.463e-10
2.800e+1, -1.464e-10
2.810e+1, -1.463e-10
2.820e+1, -1.463e-10
2.830e+1, -1.461e-10
2.840e+1, -1.460e-10
2.850e+1, -1.462e-10
2.860e+1, -1.464e-10
2.870e+1, -1.465e-10
2.880e+1, -1.461e-10
2.890e+1, -1.459e-10
2.900e+1, -1.457e-10
2.910e+1, -1.461e-10
2.920e+1, -1.460e-10
2.930e+1, -1.457e-10
2.940e+1, -1.457e-10
2.950e+1, -1.456e-10
2.960e+1, -1.457e-10
2.970e+1, -1.457e-10
2.980e+1, -1.458e-10
2.990e+1, -1.459e-10
3.000e+1, -1.461e-10
