May 25, 2023   22:35:49
Cyclic Voltammetry
File: c:/users/mapence2/desktop/data/2023_05_24\expt5\mix_7\cv_1.bin
Data Source:  Experiment
Instrument Model:  CHI760E
Header: CV
Note: 

Init E (V) = 0
High E (V) = 0.7
Low E (V) = 0
Final E (V) = 0
Init P/N = P
Scan Rate (V/s) = 0.005
Segment = 3
Sample Interval (V) = 0.001
Quiet Time (sec) = 2
Sensitivity (A/V) = 1e-9

Results:

Channel 1:
Segment 1:

Segment 2:

Segment 3:

Potential/V, Current/A

0.000, 2.049e-11
0.001, 1.602e-11
0.002, 1.306e-11
0.003, 1.110e-11
0.004, 9.814e-12
0.005, 8.700e-12
0.006, 7.754e-12
0.007, 6.933e-12
0.008, 6.232e-12
0.009, 5.701e-12
0.010, 5.522e-12
0.011, 4.933e-12
0.012, 4.599e-12
0.013, 4.571e-12
0.014, 3.827e-12
0.015, 3.439e-12
0.016, 3.363e-12
0.017, 3.194e-12
0.018, 2.916e-12
0.019, 2.657e-12
0.020, 2.334e-12
0.021, 2.330e-12
0.022, 2.378e-12
0.023, 2.301e-12
0.024, 2.156e-12
0.025, 1.962e-12
0.026, 1.677e-12
0.027, 1.645e-12
0.028, 1.630e-12
0.029, 1.566e-12
0.030, 1.403e-12
0.031, 1.271e-12
0.032, 1.119e-12
0.033, 1.141e-12
0.034, 1.125e-12
0.035, 1.088e-12
0.036, 9.246e-13
0.037, 9.727e-13
0.038, 7.632e-13
0.039, 7.443e-13
0.040, 9.010e-13
0.041, 6.513e-13
0.042, 6.064e-13
0.043, 7.679e-13
0.044, 7.789e-13
0.045, 6.868e-13
0.046, 5.891e-13
0.047, 6.064e-13
0.048, 6.513e-13
0.049, 5.332e-13
0.050, 5.419e-13
0.051, 5.277e-13
0.052, 4.536e-13
0.053, 3.284e-13
0.054, 3.213e-13
0.055, 2.883e-13
0.056, 2.890e-13
0.057, 2.701e-13
0.058, 1.969e-13
0.059, 1.859e-13
0.060, 2.071e-13
0.061, 1.465e-13
0.062, 1.071e-13
0.063, 4.962e-14
0.064, -1.811e-14
0.065, -1.575e-14
0.066, -3.859e-14
0.067, -1.016e-13
0.068, -9.372e-14
0.069, -1.331e-13
0.070, -1.804e-13
0.071, -2.111e-13
0.072, -2.166e-13
0.073, -3.402e-13
0.074, -4.103e-13
0.075, -3.977e-13
0.076, -3.843e-13
0.077, -3.647e-13
0.078, -4.568e-13
0.079, -5.001e-13
0.080, -4.938e-13
0.081, -5.017e-13
0.082, -5.631e-13
0.083, -5.891e-13
0.084, -6.246e-13
0.085, -6.978e-13
0.086, -7.332e-13
0.087, -7.537e-13
0.088, -7.734e-13
0.089, -8.262e-13
0.090, -9.459e-13
0.091, -1.029e-12
0.092, -9.561e-13
0.093, -9.388e-13
0.094, -1.014e-12
0.095, -1.079e-12
0.096, -1.030e-12
0.097, -1.068e-12
0.098, -1.168e-12
0.099, -1.314e-12
0.100, -1.385e-12
0.101, -1.345e-12
0.102, -1.411e-12
0.103, -1.470e-12
0.104, -1.470e-12
0.105, -1.501e-12
0.106, -1.524e-12
0.107, -1.516e-12
0.108, -1.548e-12
0.109, -1.693e-12
0.110, -1.983e-12
0.111, -1.946e-12
0.112, -1.997e-12
0.113, -1.873e-12
0.114, -1.908e-12
0.115, -2.045e-12
0.116, -2.134e-12
0.117, -2.246e-12
0.118, -2.150e-12
0.119, -2.191e-12
0.120, -2.316e-12
0.121, -2.341e-12
0.122, -2.473e-12
0.123, -2.436e-12
0.124, -2.420e-12
0.125, -2.408e-12
0.126, -2.430e-12
0.127, -2.487e-12
0.128, -2.611e-12
0.129, -2.671e-12
0.130, -2.739e-12
0.131, -2.796e-12
0.132, -2.823e-12
0.133, -2.894e-12
0.134, -2.992e-12
0.135, -3.093e-12
0.136, -3.139e-12
0.137, -3.172e-12
0.138, -3.206e-12
0.139, -3.290e-12
0.140, -3.330e-12
0.141, -3.404e-12
0.142, -3.515e-12
0.143, -3.608e-12
0.144, -3.676e-12
0.145, -3.798e-12
0.146, -3.870e-12
0.147, -3.862e-12
0.148, -3.873e-12
0.149, -4.088e-12
0.150, -4.173e-12
0.151, -4.121e-12
0.152, -4.390e-12
0.153, -4.430e-12
0.154, -4.499e-12
0.155, -4.510e-12
0.156, -4.650e-12
0.157, -4.762e-12
0.158, -4.802e-12
0.159, -4.888e-12
0.160, -4.822e-12
0.161, -4.901e-12
0.162, -5.006e-12
0.163, -5.079e-12
0.164, -5.212e-12
0.165, -5.359e-12
0.166, -5.471e-12
0.167, -5.465e-12
0.168, -5.433e-12
0.169, -5.520e-12
0.170, -5.541e-12
0.171, -5.759e-12
0.172, -5.908e-12
0.173, -6.161e-12
0.174, -6.212e-12
0.175, -6.072e-12
0.176, -6.227e-12
0.177, -6.413e-12
0.178, -6.376e-12
0.179, -6.290e-12
0.180, -6.435e-12
0.181, -6.677e-12
0.182, -6.687e-12
0.183, -6.768e-12
0.184, -6.835e-12
0.185, -6.948e-12
0.186, -7.199e-12
0.187, -7.207e-12
0.188, -7.258e-12
0.189, -7.452e-12
0.190, -7.510e-12
0.191, -7.652e-12
0.192, -7.818e-12
0.193, -7.911e-12
0.194, -8.086e-12
0.195, -8.096e-12
0.196, -8.057e-12
0.197, -8.178e-12
0.198, -8.285e-12
0.199, -8.325e-12
0.200, -8.411e-12
0.201, -8.608e-12
0.202, -8.741e-12
0.203, -8.778e-12
0.204, -8.991e-12
0.205, -9.062e-12
0.206, -9.208e-12
0.207, -9.353e-12
0.208, -9.486e-12
0.209, -9.547e-12
0.210, -9.567e-12
0.211, -9.722e-12
0.212, -9.922e-12
0.213, -1.006e-11
0.214, -1.016e-11
0.215, -1.028e-11
0.216, -1.042e-11
0.217, -1.054e-11
0.218, -1.064e-11
0.219, -1.076e-11
0.220, -1.087e-11
0.221, -1.098e-11
0.222, -1.112e-11
0.223, -1.124e-11
0.224, -1.136e-11
0.225, -1.144e-11
0.226, -1.160e-11
0.227, -1.173e-11
0.228, -1.188e-11
0.229, -1.202e-11
0.230, -1.216e-11
0.231, -1.230e-11
0.232, -1.247e-11
0.233, -1.256e-11
0.234, -1.264e-11
0.235, -1.273e-11
0.236, -1.286e-11
0.237, -1.307e-11
0.238, -1.320e-11
0.239, -1.339e-11
0.240, -1.359e-11
0.241, -1.370e-11
0.242, -1.383e-11
0.243, -1.395e-11
0.244, -1.411e-11
0.245, -1.429e-11
0.246, -1.441e-11
0.247, -1.456e-11
0.248, -1.468e-11
0.249, -1.483e-11
0.250, -1.501e-11
0.251, -1.523e-11
0.252, -1.542e-11
0.253, -1.562e-11
0.254, -1.576e-11
0.255, -1.595e-11
0.256, -1.614e-11
0.257, -1.632e-11
0.258, -1.652e-11
0.259, -1.672e-11
0.260, -1.681e-11
0.261, -1.702e-11
0.262, -1.733e-11
0.263, -1.745e-11
0.264, -1.764e-11
0.265, -1.783e-11
0.266, -1.803e-11
0.267, -1.825e-11
0.268, -1.845e-11
0.269, -1.867e-11
0.270, -1.887e-11
0.271, -1.908e-11
0.272, -1.926e-11
0.273, -1.949e-11
0.274, -1.972e-11
0.275, -1.996e-11
0.276, -2.016e-11
0.277, -2.042e-11
0.278, -2.065e-11
0.279, -2.078e-11
0.280, -2.100e-11
0.281, -2.119e-11
0.282, -2.153e-11
0.283, -2.175e-11
0.284, -2.196e-11
0.285, -2.200e-11
0.286, -2.229e-11
0.287, -2.257e-11
0.288, -2.285e-11
0.289, -2.319e-11
0.290, -2.347e-11
0.291, -2.370e-11
0.292, -2.390e-11
0.293, -2.431e-11
0.294, -2.466e-11
0.295, -2.487e-11
0.296, -2.503e-11
0.297, -2.528e-11
0.298, -2.558e-11
0.299, -2.592e-11
0.300, -2.612e-11
0.301, -2.640e-11
0.302, -2.671e-11
0.303, -2.700e-11
0.304, -2.733e-11
0.305, -2.764e-11
0.306, -2.798e-11
0.307, -2.826e-11
0.308, -2.872e-11
0.309, -2.911e-11
0.310, -2.945e-11
0.311, -2.968e-11
0.312, -2.990e-11
0.313, -3.024e-11
0.314, -3.055e-11
0.315, -3.079e-11
0.316, -3.122e-11
0.317, -3.157e-11
0.318, -3.190e-11
0.319, -3.229e-11
0.320, -3.258e-11
0.321, -3.299e-11
0.322, -3.335e-11
0.323, -3.367e-11
0.324, -3.401e-11
0.325, -3.444e-11
0.326, -3.490e-11
0.327, -3.519e-11
0.328, -3.547e-11
0.329, -3.571e-11
0.330, -3.597e-11
0.331, -3.627e-11
0.332, -3.654e-11
0.333, -3.690e-11
0.334, -3.729e-11
0.335, -3.780e-11
0.336, -3.836e-11
0.337, -3.860e-11
0.338, -3.888e-11
0.339, -3.936e-11
0.340, -3.983e-11
0.341, -4.010e-11
0.342, -4.040e-11
0.343, -4.078e-11
0.344, -4.138e-11
0.345, -4.169e-11
0.346, -4.195e-11
0.347, -4.236e-11
0.348, -4.287e-11
0.349, -4.320e-11
0.350, -4.368e-11
0.351, -4.403e-11
0.352, -4.444e-11
0.353, -4.485e-11
0.354, -4.520e-11
0.355, -4.546e-11
0.356, -4.580e-11
0.357, -4.608e-11
0.358, -4.631e-11
0.359, -4.660e-11
0.360, -4.690e-11
0.361, -4.719e-11
0.362, -4.748e-11
0.363, -4.785e-11
0.364, -4.816e-11
0.365, -4.861e-11
0.366, -4.927e-11
0.367, -4.958e-11
0.368, -4.985e-11
0.369, -5.020e-11
0.370, -5.054e-11
0.371, -5.092e-11
0.372, -5.129e-11
0.373, -5.159e-11
0.374, -5.188e-11
0.375, -5.220e-11
0.376, -5.241e-11
0.377, -5.274e-11
0.378, -5.314e-11
0.379, -5.349e-11
0.380, -5.385e-11
0.381, -5.418e-11
0.382, -5.460e-11
0.383, -5.485e-11
0.384, -5.514e-11
0.385, -5.557e-11
0.386, -5.582e-11
0.387, -5.615e-11
0.388, -5.655e-11
0.389, -5.685e-11
0.390, -5.719e-11
0.391, -5.743e-11
0.392, -5.759e-11
0.393, -5.786e-11
0.394, -5.841e-11
0.395, -5.860e-11
0.396, -5.869e-11
0.397, -5.883e-11
0.398, -5.908e-11
0.399, -5.943e-11
0.400, -5.987e-11
0.401, -6.029e-11
0.402, -6.046e-11
0.403, -6.058e-11
0.404, -6.107e-11
0.405, -6.129e-11
0.406, -6.164e-11
0.407, -6.189e-11
0.408, -6.227e-11
0.409, -6.269e-11
0.410, -6.285e-11
0.411, -6.280e-11
0.412, -6.283e-11
0.413, -6.311e-11
0.414, -6.329e-11
0.415, -6.353e-11
0.416, -6.380e-11
0.417, -6.416e-11
0.418, -6.439e-11
0.419, -6.466e-11
0.420, -6.484e-11
0.421, -6.512e-11
0.422, -6.536e-11
0.423, -6.555e-11
0.424, -6.577e-11
0.425, -6.598e-11
0.426, -6.616e-11
0.427, -6.636e-11
0.428, -6.658e-11
0.429, -6.693e-11
0.430, -6.714e-11
0.431, -6.739e-11
0.432, -6.772e-11
0.433, -6.791e-11
0.434, -6.809e-11
0.435, -6.836e-11
0.436, -6.851e-11
0.437, -6.863e-11
0.438, -6.884e-11
0.439, -6.913e-11
0.440, -6.935e-11
0.441, -6.958e-11
0.442, -6.983e-11
0.443, -7.007e-11
0.444, -7.035e-11
0.445, -7.070e-11
0.446, -7.101e-11
0.447, -7.126e-11
0.448, -7.147e-11
0.449, -7.158e-11
0.450, -7.164e-11
0.451, -7.181e-11
0.452, -7.191e-11
0.453, -7.189e-11
0.454, -7.204e-11
0.455, -7.213e-11
0.456, -7.212e-11
0.457, -7.214e-11
0.458, -7.224e-11
0.459, -7.245e-11
0.460, -7.271e-11
0.461, -7.288e-11
0.462, -7.295e-11
0.463, -7.311e-11
0.464, -7.329e-11
0.465, -7.343e-11
0.466, -7.355e-11
0.467, -7.374e-11
0.468, -7.395e-11
0.469, -7.414e-11
0.470, -7.436e-11
0.471, -7.455e-11
0.472, -7.466e-11
0.473, -7.494e-11
0.474, -7.519e-11
0.475, -7.536e-11
0.476, -7.563e-11
0.477, -7.592e-11
0.478, -7.599e-11
0.479, -7.621e-11
0.480, -7.650e-11
0.481, -7.661e-11
0.482, -7.675e-11
0.483, -7.705e-11
0.484, -7.724e-11
0.485, -7.723e-11
0.486, -7.718e-11
0.487, -7.741e-11
0.488, -7.760e-11
0.489, -7.771e-11
0.490, -7.784e-11
0.491, -7.785e-11
0.492, -7.785e-11
0.493, -7.788e-11
0.494, -7.806e-11
0.495, -7.819e-11
0.496, -7.833e-11
0.497, -7.849e-11
0.498, -7.864e-11
0.499, -7.879e-11
0.500, -7.889e-11
0.501, -7.906e-11
0.502, -7.929e-11
0.503, -7.951e-11
0.504, -7.969e-11
0.505, -7.985e-11
0.506, -8.000e-11
0.507, -8.020e-11
0.508, -8.042e-11
0.509, -8.058e-11
0.510, -8.070e-11
0.511, -8.084e-11
0.512, -8.102e-11
0.513, -8.125e-11
0.514, -8.153e-11
0.515, -8.171e-11
0.516, -8.177e-11
0.517, -8.190e-11
0.518, -8.213e-11
0.519, -8.233e-11
0.520, -8.241e-11
0.521, -8.264e-11
0.522, -8.288e-11
0.523, -8.312e-11
0.524, -8.327e-11
0.525, -8.337e-11
0.526, -8.341e-11
0.527, -8.351e-11
0.528, -8.361e-11
0.529, -8.372e-11
0.530, -8.373e-11
0.531, -8.387e-11
0.532, -8.393e-11
0.533, -8.406e-11
0.534, -8.423e-11
0.535, -8.438e-11
0.536, -8.451e-11
0.537, -8.465e-11
0.538, -8.473e-11
0.539, -8.473e-11
0.540, -8.480e-11
0.541, -8.484e-11
0.542, -8.486e-11
0.543, -8.484e-11
0.544, -8.491e-11
0.545, -8.501e-11
0.546, -8.507e-11
0.547, -8.522e-11
0.548, -8.543e-11
0.549, -8.564e-11
0.550, -8.578e-11
0.551, -8.594e-11
0.552, -8.616e-11
0.553, -8.639e-11
0.554, -8.661e-11
0.555, -8.694e-11
0.556, -8.710e-11
0.557, -8.717e-11
0.558, -8.740e-11
0.559, -8.762e-11
0.560, -8.778e-11
0.561, -8.793e-11
0.562, -8.805e-11
0.563, -8.819e-11
0.564, -8.843e-11
0.565, -8.871e-11
0.566, -8.885e-11
0.567, -8.894e-11
0.568, -8.908e-11
0.569, -8.925e-11
0.570, -8.943e-11
0.571, -8.955e-11
0.572, -8.975e-11
0.573, -9.000e-11
0.574, -9.019e-11
0.575, -9.041e-11
0.576, -9.067e-11
0.577, -9.088e-11
0.578, -9.089e-11
0.579, -9.112e-11
0.580, -9.146e-11
0.581, -9.153e-11
0.582, -9.161e-11
0.583, -9.177e-11
0.584, -9.190e-11
0.585, -9.198e-11
0.586, -9.199e-11
0.587, -9.199e-11
0.588, -9.213e-11
0.589, -9.225e-11
0.590, -9.226e-11
0.591, -9.232e-11
0.592, -9.236e-11
0.593, -9.245e-11
0.594, -9.252e-11
0.595, -9.263e-11
0.596, -9.265e-11
0.597, -9.281e-11
0.598, -9.305e-11
0.599, -9.323e-11
0.600, -9.332e-11
0.601, -9.348e-11
0.602, -9.369e-11
0.603, -9.385e-11
0.604, -9.395e-11
0.605, -9.411e-11
0.606, -9.445e-11
0.607, -9.467e-11
0.608, -9.512e-11
0.609, -9.543e-11
0.610, -9.595e-11
0.611, -9.654e-11
0.612, -9.692e-11
0.613, -9.722e-11
0.614, -9.751e-11
0.615, -9.778e-11
0.616, -9.804e-11
0.617, -9.819e-11
0.618, -9.833e-11
0.619, -9.845e-11
0.620, -9.842e-11
0.621, -9.845e-11
0.622, -9.852e-11
0.623, -9.859e-11
0.624, -9.866e-11
0.625, -9.881e-11
0.626, -9.890e-11
0.627, -9.900e-11
0.628, -9.903e-11
0.629, -9.914e-11
0.630, -9.928e-11
0.631, -9.932e-11
0.632, -9.942e-11
0.633, -9.957e-11
0.634, -9.987e-11
0.635, -1.002e-10
0.636, -1.004e-10
0.637, -1.007e-10
0.638, -1.011e-10
0.639, -1.014e-10
0.640, -1.018e-10
0.641, -1.021e-10
0.642, -1.026e-10
0.643, -1.029e-10
0.644, -1.032e-10
0.645, -1.036e-10
0.646, -1.039e-10
0.647, -1.042e-10
0.648, -1.044e-10
0.649, -1.047e-10
0.650, -1.050e-10
0.651, -1.051e-10
0.652, -1.052e-10
0.653, -1.054e-10
0.654, -1.056e-10
0.655, -1.058e-10
0.656, -1.059e-10
0.657, -1.062e-10
0.658, -1.064e-10
0.659, -1.066e-10
0.660, -1.070e-10
0.661, -1.074e-10
0.662, -1.077e-10
0.663, -1.081e-10
0.664, -1.083e-10
0.665, -1.086e-10
0.666, -1.088e-10
0.667, -1.090e-10
0.668, -1.093e-10
0.669, -1.094e-10
0.670, -1.093e-10
0.671, -1.093e-10
0.672, -1.093e-10
0.673, -1.092e-10
0.674, -1.091e-10
0.675, -1.090e-10
0.676, -1.090e-10
0.677, -1.092e-10
0.678, -1.094e-10
0.679, -1.097e-10
0.680, -1.100e-10
0.681, -1.106e-10
0.682, -1.113e-10
0.683, -1.119e-10
0.684, -1.126e-10
0.685, -1.131e-10
0.686, -1.133e-10
0.687, -1.136e-10
0.688, -1.137e-10
0.689, -1.139e-10
0.690, -1.140e-10
0.691, -1.143e-10
0.692, -1.145e-10
0.693, -1.147e-10
0.694, -1.150e-10
0.695, -1.153e-10
0.696, -1.155e-10
0.697, -1.157e-10
0.698, -1.158e-10
0.699, -1.159e-10
0.700, -1.156e-10
0.699, -1.143e-10
0.698, -1.132e-10
0.697, -1.123e-10
0.696, -1.115e-10
0.695, -1.108e-10
0.694, -1.101e-10
0.693, -1.095e-10
0.692, -1.090e-10
0.691, -1.084e-10
0.690, -1.078e-10
0.689, -1.072e-10
0.688, -1.069e-10
0.687, -1.066e-10
0.686, -1.062e-10
0.685, -1.055e-10
0.684, -1.051e-10
0.683, -1.050e-10
0.682, -1.045e-10
0.681, -1.040e-10
0.680, -1.036e-10
0.679, -1.034e-10
0.678, -1.032e-10
0.677, -1.029e-10
0.676, -1.025e-10
0.675, -1.020e-10
0.674, -1.016e-10
0.673, -1.012e-10
0.672, -1.009e-10
0.671, -1.005e-10
0.670, -1.000e-10
0.669, -9.971e-11
0.668, -9.954e-11
0.667, -9.944e-11
0.666, -9.935e-11
0.665, -9.925e-11
0.664, -9.929e-11
0.663, -9.937e-11
0.662, -9.939e-11
0.661, -9.932e-11
0.660, -9.921e-11
0.659, -9.904e-11
0.658, -9.877e-11
0.657, -9.850e-11
0.656, -9.822e-11
0.655, -9.799e-11
0.654, -9.770e-11
0.653, -9.739e-11
0.652, -9.706e-11
0.651, -9.678e-11
0.650, -9.647e-11
0.649, -9.617e-11
0.648, -9.578e-11
0.647, -9.557e-11
0.646, -9.535e-11
0.645, -9.502e-11
0.644, -9.467e-11
0.643, -9.445e-11
0.642, -9.425e-11
0.641, -9.401e-11
0.640, -9.380e-11
0.639, -9.352e-11
0.638, -9.327e-11
0.637, -9.300e-11
0.636, -9.281e-11
0.635, -9.272e-11
0.634, -9.243e-11
0.633, -9.226e-11
0.632, -9.217e-11
0.631, -9.193e-11
0.630, -9.171e-11
0.629, -9.154e-11
0.628, -9.136e-11
0.627, -9.106e-11
0.626, -9.079e-11
0.625, -9.057e-11
0.624, -9.029e-11
0.623, -8.988e-11
0.622, -8.952e-11
0.621, -8.922e-11
0.620, -8.891e-11
0.619, -8.866e-11
0.618, -8.863e-11
0.617, -8.867e-11
0.616, -8.880e-11
0.615, -8.893e-11
0.614, -8.895e-11
0.613, -8.900e-11
0.612, -8.909e-11
0.611, -8.897e-11
0.610, -8.905e-11
0.609, -8.891e-11
0.608, -8.874e-11
0.607, -8.862e-11
0.606, -8.840e-11
0.605, -8.822e-11
0.604, -8.797e-11
0.603, -8.789e-11
0.602, -8.767e-11
0.601, -8.730e-11
0.600, -8.705e-11
0.599, -8.691e-11
0.598, -8.664e-11
0.597, -8.651e-11
0.596, -8.629e-11
0.595, -8.604e-11
0.594, -8.574e-11
0.593, -8.538e-11
0.592, -8.503e-11
0.591, -8.469e-11
0.590, -8.436e-11
0.589, -8.401e-11
0.588, -8.374e-11
0.587, -8.347e-11
0.586, -8.318e-11
0.585, -8.299e-11
0.584, -8.283e-11
0.583, -8.265e-11
0.582, -8.248e-11
0.581, -8.225e-11
0.580, -8.211e-11
0.579, -8.189e-11
0.578, -8.159e-11
0.577, -8.130e-11
0.576, -8.108e-11
0.575, -8.089e-11
0.574, -8.061e-11
0.573, -8.034e-11
0.572, -8.011e-11
0.571, -7.985e-11
0.570, -7.951e-11
0.569, -7.938e-11
0.568, -7.931e-11
0.567, -7.922e-11
0.566, -7.898e-11
0.565, -7.875e-11
0.564, -7.847e-11
0.563, -7.822e-11
0.562, -7.802e-11
0.561, -7.774e-11
0.560, -7.744e-11
0.559, -7.723e-11
0.558, -7.711e-11
0.557, -7.697e-11
0.556, -7.685e-11
0.555, -7.692e-11
0.554, -7.701e-11
0.553, -7.684e-11
0.552, -7.680e-11
0.551, -7.687e-11
0.550, -7.667e-11
0.549, -7.633e-11
0.548, -7.625e-11
0.547, -7.610e-11
0.546, -7.591e-11
0.545, -7.565e-11
0.544, -7.535e-11
0.543, -7.511e-11
0.542, -7.478e-11
0.541, -7.456e-11
0.540, -7.428e-11
0.539, -7.410e-11
0.538, -7.374e-11
0.537, -7.356e-11
0.536, -7.359e-11
0.535, -7.353e-11
0.534, -7.355e-11
0.533, -7.358e-11
0.532, -7.351e-11
0.531, -7.337e-11
0.530, -7.329e-11
0.529, -7.317e-11
0.528, -7.285e-11
0.527, -7.275e-11
0.526, -7.266e-11
0.525, -7.245e-11
0.524, -7.220e-11
0.523, -7.205e-11
0.522, -7.183e-11
0.521, -7.175e-11
0.520, -7.167e-11
0.519, -7.159e-11
0.518, -7.143e-11
0.517, -7.137e-11
0.516, -7.135e-11
0.515, -7.120e-11
0.514, -7.109e-11
0.513, -7.080e-11
0.512, -7.044e-11
0.511, -7.017e-11
0.510, -7.005e-11
0.509, -6.986e-11
0.508, -6.983e-11
0.507, -6.993e-11
0.506, -6.999e-11
0.505, -6.987e-11
0.504, -6.966e-11
0.503, -6.941e-11
0.502, -6.911e-11
0.501, -6.878e-11
0.500, -6.843e-11
0.499, -6.811e-11
0.498, -6.783e-11
0.497, -6.749e-11
0.496, -6.719e-11
0.495, -6.687e-11
0.494, -6.657e-11
0.493, -6.636e-11
0.492, -6.607e-11
0.491, -6.581e-11
0.490, -6.557e-11
0.489, -6.531e-11
0.488, -6.509e-11
0.487, -6.479e-11
0.486, -6.454e-11
0.485, -6.438e-11
0.484, -6.418e-11
0.483, -6.392e-11
0.482, -6.364e-11
0.481, -6.343e-11
0.480, -6.323e-11
0.479, -6.302e-11
0.478, -6.283e-11
0.477, -6.264e-11
0.476, -6.241e-11
0.475, -6.218e-11
0.474, -6.198e-11
0.473, -6.172e-11
0.472, -6.153e-11
0.471, -6.142e-11
0.470, -6.129e-11
0.469, -6.111e-11
0.468, -6.104e-11
0.467, -6.103e-11
0.466, -6.096e-11
0.465, -6.089e-11
0.464, -6.080e-11
0.463, -6.062e-11
0.462, -6.063e-11
0.461, -6.072e-11
0.460, -6.043e-11
0.459, -6.008e-11
0.458, -5.968e-11
0.457, -5.922e-11
0.456, -5.877e-11
0.455, -5.838e-11
0.454, -5.812e-11
0.453, -5.793e-11
0.452, -5.772e-11
0.451, -5.741e-11
0.450, -5.700e-11
0.449, -5.654e-11
0.448, -5.628e-11
0.447, -5.608e-11
0.446, -5.572e-11
0.445, -5.541e-11
0.444, -5.522e-11
0.443, -5.497e-11
0.442, -5.470e-11
0.441, -5.438e-11
0.440, -5.413e-11
0.439, -5.391e-11
0.438, -5.363e-11
0.437, -5.349e-11
0.436, -5.341e-11
0.435, -5.324e-11
0.434, -5.312e-11
0.433, -5.295e-11
0.432, -5.281e-11
0.431, -5.256e-11
0.430, -5.234e-11
0.429, -5.209e-11
0.428, -5.179e-11
0.427, -5.150e-11
0.426, -5.127e-11
0.425, -5.110e-11
0.424, -5.090e-11
0.423, -5.053e-11
0.422, -5.025e-11
0.421, -4.999e-11
0.420, -4.967e-11
0.419, -4.948e-11
0.418, -4.916e-11
0.417, -4.880e-11
0.416, -4.865e-11
0.415, -4.845e-11
0.414, -4.816e-11
0.413, -4.787e-11
0.412, -4.752e-11
0.411, -4.711e-11
0.410, -4.675e-11
0.409, -4.638e-11
0.408, -4.598e-11
0.407, -4.564e-11
0.406, -4.536e-11
0.405, -4.508e-11
0.404, -4.472e-11
0.403, -4.445e-11
0.402, -4.419e-11
0.401, -4.401e-11
0.400, -4.370e-11
0.399, -4.351e-11
0.398, -4.337e-11
0.397, -4.307e-11
0.396, -4.274e-11
0.395, -4.241e-11
0.394, -4.210e-11
0.393, -4.174e-11
0.392, -4.140e-11
0.391, -4.107e-11
0.390, -4.078e-11
0.389, -4.048e-11
0.388, -4.021e-11
0.387, -3.985e-11
0.386, -3.957e-11
0.385, -3.932e-11
0.384, -3.897e-11
0.383, -3.869e-11
0.382, -3.838e-11
0.381, -3.808e-11
0.380, -3.773e-11
0.379, -3.739e-11
0.378, -3.712e-11
0.377, -3.684e-11
0.376, -3.632e-11
0.375, -3.588e-11
0.374, -3.552e-11
0.373, -3.534e-11
0.372, -3.501e-11
0.371, -3.458e-11
0.370, -3.422e-11
0.369, -3.395e-11
0.368, -3.366e-11
0.367, -3.340e-11
0.366, -3.302e-11
0.365, -3.269e-11
0.364, -3.234e-11
0.363, -3.185e-11
0.362, -3.144e-11
0.361, -3.112e-11
0.360, -3.080e-11
0.359, -3.048e-11
0.358, -3.017e-11
0.357, -2.994e-11
0.356, -2.969e-11
0.355, -2.931e-11
0.354, -2.915e-11
0.353, -2.909e-11
0.352, -2.867e-11
0.351, -2.828e-11
0.350, -2.789e-11
0.349, -2.750e-11
0.348, -2.723e-11
0.347, -2.683e-11
0.346, -2.638e-11
0.345, -2.612e-11
0.344, -2.587e-11
0.343, -2.557e-11
0.342, -2.519e-11
0.341, -2.486e-11
0.340, -2.461e-11
0.339, -2.443e-11
0.338, -2.415e-11
0.337, -2.382e-11
0.336, -2.353e-11
0.335, -2.331e-11
0.334, -2.313e-11
0.333, -2.281e-11
0.332, -2.242e-11
0.331, -2.215e-11
0.330, -2.189e-11
0.329, -2.173e-11
0.328, -2.143e-11
0.327, -2.112e-11
0.326, -2.087e-11
0.325, -2.053e-11
0.324, -2.032e-11
0.323, -2.006e-11
0.322, -1.972e-11
0.321, -1.945e-11
0.320, -1.921e-11
0.319, -1.889e-11
0.318, -1.860e-11
0.317, -1.835e-11
0.316, -1.819e-11
0.315, -1.790e-11
0.314, -1.763e-11
0.313, -1.740e-11
0.312, -1.726e-11
0.311, -1.700e-11
0.310, -1.677e-11
0.309, -1.652e-11
0.308, -1.629e-11
0.307, -1.611e-11
0.306, -1.584e-11
0.305, -1.561e-11
0.304, -1.532e-11
0.303, -1.505e-11
0.302, -1.491e-11
0.301, -1.472e-11
0.300, -1.451e-11
0.299, -1.430e-11
0.298, -1.410e-11
0.297, -1.388e-11
0.296, -1.361e-11
0.295, -1.338e-11
0.294, -1.324e-11
0.293, -1.303e-11
0.292, -1.278e-11
0.291, -1.261e-11
0.290, -1.247e-11
0.289, -1.227e-11
0.288, -1.207e-11
0.287, -1.187e-11
0.286, -1.171e-11
0.285, -1.148e-11
0.284, -1.132e-11
0.283, -1.121e-11
0.282, -1.101e-11
0.281, -1.082e-11
0.280, -1.066e-11
0.279, -1.052e-11
0.278, -1.042e-11
0.277, -1.027e-11
0.276, -1.007e-11
0.275, -9.923e-12
0.274, -9.754e-12
0.273, -9.546e-12
0.272, -9.469e-12
0.271, -9.349e-12
0.270, -9.230e-12
0.269, -9.014e-12
0.268, -8.877e-12
0.267, -8.723e-12
0.266, -8.701e-12
0.265, -8.531e-12
0.264, -8.360e-12
0.263, -8.203e-12
0.262, -8.075e-12
0.261, -8.096e-12
0.260, -7.978e-12
0.259, -7.807e-12
0.258, -7.579e-12
0.257, -7.518e-12
0.256, -7.406e-12
0.255, -7.272e-12
0.254, -7.080e-12
0.253, -6.897e-12
0.252, -6.764e-12
0.251, -6.665e-12
0.250, -6.513e-12
0.249, -6.404e-12
0.248, -6.288e-12
0.247, -6.187e-12
0.246, -6.105e-12
0.245, -6.001e-12
0.244, -5.833e-12
0.243, -5.731e-12
0.242, -5.632e-12
0.241, -5.486e-12
0.240, -5.362e-12
0.239, -5.347e-12
0.238, -5.268e-12
0.237, -5.108e-12
0.236, -4.960e-12
0.235, -4.880e-12
0.234, -4.820e-12
0.233, -4.703e-12
0.232, -4.520e-12
0.231, -4.447e-12
0.230, -4.408e-12
0.229, -4.291e-12
0.228, -4.129e-12
0.227, -4.066e-12
0.226, -3.950e-12
0.225, -3.916e-12
0.224, -3.792e-12
0.223, -3.710e-12
0.222, -3.638e-12
0.221, -3.578e-12
0.220, -3.483e-12
0.219, -3.398e-12
0.218, -3.228e-12
0.217, -3.116e-12
0.216, -2.940e-12
0.215, -2.970e-12
0.214, -2.924e-12
0.213, -2.852e-12
0.212, -2.743e-12
0.211, -2.716e-12
0.210, -2.585e-12
0.209, -2.486e-12
0.208, -2.384e-12
0.207, -2.241e-12
0.206, -2.148e-12
0.205, -2.049e-12
0.204, -2.037e-12
0.203, -1.988e-12
0.202, -1.854e-12
0.201, -1.699e-12
0.200, -1.590e-12
0.199, -1.560e-12
0.198, -1.490e-12
0.197, -1.366e-12
0.196, -1.283e-12
0.195, -1.241e-12
0.194, -1.154e-12
0.193, -1.021e-12
0.192, -9.514e-13
0.191, -8.742e-13
0.190, -8.191e-13
0.189, -7.498e-13
0.188, -6.033e-13
0.187, -5.529e-13
0.186, -5.505e-13
0.185, -4.418e-13
0.184, -3.434e-13
0.183, -2.709e-13
0.182, -2.355e-13
0.181, -1.599e-13
0.180, -7.403e-14
0.179, -2.757e-14
0.178, 8.112e-14
0.177, 1.252e-13
0.176, 1.662e-13
0.175, 2.505e-13
0.174, 2.709e-13
0.173, 3.316e-13
0.172, 3.899e-13
0.171, 4.355e-13
0.170, 4.663e-13
0.169, 5.277e-13
0.168, 6.159e-13
0.167, 6.765e-13
0.166, 6.923e-13
0.165, 7.364e-13
0.164, 7.892e-13
0.163, 8.868e-13
0.162, 9.884e-13
0.161, 1.023e-12
0.160, 1.071e-12
0.159, 1.131e-12
0.158, 1.231e-12
0.157, 1.259e-12
0.156, 1.197e-12
0.155, 1.240e-12
0.154, 1.358e-12
0.153, 1.351e-12
0.152, 1.437e-12
0.151, 1.480e-12
0.150, 1.505e-12
0.149, 1.571e-12
0.148, 1.614e-12
0.147, 1.643e-12
0.146, 1.713e-12
0.145, 1.736e-12
0.144, 1.800e-12
0.143, 1.847e-12
0.142, 1.870e-12
0.141, 1.917e-12
0.140, 1.978e-12
0.139, 1.963e-12
0.138, 2.041e-12
0.137, 2.044e-12
0.136, 2.078e-12
0.135, 2.172e-12
0.134, 2.218e-12
0.133, 2.212e-12
0.132, 2.242e-12
0.131, 2.271e-12
0.130, 2.297e-12
0.129, 2.329e-12
0.128, 2.364e-12
0.127, 2.447e-12
0.126, 2.444e-12
0.125, 2.478e-12
0.124, 2.490e-12
0.123, 2.533e-12
0.122, 2.586e-12
0.121, 2.585e-12
0.120, 2.666e-12
0.119, 2.678e-12
0.118, 2.687e-12
0.117, 2.697e-12
0.116, 2.720e-12
0.115, 2.764e-12
0.114, 2.791e-12
0.113, 2.815e-12
0.112, 2.818e-12
0.111, 2.843e-12
0.110, 2.873e-12
0.109, 2.897e-12
0.108, 2.921e-12
0.107, 2.948e-12
0.106, 2.981e-12
0.105, 2.974e-12
0.104, 2.980e-12
0.103, 3.005e-12
0.102, 3.068e-12
0.101, 3.061e-12
0.100, 3.040e-12
0.099, 2.987e-12
0.098, 2.998e-12
0.097, 3.000e-12
0.096, 3.067e-12
0.095, 3.125e-12
0.094, 3.173e-12
0.093, 3.204e-12
0.092, 3.161e-12
0.091, 3.246e-12
0.090, 3.276e-12
0.089, 3.262e-12
0.088, 3.284e-12
0.087, 3.325e-12
0.086, 3.391e-12
0.085, 3.423e-12
0.084, 3.368e-12
0.083, 3.381e-12
0.082, 3.419e-12
0.081, 3.441e-12
0.080, 3.458e-12
0.079, 3.486e-12
0.078, 3.480e-12
0.077, 3.503e-12
0.076, 3.564e-12
0.075, 3.573e-12
0.074, 3.514e-12
0.073, 3.512e-12
0.072, 3.530e-12
0.071, 3.523e-12
0.070, 3.587e-12
0.069, 3.575e-12
0.068, 3.585e-12
0.067, 3.647e-12
0.066, 3.667e-12
0.065, 3.632e-12
0.064, 3.717e-12
0.063, 3.785e-12
0.062, 3.724e-12
0.061, 3.732e-12
0.060, 3.732e-12
0.059, 3.726e-12
0.058, 3.710e-12
0.057, 3.765e-12
0.056, 3.804e-12
0.055, 3.794e-12
0.054, 3.818e-12
0.053, 3.839e-12
0.052, 3.802e-12
0.051, 3.802e-12
0.050, 3.827e-12
0.049, 3.815e-12
0.048, 3.839e-12
0.047, 3.861e-12
0.046, 3.875e-12
0.045, 3.909e-12
0.044, 3.928e-12
0.043, 3.906e-12
0.042, 3.873e-12
0.041, 3.861e-12
0.040, 3.893e-12
0.039, 3.902e-12
0.038, 3.940e-12
0.037, 3.962e-12
0.036, 3.967e-12
0.035, 3.953e-12
0.034, 3.943e-12
0.033, 3.918e-12
0.032, 3.975e-12
0.031, 3.995e-12
0.030, 3.968e-12
0.029, 3.990e-12
0.028, 3.959e-12
0.027, 3.970e-12
0.026, 4.008e-12
0.025, 4.019e-12
0.024, 4.081e-12
0.023, 4.056e-12
0.022, 4.026e-12
0.021, 4.073e-12
0.020, 4.062e-12
0.019, 4.037e-12
0.018, 4.079e-12
0.017, 4.067e-12
0.016, 4.072e-12
0.015, 4.101e-12
0.014, 4.112e-12
0.013, 4.115e-12
0.012, 4.122e-12
0.011, 4.141e-12
0.010, 4.177e-12
0.009, 4.175e-12
0.008, 4.140e-12
0.007, 4.151e-12
0.006, 4.111e-12
0.005, 4.140e-12
0.004, 4.194e-12
0.003, 4.191e-12
0.002, 4.120e-12
0.001, 4.106e-12
