May 25, 2023   17:16:19
Cyclic Voltammetry
File: c:/users/mapence2/desktop/data/2023_05_24\expt4\mix_3\cv_1.bin
Data Source:  Experiment
Instrument Model:  CHI760E
Header: CV
Note: 

Init E (V) = 0
High E (V) = 0.7
Low E (V) = 0
Final E (V) = 0
Init P/N = P
Scan Rate (V/s) = 0.005
Segment = 3
Sample Interval (V) = 0.001
Quiet Time (sec) = 2
Sensitivity (A/V) = 1e-9

Results:

Channel 1:
Segment 1:

Segment 2:

Segment 3:

Potential/V, Current/A

0.000, 1.261e-11
0.001, 1.065e-11
0.002, 9.224e-12
0.003, 8.158e-12
0.004, 7.352e-12
0.005, 6.690e-12
0.006, 5.971e-12
0.007, 5.441e-12
0.008, 4.926e-12
0.009, 4.512e-12
0.010, 4.026e-12
0.011, 3.600e-12
0.012, 3.297e-12
0.013, 3.064e-12
0.014, 2.809e-12
0.015, 2.552e-12
0.016, 2.322e-12
0.017, 2.102e-12
0.018, 1.998e-12
0.019, 1.838e-12
0.020, 1.673e-12
0.021, 1.609e-12
0.022, 1.463e-12
0.023, 1.318e-12
0.024, 1.167e-12
0.025, 1.088e-12
0.026, 1.005e-12
0.027, 8.868e-13
0.028, 7.939e-13
0.029, 7.191e-13
0.030, 5.899e-13
0.031, 4.080e-13
0.032, 3.985e-13
0.033, 3.072e-13
0.034, 2.229e-13
0.035, 1.284e-13
0.036, 5.592e-14
0.037, 1.418e-14
0.038, -1.024e-14
0.039, -1.449e-13
0.040, -2.008e-13
0.041, -2.709e-13
0.042, -3.284e-13
0.043, -4.143e-13
0.044, -4.946e-13
0.045, -5.143e-13
0.046, -5.734e-13
0.047, -6.309e-13
0.048, -7.309e-13
0.049, -7.947e-13
0.050, -8.640e-13
0.051, -8.845e-13
0.052, -9.837e-13
0.053, -1.024e-12
0.054, -1.104e-12
0.055, -1.143e-12
0.056, -1.225e-12
0.057, -1.238e-12
0.058, -1.270e-12
0.059, -1.387e-12
0.060, -1.424e-12
0.061, -1.465e-12
0.062, -1.506e-12
0.063, -1.599e-12
0.064, -1.700e-12
0.065, -1.676e-12
0.066, -1.685e-12
0.067, -1.731e-12
0.068, -1.787e-12
0.069, -1.819e-12
0.070, -1.878e-12
0.071, -1.975e-12
0.072, -2.016e-12
0.073, -2.038e-12
0.074, -2.129e-12
0.075, -2.184e-12
0.076, -2.264e-12
0.077, -2.298e-12
0.078, -2.372e-12
0.079, -2.474e-12
0.080, -2.547e-12
0.081, -2.590e-12
0.082, -2.668e-12
0.083, -2.767e-12
0.084, -2.779e-12
0.085, -2.788e-12
0.086, -2.803e-12
0.087, -2.844e-12
0.088, -2.943e-12
0.089, -3.004e-12
0.090, -3.090e-12
0.091, -3.124e-12
0.092, -3.143e-12
0.093, -3.307e-12
0.094, -3.347e-12
0.095, -3.391e-12
0.096, -3.442e-12
0.097, -3.491e-12
0.098, -3.614e-12
0.099, -3.689e-12
0.100, -3.718e-12
0.101, -3.759e-12
0.102, -3.867e-12
0.103, -3.964e-12
0.104, -4.009e-12
0.105, -4.125e-12
0.106, -4.198e-12
0.107, -4.226e-12
0.108, -4.266e-12
0.109, -4.376e-12
0.110, -4.449e-12
0.111, -4.544e-12
0.112, -4.650e-12
0.113, -4.718e-12
0.114, -4.702e-12
0.115, -4.845e-12
0.116, -5.032e-12
0.117, -5.093e-12
0.118, -5.094e-12
0.119, -5.151e-12
0.120, -5.301e-12
0.121, -5.332e-12
0.122, -5.439e-12
0.123, -5.586e-12
0.124, -5.605e-12
0.125, -5.751e-12
0.126, -5.802e-12
0.127, -5.852e-12
0.128, -5.946e-12
0.129, -6.019e-12
0.130, -6.082e-12
0.131, -6.193e-12
0.132, -6.291e-12
0.133, -6.379e-12
0.134, -6.492e-12
0.135, -6.591e-12
0.136, -6.696e-12
0.137, -6.795e-12
0.138, -6.878e-12
0.139, -6.987e-12
0.140, -7.072e-12
0.141, -7.175e-12
0.142, -7.266e-12
0.143, -7.362e-12
0.144, -7.446e-12
0.145, -7.544e-12
0.146, -7.640e-12
0.147, -7.715e-12
0.148, -7.860e-12
0.149, -7.942e-12
0.150, -8.057e-12
0.151, -8.162e-12
0.152, -8.243e-12
0.153, -8.389e-12
0.154, -8.521e-12
0.155, -8.618e-12
0.156, -8.735e-12
0.157, -8.838e-12
0.158, -8.936e-12
0.159, -9.065e-12
0.160, -9.208e-12
0.161, -9.344e-12
0.162, -9.466e-12
0.163, -9.558e-12
0.164, -9.707e-12
0.165, -9.809e-12
0.166, -9.928e-12
0.167, -1.012e-11
0.168, -1.026e-11
0.169, -1.038e-11
0.170, -1.043e-11
0.171, -1.060e-11
0.172, -1.071e-11
0.173, -1.081e-11
0.174, -1.096e-11
0.175, -1.110e-11
0.176, -1.120e-11
0.177, -1.134e-11
0.178, -1.148e-11
0.179, -1.164e-11
0.180, -1.185e-11
0.181, -1.196e-11
0.182, -1.206e-11
0.183, -1.215e-11
0.184, -1.236e-11
0.185, -1.264e-11
0.186, -1.283e-11
0.187, -1.291e-11
0.188, -1.303e-11
0.189, -1.319e-11
0.190, -1.332e-11
0.191, -1.350e-11
0.192, -1.368e-11
0.193, -1.385e-11
0.194, -1.396e-11
0.195, -1.409e-11
0.196, -1.426e-11
0.197, -1.448e-11
0.198, -1.467e-11
0.199, -1.482e-11
0.200, -1.498e-11
0.201, -1.511e-11
0.202, -1.525e-11
0.203, -1.550e-11
0.204, -1.572e-11
0.205, -1.589e-11
0.206, -1.608e-11
0.207, -1.622e-11
0.208, -1.639e-11
0.209, -1.660e-11
0.210, -1.681e-11
0.211, -1.698e-11
0.212, -1.716e-11
0.213, -1.738e-11
0.214, -1.762e-11
0.215, -1.782e-11
0.216, -1.803e-11
0.217, -1.820e-11
0.218, -1.842e-11
0.219, -1.859e-11
0.220, -1.882e-11
0.221, -1.903e-11
0.222, -1.919e-11
0.223, -1.944e-11
0.224, -1.964e-11
0.225, -1.986e-11
0.226, -2.007e-11
0.227, -2.026e-11
0.228, -2.046e-11
0.229, -2.070e-11
0.230, -2.089e-11
0.231, -2.116e-11
0.232, -2.138e-11
0.233, -2.164e-11
0.234, -2.192e-11
0.235, -2.216e-11
0.236, -2.239e-11
0.237, -2.270e-11
0.238, -2.294e-11
0.239, -2.318e-11
0.240, -2.347e-11
0.241, -2.375e-11
0.242, -2.402e-11
0.243, -2.427e-11
0.244, -2.450e-11
0.245, -2.481e-11
0.246, -2.508e-11
0.247, -2.535e-11
0.248, -2.566e-11
0.249, -2.602e-11
0.250, -2.642e-11
0.251, -2.671e-11
0.252, -2.702e-11
0.253, -2.729e-11
0.254, -2.759e-11
0.255, -2.782e-11
0.256, -2.805e-11
0.257, -2.839e-11
0.258, -2.873e-11
0.259, -2.909e-11
0.260, -2.946e-11
0.261, -2.985e-11
0.262, -3.022e-11
0.263, -3.062e-11
0.264, -3.099e-11
0.265, -3.129e-11
0.266, -3.163e-11
0.267, -3.198e-11
0.268, -3.242e-11
0.269, -3.279e-11
0.270, -3.318e-11
0.271, -3.359e-11
0.272, -3.394e-11
0.273, -3.431e-11
0.274, -3.462e-11
0.275, -3.496e-11
0.276, -3.537e-11
0.277, -3.579e-11
0.278, -3.622e-11
0.279, -3.664e-11
0.280, -3.709e-11
0.281, -3.749e-11
0.282, -3.786e-11
0.283, -3.835e-11
0.284, -3.880e-11
0.285, -3.920e-11
0.286, -3.966e-11
0.287, -4.009e-11
0.288, -4.050e-11
0.289, -4.091e-11
0.290, -4.134e-11
0.291, -4.183e-11
0.292, -4.230e-11
0.293, -4.275e-11
0.294, -4.313e-11
0.295, -4.356e-11
0.296, -4.396e-11
0.297, -4.435e-11
0.298, -4.477e-11
0.299, -4.522e-11
0.300, -4.570e-11
0.301, -4.619e-11
0.302, -4.667e-11
0.303, -4.711e-11
0.304, -4.759e-11
0.305, -4.807e-11
0.306, -4.849e-11
0.307, -4.896e-11
0.308, -4.943e-11
0.309, -4.990e-11
0.310, -5.041e-11
0.311, -5.088e-11
0.312, -5.128e-11
0.313, -5.180e-11
0.314, -5.225e-11
0.315, -5.273e-11
0.316, -5.316e-11
0.317, -5.367e-11
0.318, -5.419e-11
0.319, -5.469e-11
0.320, -5.518e-11
0.321, -5.564e-11
0.322, -5.612e-11
0.323, -5.661e-11
0.324, -5.704e-11
0.325, -5.755e-11
0.326, -5.807e-11
0.327, -5.856e-11
0.328, -5.900e-11
0.329, -5.945e-11
0.330, -5.989e-11
0.331, -6.030e-11
0.332, -6.071e-11
0.333, -6.112e-11
0.334, -6.156e-11
0.335, -6.190e-11
0.336, -6.227e-11
0.337, -6.279e-11
0.338, -6.321e-11
0.339, -6.364e-11
0.340, -6.411e-11
0.341, -6.451e-11
0.342, -6.496e-11
0.343, -6.541e-11
0.344, -6.584e-11
0.345, -6.627e-11
0.346, -6.675e-11
0.347, -6.718e-11
0.348, -6.769e-11
0.349, -6.819e-11
0.350, -6.862e-11
0.351, -6.904e-11
0.352, -6.945e-11
0.353, -6.980e-11
0.354, -7.016e-11
0.355, -7.051e-11
0.356, -7.084e-11
0.357, -7.119e-11
0.358, -7.159e-11
0.359, -7.198e-11
0.360, -7.241e-11
0.361, -7.288e-11
0.362, -7.335e-11
0.363, -7.386e-11
0.364, -7.431e-11
0.365, -7.473e-11
0.366, -7.522e-11
0.367, -7.572e-11
0.368, -7.616e-11
0.369, -7.660e-11
0.370, -7.704e-11
0.371, -7.749e-11
0.372, -7.785e-11
0.373, -7.827e-11
0.374, -7.873e-11
0.375, -7.920e-11
0.376, -7.958e-11
0.377, -7.992e-11
0.378, -8.026e-11
0.379, -8.071e-11
0.380, -8.116e-11
0.381, -8.159e-11
0.382, -8.200e-11
0.383, -8.242e-11
0.384, -8.285e-11
0.385, -8.314e-11
0.386, -8.338e-11
0.387, -8.354e-11
0.388, -8.371e-11
0.389, -8.382e-11
0.390, -8.397e-11
0.391, -8.418e-11
0.392, -8.439e-11
0.393, -8.462e-11
0.394, -8.489e-11
0.395, -8.514e-11
0.396, -8.544e-11
0.397, -8.568e-11
0.398, -8.591e-11
0.399, -8.616e-11
0.400, -8.649e-11
0.401, -8.677e-11
0.402, -8.698e-11
0.403, -8.727e-11
0.404, -8.755e-11
0.405, -8.795e-11
0.406, -8.826e-11
0.407, -8.858e-11
0.408, -8.906e-11
0.409, -8.929e-11
0.410, -8.960e-11
0.411, -8.990e-11
0.412, -9.020e-11
0.413, -9.040e-11
0.414, -9.056e-11
0.415, -9.090e-11
0.416, -9.126e-11
0.417, -9.158e-11
0.418, -9.192e-11
0.419, -9.230e-11
0.420, -9.264e-11
0.421, -9.303e-11
0.422, -9.342e-11
0.423, -9.381e-11
0.424, -9.424e-11
0.425, -9.454e-11
0.426, -9.473e-11
0.427, -9.486e-11
0.428, -9.490e-11
0.429, -9.482e-11
0.430, -9.496e-11
0.431, -9.507e-11
0.432, -9.527e-11
0.433, -9.556e-11
0.434, -9.586e-11
0.435, -9.593e-11
0.436, -9.601e-11
0.437, -9.603e-11
0.438, -9.607e-11
0.439, -9.615e-11
0.440, -9.624e-11
0.441, -9.641e-11
0.442, -9.663e-11
0.443, -9.684e-11
0.444, -9.717e-11
0.445, -9.748e-11
0.446, -9.772e-11
0.447, -9.809e-11
0.448, -9.834e-11
0.449, -9.867e-11
0.450, -9.899e-11
0.451, -9.913e-11
0.452, -9.948e-11
0.453, -9.975e-11
0.454, -9.990e-11
0.455, -9.995e-11
0.456, -9.992e-11
0.457, -9.997e-11
0.458, -9.997e-11
0.459, -1.000e-10
0.460, -1.001e-10
0.461, -1.001e-10
0.462, -1.001e-10
0.463, -1.002e-10
0.464, -1.003e-10
0.465, -1.005e-10
0.466, -1.007e-10
0.467, -1.009e-10
0.468, -1.011e-10
0.469, -1.012e-10
0.470, -1.014e-10
0.471, -1.017e-10
0.472, -1.020e-10
0.473, -1.023e-10
0.474, -1.024e-10
0.475, -1.025e-10
0.476, -1.025e-10
0.477, -1.026e-10
0.478, -1.027e-10
0.479, -1.029e-10
0.480, -1.030e-10
0.481, -1.031e-10
0.482, -1.033e-10
0.483, -1.034e-10
0.484, -1.035e-10
0.485, -1.038e-10
0.486, -1.042e-10
0.487, -1.045e-10
0.488, -1.050e-10
0.489, -1.056e-10
0.490, -1.062e-10
0.491, -1.066e-10
0.492, -1.071e-10
0.493, -1.072e-10
0.494, -1.071e-10
0.495, -1.070e-10
0.496, -1.068e-10
0.497, -1.067e-10
0.498, -1.068e-10
0.499, -1.069e-10
0.500, -1.071e-10
0.501, -1.073e-10
0.502, -1.076e-10
0.503, -1.079e-10
0.504, -1.081e-10
0.505, -1.084e-10
0.506, -1.086e-10
0.507, -1.088e-10
0.508, -1.090e-10
0.509, -1.092e-10
0.510, -1.094e-10
0.511, -1.096e-10
0.512, -1.098e-10
0.513, -1.101e-10
0.514, -1.104e-10
0.515, -1.106e-10
0.516, -1.109e-10
0.517, -1.111e-10
0.518, -1.113e-10
0.519, -1.115e-10
0.520, -1.116e-10
0.521, -1.117e-10
0.522, -1.119e-10
0.523, -1.121e-10
0.524, -1.126e-10
0.525, -1.132e-10
0.526, -1.138e-10
0.527, -1.144e-10
0.528, -1.148e-10
0.529, -1.150e-10
0.530, -1.152e-10
0.531, -1.154e-10
0.532, -1.156e-10
0.533, -1.159e-10
0.534, -1.161e-10
0.535, -1.161e-10
0.536, -1.163e-10
0.537, -1.164e-10
0.538, -1.165e-10
0.539, -1.167e-10
0.540, -1.169e-10
0.541, -1.171e-10
0.542, -1.173e-10
0.543, -1.175e-10
0.544, -1.177e-10
0.545, -1.179e-10
0.546, -1.181e-10
0.547, -1.185e-10
0.548, -1.188e-10
0.549, -1.190e-10
0.550, -1.191e-10
0.551, -1.190e-10
0.552, -1.187e-10
0.553, -1.184e-10
0.554, -1.182e-10
0.555, -1.181e-10
0.556, -1.182e-10
0.557, -1.184e-10
0.558, -1.185e-10
0.559, -1.186e-10
0.560, -1.186e-10
0.561, -1.187e-10
0.562, -1.189e-10
0.563, -1.193e-10
0.564, -1.197e-10
0.565, -1.201e-10
0.566, -1.206e-10
0.567, -1.210e-10
0.568, -1.212e-10
0.569, -1.213e-10
0.570, -1.214e-10
0.571, -1.215e-10
0.572, -1.215e-10
0.573, -1.215e-10
0.574, -1.215e-10
0.575, -1.217e-10
0.576, -1.218e-10
0.577, -1.220e-10
0.578, -1.221e-10
0.579, -1.223e-10
0.580, -1.225e-10
0.581, -1.228e-10
0.582, -1.231e-10
0.583, -1.234e-10
0.584, -1.237e-10
0.585, -1.240e-10
0.586, -1.243e-10
0.587, -1.246e-10
0.588, -1.248e-10
0.589, -1.251e-10
0.590, -1.253e-10
0.591, -1.256e-10
0.592, -1.258e-10
0.593, -1.260e-10
0.594, -1.263e-10
0.595, -1.266e-10
0.596, -1.270e-10
0.597, -1.274e-10
0.598, -1.279e-10
0.599, -1.284e-10
0.600, -1.289e-10
0.601, -1.294e-10
0.602, -1.298e-10
0.603, -1.301e-10
0.604, -1.305e-10
0.605, -1.307e-10
0.606, -1.311e-10
0.607, -1.314e-10
0.608, -1.318e-10
0.609, -1.323e-10
0.610, -1.327e-10
0.611, -1.330e-10
0.612, -1.333e-10
0.613, -1.335e-10
0.614, -1.337e-10
0.615, -1.338e-10
0.616, -1.340e-10
0.617, -1.342e-10
0.618, -1.345e-10
0.619, -1.347e-10
0.620, -1.350e-10
0.621, -1.352e-10
0.622, -1.355e-10
0.623, -1.357e-10
0.624, -1.360e-10
0.625, -1.363e-10
0.626, -1.365e-10
0.627, -1.368e-10
0.628, -1.371e-10
0.629, -1.374e-10
0.630, -1.378e-10
0.631, -1.381e-10
0.632, -1.385e-10
0.633, -1.389e-10
0.634, -1.392e-10
0.635, -1.397e-10
0.636, -1.400e-10
0.637, -1.404e-10
0.638, -1.408e-10
0.639, -1.412e-10
0.640, -1.416e-10
0.641, -1.420e-10
0.642, -1.425e-10
0.643, -1.429e-10
0.644, -1.433e-10
0.645, -1.436e-10
0.646, -1.438e-10
0.647, -1.440e-10
0.648, -1.443e-10
0.649, -1.445e-10
0.650, -1.448e-10
0.651, -1.452e-10
0.652, -1.457e-10
0.653, -1.461e-10
0.654, -1.466e-10
0.655, -1.471e-10
0.656, -1.476e-10
0.657, -1.481e-10
0.658, -1.486e-10
0.659, -1.491e-10
0.660, -1.495e-10
0.661, -1.501e-10
0.662, -1.507e-10
0.663, -1.513e-10
0.664, -1.518e-10
0.665, -1.524e-10
0.666, -1.530e-10
0.667, -1.538e-10
0.668, -1.546e-10
0.669, -1.557e-10
0.670, -1.568e-10
0.671, -1.579e-10
0.672, -1.593e-10
0.673, -1.608e-10
0.674, -1.623e-10
0.675, -1.638e-10
0.676, -1.649e-10
0.677, -1.652e-10
0.678, -1.655e-10
0.679, -1.658e-10
0.680, -1.662e-10
0.681, -1.669e-10
0.682, -1.677e-10
0.683, -1.685e-10
0.684, -1.696e-10
0.685, -1.705e-10
0.686, -1.715e-10
0.687, -1.724e-10
0.688, -1.731e-10
0.689, -1.739e-10
0.690, -1.746e-10
0.691, -1.755e-10
0.692, -1.763e-10
0.693, -1.773e-10
0.694, -1.784e-10
0.695, -1.793e-10
0.696, -1.802e-10
0.697, -1.811e-10
0.698, -1.818e-10
0.699, -1.826e-10
0.700, -1.832e-10
0.699, -1.817e-10
0.698, -1.801e-10
0.697, -1.787e-10
0.696, -1.774e-10
0.695, -1.761e-10
0.694, -1.747e-10
0.693, -1.733e-10
0.692, -1.719e-10
0.691, -1.706e-10
0.690, -1.695e-10
0.689, -1.683e-10
0.688, -1.672e-10
0.687, -1.661e-10
0.686, -1.649e-10
0.685, -1.636e-10
0.684, -1.622e-10
0.683, -1.608e-10
0.682, -1.594e-10
0.681, -1.579e-10
0.680, -1.565e-10
0.679, -1.553e-10
0.678, -1.542e-10
0.677, -1.531e-10
0.676, -1.520e-10
0.675, -1.511e-10
0.674, -1.501e-10
0.673, -1.491e-10
0.672, -1.482e-10
0.671, -1.473e-10
0.670, -1.463e-10
0.669, -1.454e-10
0.668, -1.446e-10
0.667, -1.438e-10
0.666, -1.431e-10
0.665, -1.424e-10
0.664, -1.420e-10
0.663, -1.413e-10
0.662, -1.405e-10
0.661, -1.396e-10
0.660, -1.386e-10
0.659, -1.378e-10
0.658, -1.372e-10
0.657, -1.372e-10
0.656, -1.373e-10
0.655, -1.371e-10
0.654, -1.365e-10
0.653, -1.357e-10
0.652, -1.351e-10
0.651, -1.352e-10
0.650, -1.352e-10
0.649, -1.349e-10
0.648, -1.343e-10
0.647, -1.337e-10
0.646, -1.330e-10
0.645, -1.321e-10
0.644, -1.313e-10
0.643, -1.306e-10
0.642, -1.301e-10
0.641, -1.295e-10
0.640, -1.287e-10
0.639, -1.277e-10
0.638, -1.267e-10
0.637, -1.259e-10
0.636, -1.252e-10
0.635, -1.247e-10
0.634, -1.243e-10
0.633, -1.241e-10
0.632, -1.239e-10
0.631, -1.238e-10
0.630, -1.236e-10
0.629, -1.234e-10
0.628, -1.230e-10
0.627, -1.226e-10
0.626, -1.222e-10
0.625, -1.218e-10
0.624, -1.215e-10
0.623, -1.212e-10
0.622, -1.209e-10
0.621, -1.206e-10
0.620, -1.203e-10
0.619, -1.198e-10
0.618, -1.195e-10
0.617, -1.190e-10
0.616, -1.186e-10
0.615, -1.182e-10
0.614, -1.179e-10
0.613, -1.176e-10
0.612, -1.172e-10
0.611, -1.169e-10
0.610, -1.165e-10
0.609, -1.162e-10
0.608, -1.158e-10
0.607, -1.157e-10
0.606, -1.155e-10
0.605, -1.153e-10
0.604, -1.151e-10
0.603, -1.147e-10
0.602, -1.142e-10
0.601, -1.139e-10
0.600, -1.137e-10
0.599, -1.135e-10
0.598, -1.134e-10
0.597, -1.132e-10
0.596, -1.132e-10
0.595, -1.130e-10
0.594, -1.128e-10
0.593, -1.124e-10
0.592, -1.121e-10
0.591, -1.117e-10
0.590, -1.113e-10
0.589, -1.109e-10
0.588, -1.106e-10
0.587, -1.103e-10
0.586, -1.099e-10
0.585, -1.095e-10
0.584, -1.089e-10
0.583, -1.084e-10
0.582, -1.080e-10
0.581, -1.077e-10
0.580, -1.075e-10
0.579, -1.071e-10
0.578, -1.069e-10
0.577, -1.068e-10
0.576, -1.069e-10
0.575, -1.070e-10
0.574, -1.070e-10
0.573, -1.069e-10
0.572, -1.067e-10
0.571, -1.067e-10
0.570, -1.068e-10
0.569, -1.068e-10
0.568, -1.066e-10
0.567, -1.062e-10
0.566, -1.057e-10
0.565, -1.054e-10
0.564, -1.052e-10
0.563, -1.051e-10
0.562, -1.049e-10
0.561, -1.048e-10
0.560, -1.045e-10
0.559, -1.043e-10
0.558, -1.042e-10
0.557, -1.041e-10
0.556, -1.040e-10
0.555, -1.038e-10
0.554, -1.035e-10
0.553, -1.031e-10
0.552, -1.027e-10
0.551, -1.023e-10
0.550, -1.019e-10
0.549, -1.016e-10
0.548, -1.013e-10
0.547, -1.011e-10
0.546, -1.010e-10
0.545, -1.009e-10
0.544, -1.008e-10
0.543, -1.006e-10
0.542, -1.004e-10
0.541, -1.003e-10
0.540, -1.002e-10
0.539, -1.000e-10
0.538, -9.988e-11
0.537, -9.959e-11
0.536, -9.932e-11
0.535, -9.893e-11
0.534, -9.856e-11
0.533, -9.838e-11
0.532, -9.835e-11
0.531, -9.861e-11
0.530, -9.879e-11
0.529, -9.877e-11
0.528, -9.831e-11
0.527, -9.776e-11
0.526, -9.726e-11
0.525, -9.692e-11
0.524, -9.659e-11
0.523, -9.612e-11
0.522, -9.562e-11
0.521, -9.495e-11
0.520, -9.419e-11
0.519, -9.361e-11
0.518, -9.312e-11
0.517, -9.272e-11
0.516, -9.234e-11
0.515, -9.192e-11
0.514, -9.152e-11
0.513, -9.113e-11
0.512, -9.073e-11
0.511, -9.034e-11
0.510, -8.998e-11
0.509, -8.966e-11
0.508, -8.946e-11
0.507, -8.919e-11
0.506, -8.895e-11
0.505, -8.871e-11
0.504, -8.839e-11
0.503, -8.810e-11
0.502, -8.784e-11
0.501, -8.750e-11
0.500, -8.720e-11
0.499, -8.693e-11
0.498, -8.669e-11
0.497, -8.641e-11
0.496, -8.609e-11
0.495, -8.583e-11
0.494, -8.578e-11
0.493, -8.562e-11
0.492, -8.540e-11
0.491, -8.506e-11
0.490, -8.472e-11
0.489, -8.456e-11
0.488, -8.438e-11
0.487, -8.343e-11
0.486, -8.372e-11
0.485, -8.361e-11
0.484, -8.353e-11
0.483, -8.336e-11
0.482, -8.317e-11
0.481, -8.312e-11
0.480, -8.291e-11
0.479, -8.253e-11
0.478, -8.189e-11
0.477, -8.150e-11
0.476, -8.124e-11
0.475, -8.094e-11
0.474, -8.062e-11
0.473, -8.016e-11
0.472, -7.988e-11
0.471, -7.949e-11
0.470, -7.905e-11
0.469, -7.871e-11
0.468, -7.845e-11
0.467, -7.816e-11
0.466, -7.782e-11
0.465, -7.753e-11
0.464, -7.714e-11
0.463, -7.680e-11
0.462, -7.655e-11
0.461, -7.631e-11
0.460, -7.606e-11
0.459, -7.590e-11
0.458, -7.572e-11
0.457, -7.551e-11
0.456, -7.515e-11
0.455, -7.476e-11
0.454, -7.441e-11
0.453, -7.413e-11
0.452, -7.392e-11
0.451, -7.384e-11
0.450, -7.389e-11
0.449, -7.393e-11
0.448, -7.390e-11
0.447, -7.381e-11
0.446, -7.354e-11
0.445, -7.330e-11
0.444, -7.304e-11
0.443, -7.261e-11
0.442, -7.217e-11
0.441, -7.167e-11
0.440, -7.109e-11
0.439, -7.060e-11
0.438, -7.017e-11
0.437, -6.974e-11
0.436, -6.936e-11
0.435, -6.896e-11
0.434, -6.859e-11
0.433, -6.828e-11
0.432, -6.792e-11
0.431, -6.755e-11
0.430, -6.725e-11
0.429, -6.687e-11
0.428, -6.652e-11
0.427, -6.618e-11
0.426, -6.579e-11
0.425, -6.542e-11
0.424, -6.503e-11
0.423, -6.463e-11
0.422, -6.432e-11
0.421, -6.404e-11
0.420, -6.377e-11
0.419, -6.348e-11
0.418, -6.327e-11
0.417, -6.313e-11
0.416, -6.298e-11
0.415, -6.278e-11
0.414, -6.265e-11
0.413, -6.245e-11
0.412, -6.220e-11
0.411, -6.189e-11
0.410, -6.159e-11
0.409, -6.127e-11
0.408, -6.085e-11
0.407, -6.051e-11
0.406, -6.012e-11
0.405, -5.977e-11
0.404, -5.946e-11
0.403, -5.913e-11
0.402, -5.878e-11
0.401, -5.837e-11
0.400, -5.795e-11
0.399, -5.753e-11
0.398, -5.718e-11
0.397, -5.679e-11
0.396, -5.644e-11
0.395, -5.605e-11
0.394, -5.568e-11
0.393, -5.535e-11
0.392, -5.502e-11
0.391, -5.470e-11
0.390, -5.437e-11
0.389, -5.405e-11
0.388, -5.373e-11
0.387, -5.336e-11
0.386, -5.304e-11
0.385, -5.271e-11
0.384, -5.235e-11
0.383, -5.196e-11
0.382, -5.163e-11
0.381, -5.131e-11
0.380, -5.098e-11
0.379, -5.062e-11
0.378, -5.025e-11
0.377, -4.992e-11
0.376, -4.959e-11
0.375, -4.927e-11
0.374, -4.897e-11
0.373, -4.866e-11
0.372, -4.845e-11
0.371, -4.819e-11
0.370, -4.795e-11
0.369, -4.771e-11
0.368, -4.747e-11
0.367, -4.720e-11
0.366, -4.692e-11
0.365, -4.668e-11
0.364, -4.642e-11
0.363, -4.612e-11
0.362, -4.579e-11
0.361, -4.549e-11
0.360, -4.522e-11
0.359, -4.495e-11
0.358, -4.461e-11
0.357, -4.428e-11
0.356, -4.398e-11
0.355, -4.371e-11
0.354, -4.348e-11
0.353, -4.324e-11
0.352, -4.298e-11
0.351, -4.273e-11
0.350, -4.243e-11
0.349, -4.202e-11
0.348, -4.171e-11
0.347, -4.140e-11
0.346, -4.099e-11
0.345, -4.067e-11
0.344, -4.026e-11
0.343, -3.992e-11
0.342, -3.962e-11
0.341, -3.924e-11
0.340, -3.891e-11
0.339, -3.863e-11
0.338, -3.829e-11
0.337, -3.789e-11
0.336, -3.761e-11
0.335, -3.726e-11
0.334, -3.692e-11
0.333, -3.656e-11
0.332, -3.622e-11
0.331, -3.587e-11
0.330, -3.555e-11
0.329, -3.522e-11
0.328, -3.493e-11
0.327, -3.462e-11
0.326, -3.435e-11
0.325, -3.410e-11
0.324, -3.381e-11
0.323, -3.349e-11
0.322, -3.315e-11
0.321, -3.286e-11
0.320, -3.256e-11
0.319, -3.228e-11
0.318, -3.202e-11
0.317, -3.173e-11
0.316, -3.140e-11
0.315, -3.107e-11
0.314, -3.078e-11
0.313, -3.044e-11
0.312, -3.012e-11
0.311, -2.982e-11
0.310, -2.948e-11
0.309, -2.920e-11
0.308, -2.886e-11
0.307, -2.854e-11
0.306, -2.820e-11
0.305, -2.789e-11
0.304, -2.756e-11
0.303, -2.728e-11
0.302, -2.700e-11
0.301, -2.670e-11
0.300, -2.641e-11
0.299, -2.612e-11
0.298, -2.588e-11
0.297, -2.549e-11
0.296, -2.520e-11
0.295, -2.491e-11
0.294, -2.464e-11
0.293, -2.436e-11
0.292, -2.409e-11
0.291, -2.381e-11
0.290, -2.349e-11
0.289, -2.319e-11
0.288, -2.290e-11
0.287, -2.259e-11
0.286, -2.233e-11
0.285, -2.203e-11
0.284, -2.177e-11
0.283, -2.150e-11
0.282, -2.127e-11
0.281, -2.102e-11
0.280, -2.077e-11
0.279, -2.045e-11
0.278, -2.017e-11
0.277, -1.993e-11
0.276, -1.968e-11
0.275, -1.941e-11
0.274, -1.914e-11
0.273, -1.891e-11
0.272, -1.867e-11
0.271, -1.843e-11
0.270, -1.816e-11
0.269, -1.800e-11
0.268, -1.776e-11
0.267, -1.752e-11
0.266, -1.724e-11
0.265, -1.701e-11
0.264, -1.680e-11
0.263, -1.654e-11
0.262, -1.631e-11
0.261, -1.604e-11
0.260, -1.587e-11
0.259, -1.568e-11
0.258, -1.543e-11
0.257, -1.520e-11
0.256, -1.502e-11
0.255, -1.481e-11
0.254, -1.465e-11
0.253, -1.441e-11
0.252, -1.417e-11
0.251, -1.400e-11
0.250, -1.381e-11
0.249, -1.354e-11
0.248, -1.339e-11
0.247, -1.321e-11
0.246, -1.301e-11
0.245, -1.280e-11
0.244, -1.257e-11
0.243, -1.245e-11
0.242, -1.225e-11
0.241, -1.212e-11
0.240, -1.195e-11
0.239, -1.177e-11
0.238, -1.164e-11
0.237, -1.151e-11
0.236, -1.129e-11
0.235, -1.111e-11
0.234, -1.095e-11
0.233, -1.075e-11
0.232, -1.060e-11
0.231, -1.043e-11
0.230, -1.023e-11
0.229, -1.009e-11
0.228, -9.946e-12
0.227, -9.783e-12
0.226, -9.670e-12
0.225, -9.539e-12
0.224, -9.461e-12
0.223, -9.322e-12
0.222, -9.122e-12
0.221, -9.005e-12
0.220, -8.860e-12
0.219, -8.700e-12
0.218, -8.521e-12
0.217, -8.376e-12
0.216, -8.226e-12
0.215, -8.088e-12
0.214, -7.922e-12
0.213, -7.761e-12
0.212, -7.616e-12
0.211, -7.496e-12
0.210, -7.370e-12
0.209, -7.178e-12
0.208, -7.001e-12
0.207, -6.887e-12
0.206, -6.769e-12
0.205, -6.614e-12
0.204, -6.497e-12
0.203, -6.392e-12
0.202, -6.292e-12
0.201, -6.162e-12
0.200, -6.027e-12
0.199, -5.897e-12
0.198, -5.789e-12
0.197, -5.693e-12
0.196, -5.582e-12
0.195, -5.450e-12
0.194, -5.331e-12
0.193, -5.255e-12
0.192, -5.130e-12
0.191, -5.007e-12
0.190, -4.903e-12
0.189, -4.784e-12
0.188, -4.674e-12
0.187, -4.582e-12
0.186, -4.485e-12
0.185, -4.381e-12
0.184, -4.323e-12
0.183, -4.248e-12
0.182, -4.112e-12
0.181, -4.042e-12
0.180, -3.976e-12
0.179, -3.795e-12
0.178, -3.702e-12
0.177, -3.643e-12
0.176, -3.481e-12
0.175, -3.357e-12
0.174, -3.320e-12
0.173, -3.268e-12
0.172, -3.145e-12
0.171, -3.010e-12
0.170, -2.901e-12
0.169, -2.829e-12
0.168, -2.731e-12
0.167, -2.667e-12
0.166, -2.603e-12
0.165, -2.505e-12
0.164, -2.349e-12
0.163, -2.215e-12
0.162, -2.112e-12
0.161, -1.996e-12
0.160, -1.951e-12
0.159, -1.919e-12
0.158, -1.827e-12
0.157, -1.698e-12
0.156, -1.611e-12
0.155, -1.470e-12
0.154, -1.417e-12
0.153, -1.340e-12
0.152, -1.211e-12
0.151, -1.148e-12
0.150, -1.080e-12
0.149, -9.790e-13
0.148, -8.978e-13
0.147, -8.238e-13
0.146, -7.632e-13
0.145, -6.891e-13
0.144, -6.072e-13
0.143, -4.694e-13
0.142, -4.497e-13
0.141, -3.954e-13
0.140, -3.001e-13
0.139, -2.205e-13
0.138, -1.252e-13
0.137, -5.119e-14
0.136, 2.126e-14
0.135, 1.323e-13
0.134, 1.969e-13
0.133, 2.528e-13
0.132, 3.174e-13
0.131, 3.717e-13
0.130, 4.521e-13
0.129, 5.056e-13
0.128, 5.734e-13
0.127, 6.726e-13
0.126, 7.277e-13
0.125, 8.081e-13
0.124, 8.616e-13
0.123, 9.207e-13
0.122, 1.026e-12
0.121, 1.042e-12
0.120, 1.100e-12
0.119, 1.202e-12
0.118, 1.211e-12
0.117, 1.238e-12
0.116, 1.293e-12
0.115, 1.384e-12
0.114, 1.434e-12
0.113, 1.461e-12
0.112, 1.534e-12
0.111, 1.628e-12
0.110, 1.629e-12
0.109, 1.704e-12
0.108, 1.760e-12
0.107, 1.830e-12
0.106, 1.874e-12
0.105, 1.906e-12
0.104, 1.957e-12
0.103, 2.030e-12
0.102, 2.041e-12
0.101, 2.077e-12
0.100, 2.138e-12
0.099, 2.171e-12
0.098, 2.230e-12
0.097, 2.294e-12
0.096, 2.304e-12
0.095, 2.327e-12
0.094, 2.390e-12
0.093, 2.392e-12
0.092, 2.457e-12
0.091, 2.461e-12
0.090, 2.521e-12
0.089, 2.589e-12
0.088, 2.640e-12
0.087, 2.686e-12
0.086, 2.701e-12
0.085, 2.708e-12
0.084, 2.792e-12
0.083, 2.796e-12
0.082, 2.838e-12
0.081, 2.854e-12
0.080, 2.895e-12
0.079, 2.946e-12
0.078, 2.968e-12
0.077, 3.041e-12
0.076, 3.080e-12
0.075, 3.086e-12
0.074, 3.129e-12
0.073, 3.141e-12
0.072, 3.177e-12
0.071, 3.202e-12
0.070, 3.224e-12
0.069, 3.234e-12
0.068, 3.290e-12
0.067, 3.285e-12
0.066, 3.318e-12
0.065, 3.368e-12
0.064, 3.420e-12
0.063, 3.422e-12
0.062, 3.411e-12
0.061, 3.448e-12
0.060, 3.461e-12
0.059, 3.491e-12
0.058, 3.512e-12
0.057, 3.591e-12
0.056, 3.626e-12
0.055, 3.641e-12
0.054, 3.602e-12
0.053, 3.622e-12
0.052, 3.650e-12
0.051, 3.672e-12
0.050, 3.717e-12
0.049, 3.718e-12
0.048, 3.750e-12
0.047, 3.744e-12
0.046, 3.788e-12
0.045, 3.793e-12
0.044, 3.834e-12
0.043, 3.866e-12
0.042, 3.871e-12
0.041, 3.864e-12
0.040, 3.936e-12
0.039, 3.927e-12
0.038, 3.962e-12
0.037, 3.921e-12
0.036, 3.965e-12
0.035, 3.965e-12
0.034, 4.005e-12
0.033, 4.039e-12
0.032, 4.043e-12
0.031, 4.027e-12
0.030, 4.067e-12
0.029, 4.093e-12
0.028, 4.105e-12
0.027, 4.111e-12
0.026, 4.130e-12
0.025, 4.169e-12
0.024, 4.169e-12
0.023, 4.183e-12
0.022, 4.157e-12
0.021, 4.151e-12
0.020, 4.193e-12
0.019, 4.232e-12
0.018, 4.249e-12
0.017, 4.240e-12
0.016, 4.258e-12
0.015, 4.235e-12
0.014, 4.240e-12
0.013, 4.254e-12
0.012, 4.234e-12
0.011, 4.282e-12
0.010, 4.311e-12
0.009, 4.297e-12
0.008, 4.335e-12
0.007, 4.324e-12
0.006, 4.266e-12
0.005, 4.310e-12
0.004, 4.310e-12
0.003, 4.317e-12
0.002, 4.328e-12
0.001, 4.409e-12
