May 25, 2023   18:50:03
Cyclic Voltammetry
File: c:/users/mapence2/desktop/data/2023_05_24\expt4\mix_7\cv_1.bin
Data Source:  Experiment
Instrument Model:  CHI760E
Header: CV
Note: 

Init E (V) = 0
High E (V) = 0.7
Low E (V) = 0
Final E (V) = 0
Init P/N = P
Scan Rate (V/s) = 0.005
Segment = 3
Sample Interval (V) = 0.001
Quiet Time (sec) = 2
Sensitivity (A/V) = 1e-9

Results:

Channel 1:
Segment 1:

Segment 2:

Segment 3:

Potential/V, Current/A

0.000, 2.023e-11
0.001, 1.669e-11
0.002, 1.418e-11
0.003, 1.226e-11
0.004, 1.065e-11
0.005, 9.390e-12
0.006, 8.307e-12
0.007, 7.444e-12
0.008, 6.727e-12
0.009, 6.023e-12
0.010, 5.360e-12
0.011, 4.803e-12
0.012, 4.426e-12
0.013, 3.974e-12
0.014, 3.264e-12
0.015, 3.200e-12
0.016, 3.181e-12
0.017, 3.046e-12
0.018, 2.503e-12
0.019, 2.393e-12
0.020, 2.396e-12
0.021, 2.178e-12
0.022, 2.001e-12
0.023, 1.869e-12
0.024, 1.667e-12
0.025, 1.540e-12
0.026, 1.474e-12
0.027, 1.400e-12
0.028, 1.252e-12
0.029, 1.033e-12
0.030, 8.947e-13
0.031, 8.474e-13
0.032, 8.207e-13
0.033, 7.758e-13
0.034, 6.994e-13
0.035, 6.309e-13
0.036, 5.529e-13
0.037, 4.859e-13
0.038, 3.993e-13
0.039, 2.914e-13
0.040, 2.197e-13
0.041, 1.118e-13
0.042, 7.167e-14
0.043, -1.576e-15
0.044, -1.079e-13
0.045, -1.874e-13
0.046, -2.126e-13
0.047, -2.189e-13
0.048, -2.977e-13
0.049, -3.741e-13
0.050, -4.631e-13
0.051, -5.663e-13
0.052, -5.820e-13
0.053, -6.340e-13
0.054, -6.907e-13
0.055, -7.899e-13
0.056, -7.986e-13
0.057, -8.175e-13
0.058, -8.309e-13
0.059, -9.506e-13
0.060, -1.017e-12
0.061, -1.047e-12
0.062, -1.097e-12
0.063, -1.181e-12
0.064, -1.233e-12
0.065, -1.291e-12
0.066, -1.355e-12
0.067, -1.407e-12
0.068, -1.466e-12
0.069, -1.533e-12
0.070, -1.581e-12
0.071, -1.606e-12
0.072, -1.656e-12
0.073, -1.711e-12
0.074, -1.818e-12
0.075, -1.950e-12
0.076, -1.956e-12
0.077, -1.929e-12
0.078, -1.974e-12
0.079, -2.035e-12
0.080, -2.093e-12
0.081, -2.216e-12
0.082, -2.284e-12
0.083, -2.260e-12
0.084, -2.301e-12
0.085, -2.365e-12
0.086, -2.397e-12
0.087, -2.476e-12
0.088, -2.544e-12
0.089, -2.615e-12
0.090, -2.656e-12
0.091, -2.716e-12
0.092, -2.801e-12
0.093, -2.861e-12
0.094, -2.985e-12
0.095, -3.061e-12
0.096, -3.106e-12
0.097, -3.151e-12
0.098, -3.138e-12
0.099, -3.185e-12
0.100, -3.285e-12
0.101, -3.407e-12
0.102, -3.424e-12
0.103, -3.499e-12
0.104, -3.559e-12
0.105, -3.619e-12
0.106, -3.708e-12
0.107, -3.888e-12
0.108, -3.930e-12
0.109, -3.976e-12
0.110, -4.092e-12
0.111, -4.121e-12
0.112, -4.163e-12
0.113, -4.235e-12
0.114, -4.352e-12
0.115, -4.379e-12
0.116, -4.472e-12
0.117, -4.529e-12
0.118, -4.653e-12
0.119, -4.722e-12
0.120, -4.796e-12
0.121, -4.804e-12
0.122, -4.919e-12
0.123, -5.083e-12
0.124, -5.132e-12
0.125, -5.236e-12
0.126, -5.371e-12
0.127, -5.437e-12
0.128, -5.519e-12
0.129, -5.630e-12
0.130, -5.676e-12
0.131, -5.800e-12
0.132, -5.918e-12
0.133, -6.020e-12
0.134, -6.140e-12
0.135, -6.227e-12
0.136, -6.353e-12
0.137, -6.450e-12
0.138, -6.530e-12
0.139, -6.646e-12
0.140, -6.770e-12
0.141, -6.807e-12
0.142, -6.961e-12
0.143, -7.082e-12
0.144, -7.199e-12
0.145, -7.317e-12
0.146, -7.427e-12
0.147, -7.571e-12
0.148, -7.697e-12
0.149, -7.773e-12
0.150, -7.885e-12
0.151, -7.992e-12
0.152, -8.113e-12
0.153, -8.254e-12
0.154, -8.396e-12
0.155, -8.524e-12
0.156, -8.671e-12
0.157, -8.792e-12
0.158, -8.904e-12
0.159, -9.047e-12
0.160, -9.186e-12
0.161, -9.299e-12
0.162, -9.458e-12
0.163, -9.614e-12
0.164, -9.798e-12
0.165, -9.949e-12
0.166, -1.015e-11
0.167, -1.032e-11
0.168, -1.049e-11
0.169, -1.065e-11
0.170, -1.080e-11
0.171, -1.087e-11
0.172, -1.106e-11
0.173, -1.128e-11
0.174, -1.142e-11
0.175, -1.157e-11
0.176, -1.174e-11
0.177, -1.186e-11
0.178, -1.203e-11
0.179, -1.218e-11
0.180, -1.239e-11
0.181, -1.263e-11
0.182, -1.283e-11
0.183, -1.302e-11
0.184, -1.317e-11
0.185, -1.331e-11
0.186, -1.346e-11
0.187, -1.363e-11
0.188, -1.381e-11
0.189, -1.403e-11
0.190, -1.423e-11
0.191, -1.450e-11
0.192, -1.473e-11
0.193, -1.485e-11
0.194, -1.503e-11
0.195, -1.524e-11
0.196, -1.548e-11
0.197, -1.573e-11
0.198, -1.596e-11
0.199, -1.623e-11
0.200, -1.648e-11
0.201, -1.666e-11
0.202, -1.681e-11
0.203, -1.701e-11
0.204, -1.725e-11
0.205, -1.749e-11
0.206, -1.771e-11
0.207, -1.791e-11
0.208, -1.816e-11
0.209, -1.839e-11
0.210, -1.861e-11
0.211, -1.883e-11
0.212, -1.911e-11
0.213, -1.938e-11
0.214, -1.961e-11
0.215, -1.993e-11
0.216, -2.015e-11
0.217, -2.047e-11
0.218, -2.077e-11
0.219, -2.105e-11
0.220, -2.133e-11
0.221, -2.161e-11
0.222, -2.190e-11
0.223, -2.220e-11
0.224, -2.251e-11
0.225, -2.282e-11
0.226, -2.315e-11
0.227, -2.347e-11
0.228, -2.377e-11
0.229, -2.411e-11
0.230, -2.444e-11
0.231, -2.471e-11
0.232, -2.505e-11
0.233, -2.541e-11
0.234, -2.577e-11
0.235, -2.612e-11
0.236, -2.646e-11
0.237, -2.676e-11
0.238, -2.708e-11
0.239, -2.749e-11
0.240, -2.788e-11
0.241, -2.819e-11
0.242, -2.855e-11
0.243, -2.901e-11
0.244, -2.937e-11
0.245, -2.976e-11
0.246, -3.021e-11
0.247, -3.064e-11
0.248, -3.106e-11
0.249, -3.149e-11
0.250, -3.181e-11
0.251, -3.224e-11
0.252, -3.280e-11
0.253, -3.341e-11
0.254, -3.394e-11
0.255, -3.428e-11
0.256, -3.450e-11
0.257, -3.486e-11
0.258, -3.530e-11
0.259, -3.580e-11
0.260, -3.632e-11
0.261, -3.685e-11
0.262, -3.735e-11
0.263, -3.773e-11
0.264, -3.809e-11
0.265, -3.856e-11
0.266, -3.905e-11
0.267, -3.953e-11
0.268, -4.010e-11
0.269, -4.056e-11
0.270, -4.109e-11
0.271, -4.158e-11
0.272, -4.210e-11
0.273, -4.263e-11
0.274, -4.316e-11
0.275, -4.373e-11
0.276, -4.434e-11
0.277, -4.493e-11
0.278, -4.541e-11
0.279, -4.587e-11
0.280, -4.650e-11
0.281, -4.705e-11
0.282, -4.768e-11
0.283, -4.832e-11
0.284, -4.895e-11
0.285, -4.955e-11
0.286, -5.018e-11
0.287, -5.084e-11
0.288, -5.148e-11
0.289, -5.214e-11
0.290, -5.273e-11
0.291, -5.339e-11
0.292, -5.407e-11
0.293, -5.473e-11
0.294, -5.536e-11
0.295, -5.604e-11
0.296, -5.672e-11
0.297, -5.742e-11
0.298, -5.809e-11
0.299, -5.875e-11
0.300, -5.946e-11
0.301, -6.019e-11
0.302, -6.088e-11
0.303, -6.155e-11
0.304, -6.225e-11
0.305, -6.298e-11
0.306, -6.377e-11
0.307, -6.453e-11
0.308, -6.540e-11
0.309, -6.614e-11
0.310, -6.681e-11
0.311, -6.753e-11
0.312, -6.826e-11
0.313, -6.907e-11
0.314, -6.975e-11
0.315, -7.050e-11
0.316, -7.125e-11
0.317, -7.202e-11
0.318, -7.289e-11
0.319, -7.365e-11
0.320, -7.438e-11
0.321, -7.513e-11
0.322, -7.583e-11
0.323, -7.658e-11
0.324, -7.737e-11
0.325, -7.816e-11
0.326, -7.890e-11
0.327, -7.962e-11
0.328, -8.040e-11
0.329, -8.118e-11
0.330, -8.195e-11
0.331, -8.268e-11
0.332, -8.348e-11
0.333, -8.430e-11
0.334, -8.509e-11
0.335, -8.582e-11
0.336, -8.665e-11
0.337, -8.744e-11
0.338, -8.821e-11
0.339, -8.898e-11
0.340, -8.977e-11
0.341, -9.055e-11
0.342, -9.133e-11
0.343, -9.210e-11
0.344, -9.283e-11
0.345, -9.358e-11
0.346, -9.435e-11
0.347, -9.518e-11
0.348, -9.598e-11
0.349, -9.672e-11
0.350, -9.750e-11
0.351, -9.822e-11
0.352, -9.898e-11
0.353, -9.970e-11
0.354, -1.005e-10
0.355, -1.013e-10
0.356, -1.020e-10
0.357, -1.027e-10
0.358, -1.035e-10
0.359, -1.043e-10
0.360, -1.050e-10
0.361, -1.057e-10
0.362, -1.064e-10
0.363, -1.071e-10
0.364, -1.077e-10
0.365, -1.083e-10
0.366, -1.090e-10
0.367, -1.097e-10
0.368, -1.104e-10
0.369, -1.111e-10
0.370, -1.119e-10
0.371, -1.126e-10
0.372, -1.132e-10
0.373, -1.139e-10
0.374, -1.146e-10
0.375, -1.152e-10
0.376, -1.158e-10
0.377, -1.164e-10
0.378, -1.170e-10
0.379, -1.176e-10
0.380, -1.183e-10
0.381, -1.188e-10
0.382, -1.194e-10
0.383, -1.199e-10
0.384, -1.204e-10
0.385, -1.210e-10
0.386, -1.215e-10
0.387, -1.221e-10
0.388, -1.226e-10
0.389, -1.231e-10
0.390, -1.236e-10
0.391, -1.241e-10
0.392, -1.247e-10
0.393, -1.252e-10
0.394, -1.258e-10
0.395, -1.263e-10
0.396, -1.268e-10
0.397, -1.274e-10
0.398, -1.280e-10
0.399, -1.288e-10
0.400, -1.294e-10
0.401, -1.298e-10
0.402, -1.303e-10
0.403, -1.309e-10
0.404, -1.314e-10
0.405, -1.319e-10
0.406, -1.325e-10
0.407, -1.330e-10
0.408, -1.335e-10
0.409, -1.341e-10
0.410, -1.347e-10
0.411, -1.355e-10
0.412, -1.361e-10
0.413, -1.365e-10
0.414, -1.368e-10
0.415, -1.372e-10
0.416, -1.375e-10
0.417, -1.379e-10
0.418, -1.384e-10
0.419, -1.389e-10
0.420, -1.394e-10
0.421, -1.400e-10
0.422, -1.406e-10
0.423, -1.412e-10
0.424, -1.418e-10
0.425, -1.422e-10
0.426, -1.426e-10
0.427, -1.431e-10
0.428, -1.435e-10
0.429, -1.439e-10
0.430, -1.443e-10
0.431, -1.448e-10
0.432, -1.455e-10
0.433, -1.462e-10
0.434, -1.469e-10
0.435, -1.476e-10
0.436, -1.483e-10
0.437, -1.488e-10
0.438, -1.493e-10
0.439, -1.497e-10
0.440, -1.501e-10
0.441, -1.505e-10
0.442, -1.509e-10
0.443, -1.512e-10
0.444, -1.516e-10
0.445, -1.519e-10
0.446, -1.522e-10
0.447, -1.524e-10
0.448, -1.527e-10
0.449, -1.530e-10
0.450, -1.532e-10
0.451, -1.534e-10
0.452, -1.538e-10
0.453, -1.541e-10
0.454, -1.545e-10
0.455, -1.549e-10
0.456, -1.553e-10
0.457, -1.556e-10
0.458, -1.559e-10
0.459, -1.562e-10
0.460, -1.564e-10
0.461, -1.564e-10
0.462, -1.566e-10
0.463, -1.568e-10
0.464, -1.572e-10
0.465, -1.576e-10
0.466, -1.579e-10
0.467, -1.583e-10
0.468, -1.587e-10
0.469, -1.591e-10
0.470, -1.594e-10
0.471, -1.598e-10
0.472, -1.600e-10
0.473, -1.604e-10
0.474, -1.607e-10
0.475, -1.609e-10
0.476, -1.612e-10
0.477, -1.614e-10
0.478, -1.615e-10
0.479, -1.615e-10
0.480, -1.616e-10
0.481, -1.618e-10
0.482, -1.620e-10
0.483, -1.622e-10
0.484, -1.624e-10
0.485, -1.627e-10
0.486, -1.629e-10
0.487, -1.632e-10
0.488, -1.635e-10
0.489, -1.637e-10
0.490, -1.640e-10
0.491, -1.644e-10
0.492, -1.646e-10
0.493, -1.646e-10
0.494, -1.648e-10
0.495, -1.650e-10
0.496, -1.652e-10
0.497, -1.654e-10
0.498, -1.655e-10
0.499, -1.657e-10
0.500, -1.658e-10
0.501, -1.660e-10
0.502, -1.663e-10
0.503, -1.665e-10
0.504, -1.669e-10
0.505, -1.676e-10
0.506, -1.682e-10
0.507, -1.690e-10
0.508, -1.697e-10
0.509, -1.703e-10
0.510, -1.709e-10
0.511, -1.714e-10
0.512, -1.719e-10
0.513, -1.725e-10
0.514, -1.733e-10
0.515, -1.738e-10
0.516, -1.742e-10
0.517, -1.745e-10
0.518, -1.746e-10
0.519, -1.747e-10
0.520, -1.748e-10
0.521, -1.749e-10
0.522, -1.750e-10
0.523, -1.752e-10
0.524, -1.753e-10
0.525, -1.755e-10
0.526, -1.757e-10
0.527, -1.758e-10
0.528, -1.759e-10
0.529, -1.762e-10
0.530, -1.763e-10
0.531, -1.764e-10
0.532, -1.765e-10
0.533, -1.766e-10
0.534, -1.767e-10
0.535, -1.768e-10
0.536, -1.769e-10
0.537, -1.771e-10
0.538, -1.773e-10
0.539, -1.774e-10
0.540, -1.777e-10
0.541, -1.779e-10
0.542, -1.780e-10
0.543, -1.782e-10
0.544, -1.784e-10
0.545, -1.786e-10
0.546, -1.789e-10
0.547, -1.792e-10
0.548, -1.794e-10
0.549, -1.795e-10
0.550, -1.795e-10
0.551, -1.797e-10
0.552, -1.798e-10
0.553, -1.799e-10
0.554, -1.801e-10
0.555, -1.805e-10
0.556, -1.810e-10
0.557, -1.814e-10
0.558, -1.817e-10
0.559, -1.819e-10
0.560, -1.820e-10
0.561, -1.822e-10
0.562, -1.823e-10
0.563, -1.824e-10
0.564, -1.825e-10
0.565, -1.827e-10
0.566, -1.831e-10
0.567, -1.833e-10
0.568, -1.835e-10
0.569, -1.838e-10
0.570, -1.841e-10
0.571, -1.845e-10
0.572, -1.848e-10
0.573, -1.852e-10
0.574, -1.855e-10
0.575, -1.859e-10
0.576, -1.864e-10
0.577, -1.868e-10
0.578, -1.873e-10
0.579, -1.877e-10
0.580, -1.880e-10
0.581, -1.883e-10
0.582, -1.884e-10
0.583, -1.885e-10
0.584, -1.887e-10
0.585, -1.888e-10
0.586, -1.889e-10
0.587, -1.889e-10
0.588, -1.890e-10
0.589, -1.890e-10
0.590, -1.891e-10
0.591, -1.890e-10
0.592, -1.890e-10
0.593, -1.890e-10
0.594, -1.891e-10
0.595, -1.892e-10
0.596, -1.892e-10
0.597, -1.893e-10
0.598, -1.893e-10
0.599, -1.892e-10
0.600, -1.892e-10
0.601, -1.893e-10
0.602, -1.894e-10
0.603, -1.896e-10
0.604, -1.898e-10
0.605, -1.899e-10
0.606, -1.900e-10
0.607, -1.902e-10
0.608, -1.904e-10
0.609, -1.906e-10
0.610, -1.909e-10
0.611, -1.913e-10
0.612, -1.918e-10
0.613, -1.923e-10
0.614, -1.928e-10
0.615, -1.932e-10
0.616, -1.937e-10
0.617, -1.940e-10
0.618, -1.943e-10
0.619, -1.947e-10
0.620, -1.950e-10
0.621, -1.954e-10
0.622, -1.957e-10
0.623, -1.961e-10
0.624, -1.964e-10
0.625, -1.967e-10
0.626, -1.969e-10
0.627, -1.971e-10
0.628, -1.972e-10
0.629, -1.974e-10
0.630, -1.976e-10
0.631, -1.978e-10
0.632, -1.979e-10
0.633, -1.980e-10
0.634, -1.983e-10
0.635, -1.988e-10
0.636, -1.993e-10
0.637, -1.996e-10
0.638, -2.001e-10
0.639, -2.005e-10
0.640, -2.010e-10
0.641, -2.013e-10
0.642, -2.017e-10
0.643, -2.020e-10
0.644, -2.023e-10
0.645, -2.026e-10
0.646, -2.030e-10
0.647, -2.032e-10
0.648, -2.035e-10
0.649, -2.038e-10
0.650, -2.041e-10
0.651, -2.044e-10
0.652, -2.047e-10
0.653, -2.051e-10
0.654, -2.055e-10
0.655, -2.058e-10
0.656, -2.060e-10
0.657, -2.062e-10
0.658, -2.064e-10
0.659, -2.065e-10
0.660, -2.066e-10
0.661, -2.068e-10
0.662, -2.069e-10
0.663, -2.069e-10
0.664, -2.071e-10
0.665, -2.072e-10
0.666, -2.074e-10
0.667, -2.076e-10
0.668, -2.079e-10
0.669, -2.082e-10
0.670, -2.086e-10
0.671, -2.090e-10
0.672, -2.095e-10
0.673, -2.099e-10
0.674, -2.105e-10
0.675, -2.109e-10
0.676, -2.114e-10
0.677, -2.117e-10
0.678, -2.119e-10
0.679, -2.121e-10
0.680, -2.124e-10
0.681, -2.127e-10
0.682, -2.131e-10
0.683, -2.138e-10
0.684, -2.142e-10
0.685, -2.148e-10
0.686, -2.155e-10
0.687, -2.162e-10
0.688, -2.169e-10
0.689, -2.179e-10
0.690, -2.190e-10
0.691, -2.204e-10
0.692, -2.220e-10
0.693, -2.237e-10
0.694, -2.253e-10
0.695, -2.263e-10
0.696, -2.269e-10
0.697, -2.271e-10
0.698, -2.270e-10
0.699, -2.268e-10
0.700, -2.264e-10
0.699, -2.246e-10
0.698, -2.228e-10
0.697, -2.212e-10
0.696, -2.199e-10
0.695, -2.188e-10
0.694, -2.179e-10
0.693, -2.171e-10
0.692, -2.162e-10
0.691, -2.154e-10
0.690, -2.143e-10
0.689, -2.132e-10
0.688, -2.123e-10
0.687, -2.115e-10
0.686, -2.107e-10
0.685, -2.098e-10
0.684, -2.092e-10
0.683, -2.086e-10
0.682, -2.080e-10
0.681, -2.074e-10
0.680, -2.068e-10
0.679, -2.061e-10
0.678, -2.053e-10
0.677, -2.046e-10
0.676, -2.039e-10
0.675, -2.034e-10
0.674, -2.028e-10
0.673, -2.023e-10
0.672, -2.018e-10
0.671, -2.013e-10
0.670, -2.009e-10
0.669, -2.006e-10
0.668, -2.002e-10
0.667, -1.998e-10
0.666, -1.993e-10
0.665, -1.989e-10
0.664, -1.985e-10
0.663, -1.980e-10
0.662, -1.975e-10
0.661, -1.970e-10
0.660, -1.964e-10
0.659, -1.959e-10
0.658, -1.954e-10
0.657, -1.949e-10
0.656, -1.944e-10
0.655, -1.937e-10
0.654, -1.931e-10
0.653, -1.926e-10
0.652, -1.921e-10
0.651, -1.918e-10
0.650, -1.914e-10
0.649, -1.909e-10
0.648, -1.904e-10
0.647, -1.898e-10
0.646, -1.894e-10
0.645, -1.889e-10
0.644, -1.883e-10
0.643, -1.879e-10
0.642, -1.873e-10
0.641, -1.868e-10
0.640, -1.863e-10
0.639, -1.858e-10
0.638, -1.853e-10
0.637, -1.848e-10
0.636, -1.843e-10
0.635, -1.839e-10
0.634, -1.835e-10
0.633, -1.830e-10
0.632, -1.826e-10
0.631, -1.821e-10
0.630, -1.817e-10
0.629, -1.813e-10
0.628, -1.810e-10
0.627, -1.808e-10
0.626, -1.805e-10
0.625, -1.803e-10
0.624, -1.800e-10
0.623, -1.797e-10
0.622, -1.794e-10
0.621, -1.790e-10
0.620, -1.787e-10
0.619, -1.784e-10
0.618, -1.780e-10
0.617, -1.777e-10
0.616, -1.773e-10
0.615, -1.769e-10
0.614, -1.766e-10
0.613, -1.763e-10
0.612, -1.760e-10
0.611, -1.755e-10
0.610, -1.751e-10
0.609, -1.748e-10
0.608, -1.743e-10
0.607, -1.738e-10
0.606, -1.734e-10
0.605, -1.728e-10
0.604, -1.723e-10
0.603, -1.719e-10
0.602, -1.716e-10
0.601, -1.714e-10
0.600, -1.711e-10
0.599, -1.708e-10
0.598, -1.707e-10
0.597, -1.705e-10
0.596, -1.703e-10
0.595, -1.701e-10
0.594, -1.698e-10
0.593, -1.695e-10
0.592, -1.692e-10
0.591, -1.688e-10
0.590, -1.685e-10
0.589, -1.681e-10
0.588, -1.679e-10
0.587, -1.677e-10
0.586, -1.677e-10
0.585, -1.680e-10
0.584, -1.685e-10
0.583, -1.691e-10
0.582, -1.696e-10
0.581, -1.698e-10
0.580, -1.698e-10
0.579, -1.696e-10
0.578, -1.692e-10
0.577, -1.685e-10
0.576, -1.680e-10
0.575, -1.675e-10
0.574, -1.669e-10
0.573, -1.663e-10
0.572, -1.658e-10
0.571, -1.655e-10
0.570, -1.652e-10
0.569, -1.648e-10
0.568, -1.642e-10
0.567, -1.637e-10
0.566, -1.632e-10
0.565, -1.626e-10
0.564, -1.619e-10
0.563, -1.614e-10
0.562, -1.608e-10
0.561, -1.603e-10
0.560, -1.598e-10
0.559, -1.593e-10
0.558, -1.588e-10
0.557, -1.583e-10
0.556, -1.578e-10
0.555, -1.572e-10
0.554, -1.567e-10
0.553, -1.561e-10
0.552, -1.555e-10
0.551, -1.549e-10
0.550, -1.544e-10
0.549, -1.540e-10
0.548, -1.535e-10
0.547, -1.529e-10
0.546, -1.523e-10
0.545, -1.519e-10
0.544, -1.513e-10
0.543, -1.507e-10
0.542, -1.501e-10
0.541, -1.496e-10
0.540, -1.491e-10
0.539, -1.485e-10
0.538, -1.482e-10
0.537, -1.477e-10
0.536, -1.473e-10
0.535, -1.467e-10
0.534, -1.461e-10
0.533, -1.455e-10
0.532, -1.449e-10
0.531, -1.445e-10
0.530, -1.440e-10
0.529, -1.435e-10
0.528, -1.430e-10
0.527, -1.424e-10
0.526, -1.419e-10
0.525, -1.413e-10
0.524, -1.408e-10
0.523, -1.405e-10
0.522, -1.403e-10
0.521, -1.401e-10
0.520, -1.399e-10
0.519, -1.397e-10
0.518, -1.394e-10
0.517, -1.392e-10
0.516, -1.389e-10
0.515, -1.385e-10
0.514, -1.379e-10
0.513, -1.373e-10
0.512, -1.368e-10
0.511, -1.362e-10
0.510, -1.356e-10
0.509, -1.350e-10
0.508, -1.344e-10
0.507, -1.339e-10
0.506, -1.333e-10
0.505, -1.328e-10
0.504, -1.322e-10
0.503, -1.316e-10
0.502, -1.308e-10
0.501, -1.302e-10
0.500, -1.295e-10
0.499, -1.288e-10
0.498, -1.281e-10
0.497, -1.275e-10
0.496, -1.268e-10
0.495, -1.262e-10
0.494, -1.255e-10
0.493, -1.248e-10
0.492, -1.242e-10
0.491, -1.237e-10
0.490, -1.229e-10
0.489, -1.223e-10
0.488, -1.216e-10
0.487, -1.210e-10
0.486, -1.205e-10
0.485, -1.198e-10
0.484, -1.193e-10
0.483, -1.188e-10
0.482, -1.182e-10
0.481, -1.176e-10
0.480, -1.171e-10
0.479, -1.166e-10
0.478, -1.162e-10
0.477, -1.158e-10
0.476, -1.153e-10
0.475, -1.149e-10
0.474, -1.144e-10
0.473, -1.140e-10
0.472, -1.134e-10
0.471, -1.130e-10
0.470, -1.124e-10
0.469, -1.118e-10
0.468, -1.112e-10
0.467, -1.105e-10
0.466, -1.100e-10
0.465, -1.095e-10
0.464, -1.090e-10
0.463, -1.084e-10
0.462, -1.078e-10
0.461, -1.071e-10
0.460, -1.065e-10
0.459, -1.059e-10
0.458, -1.053e-10
0.457, -1.046e-10
0.456, -1.040e-10
0.455, -1.034e-10
0.454, -1.028e-10
0.453, -1.022e-10
0.452, -1.017e-10
0.451, -1.010e-10
0.450, -1.004e-10
0.449, -9.975e-11
0.448, -9.911e-11
0.447, -9.857e-11
0.446, -9.801e-11
0.445, -9.753e-11
0.444, -9.708e-11
0.443, -9.665e-11
0.442, -9.624e-11
0.441, -9.578e-11
0.440, -9.532e-11
0.439, -9.484e-11
0.438, -9.433e-11
0.437, -9.382e-11
0.436, -9.338e-11
0.435, -9.289e-11
0.434, -9.239e-11
0.433, -9.190e-11
0.432, -9.135e-11
0.431, -9.090e-11
0.430, -9.037e-11
0.429, -8.987e-11
0.428, -8.946e-11
0.427, -8.907e-11
0.426, -8.849e-11
0.425, -8.780e-11
0.424, -8.706e-11
0.423, -8.638e-11
0.422, -8.579e-11
0.421, -8.516e-11
0.420, -8.457e-11
0.419, -8.398e-11
0.418, -8.333e-11
0.417, -8.268e-11
0.416, -8.203e-11
0.415, -8.146e-11
0.414, -8.087e-11
0.413, -8.028e-11
0.412, -7.970e-11
0.411, -7.913e-11
0.410, -7.869e-11
0.409, -7.818e-11
0.408, -7.771e-11
0.407, -7.722e-11
0.406, -7.675e-11
0.405, -7.621e-11
0.404, -7.571e-11
0.403, -7.514e-11
0.402, -7.452e-11
0.401, -7.393e-11
0.400, -7.335e-11
0.399, -7.271e-11
0.398, -7.207e-11
0.397, -7.149e-11
0.396, -7.096e-11
0.395, -7.039e-11
0.394, -6.988e-11
0.393, -6.940e-11
0.392, -6.892e-11
0.391, -6.846e-11
0.390, -6.800e-11
0.389, -6.752e-11
0.388, -6.704e-11
0.387, -6.661e-11
0.386, -6.614e-11
0.385, -6.566e-11
0.384, -6.515e-11
0.383, -6.463e-11
0.382, -6.415e-11
0.381, -6.360e-11
0.380, -6.310e-11
0.379, -6.261e-11
0.378, -6.208e-11
0.377, -6.156e-11
0.376, -6.106e-11
0.375, -6.054e-11
0.374, -6.006e-11
0.373, -5.959e-11
0.372, -5.912e-11
0.371, -5.867e-11
0.370, -5.816e-11
0.369, -5.764e-11
0.368, -5.713e-11
0.367, -5.666e-11
0.366, -5.620e-11
0.365, -5.575e-11
0.364, -5.525e-11
0.363, -5.479e-11
0.362, -5.432e-11
0.361, -5.391e-11
0.360, -5.346e-11
0.359, -5.296e-11
0.358, -5.254e-11
0.357, -5.211e-11
0.356, -5.165e-11
0.355, -5.119e-11
0.354, -5.074e-11
0.353, -5.027e-11
0.352, -4.982e-11
0.351, -4.943e-11
0.350, -4.900e-11
0.349, -4.861e-11
0.348, -4.824e-11
0.347, -4.776e-11
0.346, -4.740e-11
0.345, -4.698e-11
0.344, -4.655e-11
0.343, -4.612e-11
0.342, -4.564e-11
0.341, -4.523e-11
0.340, -4.477e-11
0.339, -4.430e-11
0.338, -4.387e-11
0.337, -4.349e-11
0.336, -4.310e-11
0.335, -4.274e-11
0.334, -4.229e-11
0.333, -4.188e-11
0.332, -4.149e-11
0.331, -4.110e-11
0.330, -4.070e-11
0.329, -4.035e-11
0.328, -4.001e-11
0.327, -3.964e-11
0.326, -3.922e-11
0.325, -3.882e-11
0.324, -3.846e-11
0.323, -3.812e-11
0.322, -3.774e-11
0.321, -3.738e-11
0.320, -3.694e-11
0.319, -3.660e-11
0.318, -3.641e-11
0.317, -3.598e-11
0.316, -3.550e-11
0.315, -3.514e-11
0.314, -3.475e-11
0.313, -3.445e-11
0.312, -3.414e-11
0.311, -3.375e-11
0.310, -3.340e-11
0.309, -3.298e-11
0.308, -3.262e-11
0.307, -3.221e-11
0.306, -3.182e-11
0.305, -3.148e-11
0.304, -3.122e-11
0.303, -3.081e-11
0.302, -3.046e-11
0.301, -3.015e-11
0.300, -2.976e-11
0.299, -2.943e-11
0.298, -2.906e-11
0.297, -2.876e-11
0.296, -2.845e-11
0.295, -2.808e-11
0.294, -2.775e-11
0.293, -2.737e-11
0.292, -2.700e-11
0.291, -2.670e-11
0.290, -2.637e-11
0.289, -2.603e-11
0.288, -2.572e-11
0.287, -2.541e-11
0.286, -2.509e-11
0.285, -2.481e-11
0.284, -2.454e-11
0.283, -2.415e-11
0.282, -2.387e-11
0.281, -2.374e-11
0.280, -2.349e-11
0.279, -2.312e-11
0.278, -2.277e-11
0.277, -2.243e-11
0.276, -2.212e-11
0.275, -2.185e-11
0.274, -2.152e-11
0.273, -2.120e-11
0.272, -2.090e-11
0.271, -2.058e-11
0.270, -2.029e-11
0.269, -1.997e-11
0.268, -1.963e-11
0.267, -1.936e-11
0.266, -1.907e-11
0.265, -1.876e-11
0.264, -1.847e-11
0.263, -1.824e-11
0.262, -1.800e-11
0.261, -1.769e-11
0.260, -1.742e-11
0.259, -1.716e-11
0.258, -1.686e-11
0.257, -1.657e-11
0.256, -1.632e-11
0.255, -1.617e-11
0.254, -1.596e-11
0.253, -1.570e-11
0.252, -1.542e-11
0.251, -1.518e-11
0.250, -1.493e-11
0.249, -1.464e-11
0.248, -1.437e-11
0.247, -1.419e-11
0.246, -1.393e-11
0.245, -1.376e-11
0.244, -1.355e-11
0.243, -1.327e-11
0.242, -1.298e-11
0.241, -1.272e-11
0.240, -1.252e-11
0.239, -1.235e-11
0.238, -1.219e-11
0.237, -1.187e-11
0.236, -1.161e-11
0.235, -1.149e-11
0.234, -1.128e-11
0.233, -1.105e-11
0.232, -1.081e-11
0.231, -1.058e-11
0.230, -1.051e-11
0.229, -1.030e-11
0.228, -1.009e-11
0.227, -9.896e-12
0.226, -9.678e-12
0.225, -9.498e-12
0.224, -9.329e-12
0.223, -9.145e-12
0.222, -8.955e-12
0.221, -8.770e-12
0.220, -8.596e-12
0.219, -8.408e-12
0.218, -8.203e-12
0.217, -8.040e-12
0.216, -7.908e-12
0.215, -7.744e-12
0.214, -7.533e-12
0.213, -7.373e-12
0.212, -7.210e-12
0.211, -7.046e-12
0.210, -6.875e-12
0.209, -6.772e-12
0.208, -6.605e-12
0.207, -6.439e-12
0.206, -6.303e-12
0.205, -6.171e-12
0.204, -5.983e-12
0.203, -5.847e-12
0.202, -5.701e-12
0.201, -5.566e-12
0.200, -5.406e-12
0.199, -5.304e-12
0.198, -5.205e-12
0.197, -5.085e-12
0.196, -4.960e-12
0.195, -4.807e-12
0.194, -4.682e-12
0.193, -4.561e-12
0.192, -4.476e-12
0.191, -4.351e-12
0.190, -4.236e-12
0.189, -4.066e-12
0.188, -4.021e-12
0.187, -3.826e-12
0.186, -3.769e-12
0.185, -3.658e-12
0.184, -3.560e-12
0.183, -3.489e-12
0.182, -3.376e-12
0.181, -3.277e-12
0.180, -3.161e-12
0.179, -3.046e-12
0.178, -2.937e-12
0.177, -2.878e-12
0.176, -2.812e-12
0.175, -2.705e-12
0.174, -2.572e-12
0.173, -2.417e-12
0.172, -2.245e-12
0.171, -2.185e-12
0.170, -2.094e-12
0.169, -1.992e-12
0.168, -1.886e-12
0.167, -1.817e-12
0.166, -1.731e-12
0.165, -1.607e-12
0.164, -1.507e-12
0.163, -1.427e-12
0.162, -1.337e-12
0.161, -1.230e-12
0.160, -1.088e-12
0.159, -1.032e-12
0.158, -1.012e-12
0.157, -9.467e-13
0.156, -8.348e-13
0.155, -6.884e-13
0.154, -5.679e-13
0.153, -4.765e-13
0.152, -4.040e-13
0.151, -3.095e-13
0.150, -2.418e-13
0.149, -1.851e-13
0.148, -8.270e-14
0.147, -6.537e-14
0.146, 1.024e-14
0.145, 1.496e-13
0.144, 2.552e-13
0.143, 3.072e-13
0.142, 3.615e-13
0.141, 4.946e-13
0.140, 5.718e-13
0.139, 6.127e-13
0.138, 6.419e-13
0.137, 7.293e-13
0.136, 7.151e-13
0.135, 8.057e-13
0.134, 8.939e-13
0.133, 9.750e-13
0.132, 1.046e-12
0.131, 1.088e-12
0.130, 1.188e-12
0.129, 1.267e-12
0.128, 1.319e-12
0.127, 1.374e-12
0.126, 1.422e-12
0.125, 1.468e-12
0.124, 1.550e-12
0.123, 1.632e-12
0.122, 1.720e-12
0.121, 1.713e-12
0.120, 1.813e-12
0.119, 1.860e-12
0.118, 1.897e-12
0.117, 1.932e-12
0.116, 2.047e-12
0.115, 2.067e-12
0.114, 2.122e-12
0.113, 2.204e-12
0.112, 2.292e-12
0.111, 2.334e-12
0.110, 2.386e-12
0.109, 2.449e-12
0.108, 2.420e-12
0.107, 2.449e-12
0.106, 2.466e-12
0.105, 2.548e-12
0.104, 2.568e-12
0.103, 2.588e-12
0.102, 2.653e-12
0.101, 2.732e-12
0.100, 2.766e-12
0.099, 2.899e-12
0.098, 3.023e-12
0.097, 3.094e-12
0.096, 3.054e-12
0.095, 3.159e-12
0.094, 3.101e-12
0.093, 3.124e-12
0.092, 3.227e-12
0.091, 3.267e-12
0.090, 3.276e-12
0.089, 3.255e-12
0.088, 3.285e-12
0.087, 3.203e-12
0.086, 3.254e-12
0.085, 3.354e-12
0.084, 3.445e-12
0.083, 3.480e-12
0.082, 3.507e-12
0.081, 3.458e-12
0.080, 3.501e-12
0.079, 3.639e-12
0.078, 3.640e-12
0.077, 3.643e-12
0.076, 3.686e-12
0.075, 3.756e-12
0.074, 3.751e-12
0.073, 3.651e-12
0.072, 3.732e-12
0.071, 3.876e-12
0.070, 3.928e-12
0.069, 3.974e-12
0.068, 3.996e-12
0.067, 3.982e-12
0.066, 4.030e-12
0.065, 4.064e-12
0.064, 4.066e-12
0.063, 4.046e-12
0.062, 4.081e-12
0.061, 4.123e-12
0.060, 4.171e-12
0.059, 4.153e-12
0.058, 4.193e-12
0.057, 4.221e-12
0.056, 4.195e-12
0.055, 4.187e-12
0.054, 4.218e-12
0.053, 4.274e-12
0.052, 4.275e-12
0.051, 4.300e-12
0.050, 4.344e-12
0.049, 4.345e-12
0.048, 4.345e-12
0.047, 4.399e-12
0.046, 4.392e-12
0.045, 4.403e-12
0.044, 4.400e-12
0.043, 4.413e-12
0.042, 4.430e-12
0.041, 4.469e-12
0.040, 4.478e-12
0.039, 4.511e-12
0.038, 4.516e-12
0.037, 4.483e-12
0.036, 4.503e-12
0.035, 4.506e-12
0.034, 4.529e-12
0.033, 4.567e-12
0.032, 4.553e-12
0.031, 4.559e-12
0.030, 4.562e-12
0.029, 4.591e-12
0.028, 4.629e-12
0.027, 4.596e-12
0.026, 4.639e-12
0.025, 4.660e-12
0.024, 4.679e-12
0.023, 4.725e-12
0.022, 4.717e-12
0.021, 4.718e-12
0.020, 4.730e-12
0.019, 4.734e-12
0.018, 4.744e-12
0.017, 4.738e-12
0.016, 4.733e-12
0.015, 4.732e-12
0.014, 4.758e-12
0.013, 4.714e-12
0.012, 4.748e-12
0.011, 4.820e-12
0.010, 4.822e-12
0.009, 4.872e-12
0.008, 4.850e-12
0.007, 4.842e-12
0.006, 4.859e-12
0.005, 4.891e-12
0.004, 4.843e-12
0.003, 4.838e-12
0.002, 4.881e-12
0.001, 4.902e-12
