May 25, 2023   19:12:15
Cyclic Voltammetry
File: c:/users/mapence2/desktop/data/2023_05_24\expt4\mix_8\cv_1.bin
Data Source:  Experiment
Instrument Model:  CHI760E
Header: CV
Note: 

Init E (V) = 0
High E (V) = 0.7
Low E (V) = 0
Final E (V) = 0
Init P/N = P
Scan Rate (V/s) = 0.005
Segment = 3
Sample Interval (V) = 0.001
Quiet Time (sec) = 2
Sensitivity (A/V) = 1e-9

Results:

Channel 1:
Segment 1:

Segment 2:

Segment 3:

Potential/V, Current/A

0.000, 2.139e-11
0.001, 1.758e-11
0.002, 1.489e-11
0.003, 1.279e-11
0.004, 1.106e-11
0.005, 9.579e-12
0.006, 8.291e-12
0.007, 7.262e-12
0.008, 6.416e-12
0.009, 5.631e-12
0.010, 5.000e-12
0.011, 4.445e-12
0.012, 4.069e-12
0.013, 3.658e-12
0.014, 3.257e-12
0.015, 2.944e-12
0.016, 2.681e-12
0.017, 2.430e-12
0.018, 2.283e-12
0.019, 2.054e-12
0.020, 1.830e-12
0.021, 1.655e-12
0.022, 1.483e-12
0.023, 1.351e-12
0.024, 1.240e-12
0.025, 1.073e-12
0.026, 9.427e-13
0.027, 7.151e-13
0.028, 6.198e-13
0.029, 5.450e-13
0.030, 4.088e-13
0.031, 3.410e-13
0.032, 2.449e-13
0.033, 2.087e-13
0.034, 3.623e-14
0.035, -4.017e-14
0.036, -2.174e-13
0.037, -2.623e-13
0.038, -2.969e-13
0.039, -3.938e-13
0.040, -5.308e-13
0.041, -5.946e-13
0.042, -6.679e-13
0.043, -7.222e-13
0.044, -8.309e-13
0.045, -8.506e-13
0.046, -8.860e-13
0.047, -9.750e-13
0.048, -1.056e-12
0.049, -1.129e-12
0.050, -1.168e-12
0.051, -1.256e-12
0.052, -1.344e-12
0.053, -1.378e-12
0.054, -1.477e-12
0.055, -1.521e-12
0.056, -1.617e-12
0.057, -1.679e-12
0.058, -1.730e-12
0.059, -1.918e-12
0.060, -1.934e-12
0.061, -1.941e-12
0.062, -1.983e-12
0.063, -2.060e-12
0.064, -2.168e-12
0.065, -2.348e-12
0.066, -2.325e-12
0.067, -2.390e-12
0.068, -2.487e-12
0.069, -2.549e-12
0.070, -2.592e-12
0.071, -2.672e-12
0.072, -2.778e-12
0.073, -2.823e-12
0.074, -2.890e-12
0.075, -2.950e-12
0.076, -3.020e-12
0.077, -3.080e-12
0.078, -3.224e-12
0.079, -3.268e-12
0.080, -3.309e-12
0.081, -3.428e-12
0.082, -3.502e-12
0.083, -3.589e-12
0.084, -3.638e-12
0.085, -3.755e-12
0.086, -3.835e-12
0.087, -3.885e-12
0.088, -4.026e-12
0.089, -4.107e-12
0.090, -4.215e-12
0.091, -4.295e-12
0.092, -4.385e-12
0.093, -4.429e-12
0.094, -4.477e-12
0.095, -4.581e-12
0.096, -4.650e-12
0.097, -4.733e-12
0.098, -4.863e-12
0.099, -4.923e-12
0.100, -5.046e-12
0.101, -5.143e-12
0.102, -5.245e-12
0.103, -5.312e-12
0.104, -5.413e-12
0.105, -5.528e-12
0.106, -5.612e-12
0.107, -5.699e-12
0.108, -5.790e-12
0.109, -5.891e-12
0.110, -6.016e-12
0.111, -6.127e-12
0.112, -6.209e-12
0.113, -6.308e-12
0.114, -6.418e-12
0.115, -6.537e-12
0.116, -6.650e-12
0.117, -6.755e-12
0.118, -6.863e-12
0.119, -6.955e-12
0.120, -7.105e-12
0.121, -7.217e-12
0.122, -7.330e-12
0.123, -7.421e-12
0.124, -7.595e-12
0.125, -7.653e-12
0.126, -7.818e-12
0.127, -7.983e-12
0.128, -8.068e-12
0.129, -8.255e-12
0.130, -8.458e-12
0.131, -8.538e-12
0.132, -8.630e-12
0.133, -8.763e-12
0.134, -8.934e-12
0.135, -9.036e-12
0.136, -9.271e-12
0.137, -9.375e-12
0.138, -9.502e-12
0.139, -9.638e-12
0.140, -9.787e-12
0.141, -9.876e-12
0.142, -1.005e-11
0.143, -1.016e-11
0.144, -1.029e-11
0.145, -1.050e-11
0.146, -1.066e-11
0.147, -1.079e-11
0.148, -1.092e-11
0.149, -1.105e-11
0.150, -1.123e-11
0.151, -1.142e-11
0.152, -1.156e-11
0.153, -1.176e-11
0.154, -1.195e-11
0.155, -1.212e-11
0.156, -1.225e-11
0.157, -1.243e-11
0.158, -1.260e-11
0.159, -1.279e-11
0.160, -1.299e-11
0.161, -1.317e-11
0.162, -1.338e-11
0.163, -1.357e-11
0.164, -1.375e-11
0.165, -1.388e-11
0.166, -1.411e-11
0.167, -1.429e-11
0.168, -1.453e-11
0.169, -1.471e-11
0.170, -1.495e-11
0.171, -1.512e-11
0.172, -1.532e-11
0.173, -1.557e-11
0.174, -1.575e-11
0.175, -1.598e-11
0.176, -1.619e-11
0.177, -1.639e-11
0.178, -1.658e-11
0.179, -1.685e-11
0.180, -1.707e-11
0.181, -1.734e-11
0.182, -1.761e-11
0.183, -1.781e-11
0.184, -1.806e-11
0.185, -1.828e-11
0.186, -1.849e-11
0.187, -1.872e-11
0.188, -1.903e-11
0.189, -1.932e-11
0.190, -1.964e-11
0.191, -1.984e-11
0.192, -2.009e-11
0.193, -2.039e-11
0.194, -2.066e-11
0.195, -2.095e-11
0.196, -2.126e-11
0.197, -2.149e-11
0.198, -2.174e-11
0.199, -2.199e-11
0.200, -2.232e-11
0.201, -2.266e-11
0.202, -2.298e-11
0.203, -2.333e-11
0.204, -2.363e-11
0.205, -2.389e-11
0.206, -2.416e-11
0.207, -2.447e-11
0.208, -2.481e-11
0.209, -2.513e-11
0.210, -2.545e-11
0.211, -2.584e-11
0.212, -2.618e-11
0.213, -2.648e-11
0.214, -2.682e-11
0.215, -2.715e-11
0.216, -2.750e-11
0.217, -2.787e-11
0.218, -2.825e-11
0.219, -2.858e-11
0.220, -2.899e-11
0.221, -2.931e-11
0.222, -2.966e-11
0.223, -3.010e-11
0.224, -3.048e-11
0.225, -3.089e-11
0.226, -3.126e-11
0.227, -3.166e-11
0.228, -3.207e-11
0.229, -3.249e-11
0.230, -3.291e-11
0.231, -3.331e-11
0.232, -3.382e-11
0.233, -3.420e-11
0.234, -3.460e-11
0.235, -3.503e-11
0.236, -3.542e-11
0.237, -3.588e-11
0.238, -3.638e-11
0.239, -3.679e-11
0.240, -3.726e-11
0.241, -3.775e-11
0.242, -3.819e-11
0.243, -3.867e-11
0.244, -3.918e-11
0.245, -3.962e-11
0.246, -4.015e-11
0.247, -4.060e-11
0.248, -4.113e-11
0.249, -4.168e-11
0.250, -4.223e-11
0.251, -4.270e-11
0.252, -4.321e-11
0.253, -4.375e-11
0.254, -4.432e-11
0.255, -4.489e-11
0.256, -4.542e-11
0.257, -4.597e-11
0.258, -4.654e-11
0.259, -4.714e-11
0.260, -4.769e-11
0.261, -4.821e-11
0.262, -4.876e-11
0.263, -4.930e-11
0.264, -4.992e-11
0.265, -5.049e-11
0.266, -5.104e-11
0.267, -5.159e-11
0.268, -5.223e-11
0.269, -5.286e-11
0.270, -5.347e-11
0.271, -5.409e-11
0.272, -5.478e-11
0.273, -5.544e-11
0.274, -5.604e-11
0.275, -5.672e-11
0.276, -5.741e-11
0.277, -5.808e-11
0.278, -5.884e-11
0.279, -5.963e-11
0.280, -6.041e-11
0.281, -6.104e-11
0.282, -6.166e-11
0.283, -6.231e-11
0.284, -6.299e-11
0.285, -6.370e-11
0.286, -6.436e-11
0.287, -6.505e-11
0.288, -6.572e-11
0.289, -6.640e-11
0.290, -6.710e-11
0.291, -6.779e-11
0.292, -6.852e-11
0.293, -6.917e-11
0.294, -6.988e-11
0.295, -7.059e-11
0.296, -7.132e-11
0.297, -7.201e-11
0.298, -7.284e-11
0.299, -7.361e-11
0.300, -7.433e-11
0.301, -7.508e-11
0.302, -7.583e-11
0.303, -7.654e-11
0.304, -7.728e-11
0.305, -7.805e-11
0.306, -7.878e-11
0.307, -7.959e-11
0.308, -8.040e-11
0.309, -8.110e-11
0.310, -8.179e-11
0.311, -8.253e-11
0.312, -8.329e-11
0.313, -8.402e-11
0.314, -8.477e-11
0.315, -8.553e-11
0.316, -8.632e-11
0.317, -8.716e-11
0.318, -8.795e-11
0.319, -8.870e-11
0.320, -8.945e-11
0.321, -9.021e-11
0.322, -9.095e-11
0.323, -9.173e-11
0.324, -9.247e-11
0.325, -9.328e-11
0.326, -9.408e-11
0.327, -9.479e-11
0.328, -9.560e-11
0.329, -9.630e-11
0.330, -9.692e-11
0.331, -9.765e-11
0.332, -9.840e-11
0.333, -9.913e-11
0.334, -9.995e-11
0.335, -1.008e-10
0.336, -1.015e-10
0.337, -1.022e-10
0.338, -1.029e-10
0.339, -1.037e-10
0.340, -1.046e-10
0.341, -1.055e-10
0.342, -1.063e-10
0.343, -1.071e-10
0.344, -1.079e-10
0.345, -1.085e-10
0.346, -1.092e-10
0.347, -1.099e-10
0.348, -1.106e-10
0.349, -1.112e-10
0.350, -1.118e-10
0.351, -1.124e-10
0.352, -1.130e-10
0.353, -1.135e-10
0.354, -1.141e-10
0.355, -1.147e-10
0.356, -1.153e-10
0.357, -1.158e-10
0.358, -1.164e-10
0.359, -1.170e-10
0.360, -1.176e-10
0.361, -1.182e-10
0.362, -1.188e-10
0.363, -1.194e-10
0.364, -1.200e-10
0.365, -1.206e-10
0.366, -1.212e-10
0.367, -1.217e-10
0.368, -1.223e-10
0.369, -1.229e-10
0.370, -1.235e-10
0.371, -1.240e-10
0.372, -1.245e-10
0.373, -1.251e-10
0.374, -1.257e-10
0.375, -1.262e-10
0.376, -1.267e-10
0.377, -1.272e-10
0.378, -1.278e-10
0.379, -1.283e-10
0.380, -1.288e-10
0.381, -1.293e-10
0.382, -1.298e-10
0.383, -1.302e-10
0.384, -1.306e-10
0.385, -1.311e-10
0.386, -1.315e-10
0.387, -1.320e-10
0.388, -1.324e-10
0.389, -1.328e-10
0.390, -1.332e-10
0.391, -1.336e-10
0.392, -1.340e-10
0.393, -1.344e-10
0.394, -1.348e-10
0.395, -1.353e-10
0.396, -1.358e-10
0.397, -1.363e-10
0.398, -1.369e-10
0.399, -1.375e-10
0.400, -1.381e-10
0.401, -1.386e-10
0.402, -1.391e-10
0.403, -1.396e-10
0.404, -1.401e-10
0.405, -1.405e-10
0.406, -1.410e-10
0.407, -1.414e-10
0.408, -1.419e-10
0.409, -1.424e-10
0.410, -1.429e-10
0.411, -1.434e-10
0.412, -1.439e-10
0.413, -1.443e-10
0.414, -1.447e-10
0.415, -1.451e-10
0.416, -1.456e-10
0.417, -1.460e-10
0.418, -1.464e-10
0.419, -1.469e-10
0.420, -1.473e-10
0.421, -1.477e-10
0.422, -1.481e-10
0.423, -1.484e-10
0.424, -1.488e-10
0.425, -1.490e-10
0.426, -1.493e-10
0.427, -1.496e-10
0.428, -1.497e-10
0.429, -1.499e-10
0.430, -1.500e-10
0.431, -1.502e-10
0.432, -1.505e-10
0.433, -1.507e-10
0.434, -1.511e-10
0.435, -1.513e-10
0.436, -1.516e-10
0.437, -1.518e-10
0.438, -1.520e-10
0.439, -1.523e-10
0.440, -1.526e-10
0.441, -1.528e-10
0.442, -1.531e-10
0.443, -1.533e-10
0.444, -1.536e-10
0.445, -1.539e-10
0.446, -1.542e-10
0.447, -1.544e-10
0.448, -1.547e-10
0.449, -1.551e-10
0.450, -1.554e-10
0.451, -1.558e-10
0.452, -1.562e-10
0.453, -1.566e-10
0.454, -1.570e-10
0.455, -1.574e-10
0.456, -1.577e-10
0.457, -1.580e-10
0.458, -1.582e-10
0.459, -1.584e-10
0.460, -1.587e-10
0.461, -1.590e-10
0.462, -1.594e-10
0.463, -1.596e-10
0.464, -1.599e-10
0.465, -1.602e-10
0.466, -1.605e-10
0.467, -1.608e-10
0.468, -1.611e-10
0.469, -1.614e-10
0.470, -1.617e-10
0.471, -1.619e-10
0.472, -1.622e-10
0.473, -1.625e-10
0.474, -1.628e-10
0.475, -1.631e-10
0.476, -1.634e-10
0.477, -1.637e-10
0.478, -1.640e-10
0.479, -1.644e-10
0.480, -1.647e-10
0.481, -1.650e-10
0.482, -1.653e-10
0.483, -1.655e-10
0.484, -1.658e-10
0.485, -1.660e-10
0.486, -1.663e-10
0.487, -1.666e-10
0.488, -1.669e-10
0.489, -1.672e-10
0.490, -1.674e-10
0.491, -1.677e-10
0.492, -1.680e-10
0.493, -1.683e-10
0.494, -1.688e-10
0.495, -1.693e-10
0.496, -1.699e-10
0.497, -1.704e-10
0.498, -1.710e-10
0.499, -1.715e-10
0.500, -1.721e-10
0.501, -1.726e-10
0.502, -1.729e-10
0.503, -1.734e-10
0.504, -1.737e-10
0.505, -1.740e-10
0.506, -1.742e-10
0.507, -1.745e-10
0.508, -1.747e-10
0.509, -1.749e-10
0.510, -1.751e-10
0.511, -1.753e-10
0.512, -1.755e-10
0.513, -1.757e-10
0.514, -1.759e-10
0.515, -1.761e-10
0.516, -1.762e-10
0.517, -1.764e-10
0.518, -1.765e-10
0.519, -1.766e-10
0.520, -1.768e-10
0.521, -1.770e-10
0.522, -1.772e-10
0.523, -1.775e-10
0.524, -1.778e-10
0.525, -1.780e-10
0.526, -1.782e-10
0.527, -1.784e-10
0.528, -1.785e-10
0.529, -1.787e-10
0.530, -1.788e-10
0.531, -1.790e-10
0.532, -1.791e-10
0.533, -1.793e-10
0.534, -1.795e-10
0.535, -1.797e-10
0.536, -1.799e-10
0.537, -1.802e-10
0.538, -1.805e-10
0.539, -1.808e-10
0.540, -1.811e-10
0.541, -1.812e-10
0.542, -1.813e-10
0.543, -1.814e-10
0.544, -1.816e-10
0.545, -1.817e-10
0.546, -1.819e-10
0.547, -1.820e-10
0.548, -1.821e-10
0.549, -1.823e-10
0.550, -1.824e-10
0.551, -1.825e-10
0.552, -1.827e-10
0.553, -1.828e-10
0.554, -1.831e-10
0.555, -1.833e-10
0.556, -1.836e-10
0.557, -1.839e-10
0.558, -1.842e-10
0.559, -1.845e-10
0.560, -1.847e-10
0.561, -1.849e-10
0.562, -1.852e-10
0.563, -1.856e-10
0.564, -1.861e-10
0.565, -1.866e-10
0.566, -1.875e-10
0.567, -1.883e-10
0.568, -1.891e-10
0.569, -1.897e-10
0.570, -1.903e-10
0.571, -1.907e-10
0.572, -1.911e-10
0.573, -1.914e-10
0.574, -1.917e-10
0.575, -1.921e-10
0.576, -1.926e-10
0.577, -1.930e-10
0.578, -1.934e-10
0.579, -1.939e-10
0.580, -1.944e-10
0.581, -1.947e-10
0.582, -1.951e-10
0.583, -1.954e-10
0.584, -1.957e-10
0.585, -1.959e-10
0.586, -1.959e-10
0.587, -1.960e-10
0.588, -1.962e-10
0.589, -1.964e-10
0.590, -1.965e-10
0.591, -1.967e-10
0.592, -1.971e-10
0.593, -1.975e-10
0.594, -1.980e-10
0.595, -1.987e-10
0.596, -1.999e-10
0.597, -2.013e-10
0.598, -2.027e-10
0.599, -2.038e-10
0.600, -2.044e-10
0.601, -2.050e-10
0.602, -2.056e-10
0.603, -2.063e-10
0.604, -2.069e-10
0.605, -2.074e-10
0.606, -2.079e-10
0.607, -2.081e-10
0.608, -2.082e-10
0.609, -2.080e-10
0.610, -2.079e-10
0.611, -2.076e-10
0.612, -2.073e-10
0.613, -2.071e-10
0.614, -2.070e-10
0.615, -2.069e-10
0.616, -2.068e-10
0.617, -2.066e-10
0.618, -2.065e-10
0.619, -2.064e-10
0.620, -2.064e-10
0.621, -2.064e-10
0.622, -2.065e-10
0.623, -2.066e-10
0.624, -2.067e-10
0.625, -2.069e-10
0.626, -2.070e-10
0.627, -2.072e-10
0.628, -2.074e-10
0.629, -2.077e-10
0.630, -2.079e-10
0.631, -2.082e-10
0.632, -2.084e-10
0.633, -2.086e-10
0.634, -2.088e-10
0.635, -2.090e-10
0.636, -2.092e-10
0.637, -2.093e-10
0.638, -2.095e-10
0.639, -2.096e-10
0.640, -2.098e-10
0.641, -2.100e-10
0.642, -2.102e-10
0.643, -2.104e-10
0.644, -2.106e-10
0.645, -2.107e-10
0.646, -2.109e-10
0.647, -2.112e-10
0.648, -2.114e-10
0.649, -2.116e-10
0.650, -2.117e-10
0.651, -2.118e-10
0.652, -2.120e-10
0.653, -2.121e-10
0.654, -2.122e-10
0.655, -2.123e-10
0.656, -2.125e-10
0.657, -2.128e-10
0.658, -2.131e-10
0.659, -2.134e-10
0.660, -2.137e-10
0.661, -2.140e-10
0.662, -2.141e-10
0.663, -2.144e-10
0.664, -2.147e-10
0.665, -2.149e-10
0.666, -2.152e-10
0.667, -2.155e-10
0.668, -2.159e-10
0.669, -2.162e-10
0.670, -2.167e-10
0.671, -2.172e-10
0.672, -2.178e-10
0.673, -2.183e-10
0.674, -2.188e-10
0.675, -2.193e-10
0.676, -2.198e-10
0.677, -2.204e-10
0.678, -2.209e-10
0.679, -2.214e-10
0.680, -2.219e-10
0.681, -2.223e-10
0.682, -2.227e-10
0.683, -2.229e-10
0.684, -2.230e-10
0.685, -2.232e-10
0.686, -2.233e-10
0.687, -2.234e-10
0.688, -2.236e-10
0.689, -2.240e-10
0.690, -2.243e-10
0.691, -2.248e-10
0.692, -2.252e-10
0.693, -2.256e-10
0.694, -2.260e-10
0.695, -2.264e-10
0.696, -2.269e-10
0.697, -2.273e-10
0.698, -2.276e-10
0.699, -2.281e-10
0.700, -2.281e-10
0.699, -2.265e-10
0.698, -2.252e-10
0.697, -2.242e-10
0.696, -2.233e-10
0.695, -2.223e-10
0.694, -2.215e-10
0.693, -2.206e-10
0.692, -2.198e-10
0.691, -2.188e-10
0.690, -2.180e-10
0.689, -2.172e-10
0.688, -2.164e-10
0.687, -2.158e-10
0.686, -2.152e-10
0.685, -2.146e-10
0.684, -2.141e-10
0.683, -2.136e-10
0.682, -2.131e-10
0.681, -2.128e-10
0.680, -2.124e-10
0.679, -2.121e-10
0.678, -2.116e-10
0.677, -2.113e-10
0.676, -2.108e-10
0.675, -2.104e-10
0.674, -2.099e-10
0.673, -2.094e-10
0.672, -2.087e-10
0.671, -2.082e-10
0.670, -2.075e-10
0.669, -2.068e-10
0.668, -2.061e-10
0.667, -2.055e-10
0.666, -2.050e-10
0.665, -2.046e-10
0.664, -2.044e-10
0.663, -2.044e-10
0.662, -2.043e-10
0.661, -2.042e-10
0.660, -2.039e-10
0.659, -2.037e-10
0.658, -2.034e-10
0.657, -2.030e-10
0.656, -2.027e-10
0.655, -2.024e-10
0.654, -2.020e-10
0.653, -2.017e-10
0.652, -2.012e-10
0.651, -2.007e-10
0.650, -2.001e-10
0.649, -1.995e-10
0.648, -1.989e-10
0.647, -1.984e-10
0.646, -1.979e-10
0.645, -1.973e-10
0.644, -1.968e-10
0.643, -1.965e-10
0.642, -1.962e-10
0.641, -1.960e-10
0.640, -1.959e-10
0.639, -1.958e-10
0.638, -1.957e-10
0.637, -1.956e-10
0.636, -1.955e-10
0.635, -1.952e-10
0.634, -1.949e-10
0.633, -1.945e-10
0.632, -1.941e-10
0.631, -1.937e-10
0.630, -1.933e-10
0.629, -1.929e-10
0.628, -1.924e-10
0.627, -1.919e-10
0.626, -1.916e-10
0.625, -1.911e-10
0.624, -1.907e-10
0.623, -1.901e-10
0.622, -1.896e-10
0.621, -1.892e-10
0.620, -1.888e-10
0.619, -1.884e-10
0.618, -1.880e-10
0.617, -1.874e-10
0.616, -1.868e-10
0.615, -1.862e-10
0.614, -1.857e-10
0.613, -1.851e-10
0.612, -1.847e-10
0.611, -1.843e-10
0.610, -1.840e-10
0.609, -1.837e-10
0.608, -1.835e-10
0.607, -1.834e-10
0.606, -1.834e-10
0.605, -1.834e-10
0.604, -1.831e-10
0.603, -1.828e-10
0.602, -1.826e-10
0.601, -1.823e-10
0.600, -1.820e-10
0.599, -1.819e-10
0.598, -1.818e-10
0.597, -1.816e-10
0.596, -1.816e-10
0.595, -1.819e-10
0.594, -1.825e-10
0.593, -1.831e-10
0.592, -1.834e-10
0.591, -1.835e-10
0.590, -1.836e-10
0.589, -1.838e-10
0.588, -1.839e-10
0.587, -1.838e-10
0.586, -1.834e-10
0.585, -1.830e-10
0.584, -1.825e-10
0.583, -1.818e-10
0.582, -1.811e-10
0.581, -1.804e-10
0.580, -1.796e-10
0.579, -1.789e-10
0.578, -1.782e-10
0.577, -1.776e-10
0.576, -1.771e-10
0.575, -1.765e-10
0.574, -1.760e-10
0.573, -1.756e-10
0.572, -1.752e-10
0.571, -1.749e-10
0.570, -1.745e-10
0.569, -1.740e-10
0.568, -1.734e-10
0.567, -1.728e-10
0.566, -1.721e-10
0.565, -1.715e-10
0.564, -1.708e-10
0.563, -1.703e-10
0.562, -1.697e-10
0.561, -1.693e-10
0.560, -1.688e-10
0.559, -1.684e-10
0.558, -1.681e-10
0.557, -1.678e-10
0.556, -1.674e-10
0.555, -1.669e-10
0.554, -1.664e-10
0.553, -1.657e-10
0.552, -1.651e-10
0.551, -1.646e-10
0.550, -1.642e-10
0.549, -1.638e-10
0.548, -1.633e-10
0.547, -1.629e-10
0.546, -1.624e-10
0.545, -1.619e-10
0.544, -1.614e-10
0.543, -1.610e-10
0.542, -1.605e-10
0.541, -1.600e-10
0.540, -1.594e-10
0.539, -1.589e-10
0.538, -1.583e-10
0.537, -1.577e-10
0.536, -1.571e-10
0.535, -1.568e-10
0.534, -1.562e-10
0.533, -1.556e-10
0.532, -1.550e-10
0.531, -1.544e-10
0.530, -1.538e-10
0.529, -1.532e-10
0.528, -1.527e-10
0.527, -1.523e-10
0.526, -1.520e-10
0.525, -1.516e-10
0.524, -1.512e-10
0.523, -1.507e-10
0.522, -1.503e-10
0.521, -1.498e-10
0.520, -1.494e-10
0.519, -1.492e-10
0.518, -1.491e-10
0.517, -1.492e-10
0.516, -1.496e-10
0.515, -1.502e-10
0.514, -1.507e-10
0.513, -1.508e-10
0.512, -1.506e-10
0.511, -1.502e-10
0.510, -1.497e-10
0.509, -1.490e-10
0.508, -1.482e-10
0.507, -1.473e-10
0.506, -1.465e-10
0.505, -1.455e-10
0.504, -1.447e-10
0.503, -1.441e-10
0.502, -1.436e-10
0.501, -1.433e-10
0.500, -1.431e-10
0.499, -1.428e-10
0.498, -1.425e-10
0.497, -1.421e-10
0.496, -1.416e-10
0.495, -1.411e-10
0.494, -1.405e-10
0.493, -1.399e-10
0.492, -1.392e-10
0.491, -1.385e-10
0.490, -1.378e-10
0.489, -1.371e-10
0.488, -1.363e-10
0.487, -1.357e-10
0.486, -1.350e-10
0.485, -1.343e-10
0.484, -1.337e-10
0.483, -1.330e-10
0.482, -1.324e-10
0.481, -1.318e-10
0.480, -1.312e-10
0.479, -1.306e-10
0.478, -1.300e-10
0.477, -1.293e-10
0.476, -1.286e-10
0.475, -1.280e-10
0.474, -1.274e-10
0.473, -1.268e-10
0.472, -1.261e-10
0.471, -1.255e-10
0.470, -1.249e-10
0.469, -1.242e-10
0.468, -1.236e-10
0.467, -1.230e-10
0.466, -1.224e-10
0.465, -1.218e-10
0.464, -1.212e-10
0.463, -1.206e-10
0.462, -1.200e-10
0.461, -1.194e-10
0.460, -1.188e-10
0.459, -1.181e-10
0.458, -1.174e-10
0.457, -1.168e-10
0.456, -1.161e-10
0.455, -1.155e-10
0.454, -1.149e-10
0.453, -1.143e-10
0.452, -1.138e-10
0.451, -1.132e-10
0.450, -1.126e-10
0.449, -1.120e-10
0.448, -1.114e-10
0.447, -1.109e-10
0.446, -1.104e-10
0.445, -1.098e-10
0.444, -1.093e-10
0.443, -1.088e-10
0.442, -1.082e-10
0.441, -1.077e-10
0.440, -1.072e-10
0.439, -1.067e-10
0.438, -1.062e-10
0.437, -1.056e-10
0.436, -1.051e-10
0.435, -1.045e-10
0.434, -1.039e-10
0.433, -1.033e-10
0.432, -1.028e-10
0.431, -1.022e-10
0.430, -1.016e-10
0.429, -1.010e-10
0.428, -1.004e-10
0.427, -9.978e-11
0.426, -9.918e-11
0.425, -9.856e-11
0.424, -9.797e-11
0.423, -9.739e-11
0.422, -9.681e-11
0.421, -9.627e-11
0.420, -9.573e-11
0.419, -9.521e-11
0.418, -9.461e-11
0.417, -9.399e-11
0.416, -9.343e-11
0.415, -9.285e-11
0.414, -9.234e-11
0.413, -9.177e-11
0.412, -9.123e-11
0.411, -9.059e-11
0.410, -8.997e-11
0.409, -8.932e-11
0.408, -8.868e-11
0.407, -8.807e-11
0.406, -8.744e-11
0.405, -8.683e-11
0.404, -8.626e-11
0.403, -8.566e-11
0.402, -8.501e-11
0.401, -8.439e-11
0.400, -8.381e-11
0.399, -8.322e-11
0.398, -8.260e-11
0.397, -8.198e-11
0.396, -8.138e-11
0.395, -8.079e-11
0.394, -8.023e-11
0.393, -7.967e-11
0.392, -7.910e-11
0.391, -7.848e-11
0.390, -7.793e-11
0.389, -7.740e-11
0.388, -7.683e-11
0.387, -7.628e-11
0.386, -7.568e-11
0.385, -7.518e-11
0.384, -7.458e-11
0.383, -7.405e-11
0.382, -7.350e-11
0.381, -7.299e-11
0.380, -7.238e-11
0.379, -7.183e-11
0.378, -7.132e-11
0.377, -7.078e-11
0.376, -7.029e-11
0.375, -6.976e-11
0.374, -6.923e-11
0.373, -6.872e-11
0.372, -6.822e-11
0.371, -6.771e-11
0.370, -6.717e-11
0.369, -6.661e-11
0.368, -6.612e-11
0.367, -6.562e-11
0.366, -6.511e-11
0.365, -6.462e-11
0.364, -6.414e-11
0.363, -6.364e-11
0.362, -6.314e-11
0.361, -6.265e-11
0.360, -6.215e-11
0.359, -6.167e-11
0.358, -6.114e-11
0.357, -6.065e-11
0.356, -6.021e-11
0.355, -5.974e-11
0.354, -5.927e-11
0.353, -5.881e-11
0.352, -5.836e-11
0.351, -5.786e-11
0.350, -5.739e-11
0.349, -5.687e-11
0.348, -5.637e-11
0.347, -5.591e-11
0.346, -5.540e-11
0.345, -5.488e-11
0.344, -5.441e-11
0.343, -5.395e-11
0.342, -5.346e-11
0.341, -5.299e-11
0.340, -5.253e-11
0.339, -5.208e-11
0.338, -5.162e-11
0.337, -5.118e-11
0.336, -5.072e-11
0.335, -5.021e-11
0.334, -4.979e-11
0.333, -4.941e-11
0.332, -4.892e-11
0.331, -4.849e-11
0.330, -4.810e-11
0.329, -4.759e-11
0.328, -4.716e-11
0.327, -4.676e-11
0.326, -4.630e-11
0.325, -4.590e-11
0.324, -4.551e-11
0.323, -4.506e-11
0.322, -4.463e-11
0.321, -4.423e-11
0.320, -4.378e-11
0.319, -4.330e-11
0.318, -4.290e-11
0.317, -4.252e-11
0.316, -4.213e-11
0.315, -4.172e-11
0.314, -4.130e-11
0.313, -4.086e-11
0.312, -4.042e-11
0.311, -4.000e-11
0.310, -3.966e-11
0.309, -3.931e-11
0.308, -3.895e-11
0.307, -3.857e-11
0.306, -3.817e-11
0.305, -3.783e-11
0.304, -3.743e-11
0.303, -3.699e-11
0.302, -3.663e-11
0.301, -3.625e-11
0.300, -3.584e-11
0.299, -3.546e-11
0.298, -3.509e-11
0.297, -3.479e-11
0.296, -3.444e-11
0.295, -3.408e-11
0.294, -3.373e-11
0.293, -3.332e-11
0.292, -3.296e-11
0.291, -3.266e-11
0.290, -3.229e-11
0.289, -3.199e-11
0.288, -3.166e-11
0.287, -3.134e-11
0.286, -3.101e-11
0.285, -3.068e-11
0.284, -3.031e-11
0.283, -2.996e-11
0.282, -2.963e-11
0.281, -2.929e-11
0.280, -2.896e-11
0.279, -2.869e-11
0.278, -2.839e-11
0.277, -2.804e-11
0.276, -2.767e-11
0.275, -2.735e-11
0.274, -2.702e-11
0.273, -2.668e-11
0.272, -2.632e-11
0.271, -2.600e-11
0.270, -2.570e-11
0.269, -2.536e-11
0.268, -2.501e-11
0.267, -2.465e-11
0.266, -2.433e-11
0.265, -2.397e-11
0.264, -2.364e-11
0.263, -2.334e-11
0.262, -2.296e-11
0.261, -2.265e-11
0.260, -2.234e-11
0.259, -2.204e-11
0.258, -2.174e-11
0.257, -2.143e-11
0.256, -2.118e-11
0.255, -2.092e-11
0.254, -2.058e-11
0.253, -2.032e-11
0.252, -2.006e-11
0.251, -1.979e-11
0.250, -1.954e-11
0.249, -1.925e-11
0.248, -1.898e-11
0.247, -1.874e-11
0.246, -1.846e-11
0.245, -1.821e-11
0.244, -1.790e-11
0.243, -1.769e-11
0.242, -1.741e-11
0.241, -1.717e-11
0.240, -1.693e-11
0.239, -1.670e-11
0.238, -1.647e-11
0.237, -1.622e-11
0.236, -1.595e-11
0.235, -1.571e-11
0.234, -1.544e-11
0.233, -1.518e-11
0.232, -1.501e-11
0.231, -1.474e-11
0.230, -1.452e-11
0.229, -1.430e-11
0.228, -1.407e-11
0.227, -1.383e-11
0.226, -1.363e-11
0.225, -1.344e-11
0.224, -1.321e-11
0.223, -1.300e-11
0.222, -1.279e-11
0.221, -1.260e-11
0.220, -1.241e-11
0.219, -1.219e-11
0.218, -1.193e-11
0.217, -1.176e-11
0.216, -1.154e-11
0.215, -1.134e-11
0.214, -1.119e-11
0.213, -1.100e-11
0.212, -1.086e-11
0.211, -1.064e-11
0.210, -1.041e-11
0.209, -1.029e-11
0.208, -1.011e-11
0.207, -9.920e-12
0.206, -9.757e-12
0.205, -9.569e-12
0.204, -9.377e-12
0.203, -9.224e-12
0.202, -9.036e-12
0.201, -8.865e-12
0.200, -8.676e-12
0.199, -8.515e-12
0.198, -8.356e-12
0.197, -8.203e-12
0.196, -8.031e-12
0.195, -7.882e-12
0.194, -7.688e-12
0.193, -7.517e-12
0.192, -7.377e-12
0.191, -7.265e-12
0.190, -7.093e-12
0.189, -6.940e-12
0.188, -6.787e-12
0.187, -6.650e-12
0.186, -6.494e-12
0.185, -6.392e-12
0.184, -6.205e-12
0.183, -6.018e-12
0.182, -5.885e-12
0.181, -5.815e-12
0.180, -5.653e-12
0.179, -5.530e-12
0.178, -5.405e-12
0.177, -5.274e-12
0.176, -5.135e-12
0.175, -5.007e-12
0.174, -4.905e-12
0.173, -4.770e-12
0.172, -4.643e-12
0.171, -4.488e-12
0.170, -4.386e-12
0.169, -4.308e-12
0.168, -4.181e-12
0.167, -4.039e-12
0.166, -3.905e-12
0.165, -3.802e-12
0.164, -3.655e-12
0.163, -3.555e-12
0.162, -3.425e-12
0.161, -3.319e-12
0.160, -3.213e-12
0.159, -3.111e-12
0.158, -2.990e-12
0.157, -2.859e-12
0.156, -2.772e-12
0.155, -2.669e-12
0.154, -2.544e-12
0.153, -2.455e-12
0.152, -2.310e-12
0.151, -2.224e-12
0.150, -2.130e-12
0.149, -2.031e-12
0.148, -1.915e-12
0.147, -1.876e-12
0.146, -1.791e-12
0.145, -1.662e-12
0.144, -1.535e-12
0.143, -1.465e-12
0.142, -1.392e-12
0.141, -1.248e-12
0.140, -1.178e-12
0.139, -1.100e-12
0.138, -9.735e-13
0.137, -8.955e-13
0.136, -8.427e-13
0.135, -6.986e-13
0.134, -6.214e-13
0.133, -5.206e-13
0.132, -4.600e-13
0.131, -4.143e-13
0.130, -3.599e-13
0.129, -2.890e-13
0.128, -1.930e-13
0.127, -1.221e-13
0.126, -2.678e-14
0.125, 4.725e-14
0.124, 2.048e-14
0.123, 1.788e-13
0.122, 3.237e-13
0.121, 3.922e-13
0.120, 4.867e-13
0.119, 5.805e-13
0.118, 5.891e-13
0.117, 6.238e-13
0.116, 7.191e-13
0.115, 7.632e-13
0.114, 8.443e-13
0.113, 9.498e-13
0.112, 1.007e-12
0.111, 1.078e-12
0.110, 1.155e-12
0.109, 1.212e-12
0.108, 1.226e-12
0.107, 1.353e-12
0.106, 1.407e-12
0.105, 1.449e-12
0.104, 1.554e-12
0.103, 1.591e-12
0.102, 1.659e-12
0.101, 1.774e-12
0.100, 1.819e-12
0.099, 1.876e-12
0.098, 1.924e-12
0.097, 2.026e-12
0.096, 2.081e-12
0.095, 2.161e-12
0.094, 2.173e-12
0.093, 2.205e-12
0.092, 2.255e-12
0.091, 2.334e-12
0.090, 2.412e-12
0.089, 2.438e-12
0.088, 2.493e-12
0.087, 2.575e-12
0.086, 2.627e-12
0.085, 2.608e-12
0.084, 2.630e-12
0.083, 2.672e-12
0.082, 2.741e-12
0.081, 2.841e-12
0.080, 2.894e-12
0.079, 2.961e-12
0.078, 3.008e-12
0.077, 3.107e-12
0.076, 3.105e-12
0.075, 3.064e-12
0.074, 3.141e-12
0.073, 3.175e-12
0.072, 3.216e-12
0.071, 3.292e-12
0.070, 3.272e-12
0.069, 3.347e-12
0.068, 3.385e-12
0.067, 3.406e-12
0.066, 3.419e-12
0.065, 3.472e-12
0.064, 3.509e-12
0.063, 3.538e-12
0.062, 3.591e-12
0.061, 3.628e-12
0.060, 3.684e-12
0.059, 3.692e-12
0.058, 3.727e-12
0.057, 3.791e-12
0.056, 3.848e-12
0.055, 3.867e-12
0.054, 3.870e-12
0.053, 3.925e-12
0.052, 3.956e-12
0.051, 3.983e-12
0.050, 4.006e-12
0.049, 4.047e-12
0.048, 4.088e-12
0.047, 4.104e-12
0.046, 4.136e-12
0.045, 4.178e-12
0.044, 4.214e-12
0.043, 4.201e-12
0.042, 4.229e-12
0.041, 4.262e-12
0.040, 4.283e-12
0.039, 4.325e-12
0.038, 4.333e-12
0.037, 4.360e-12
0.036, 4.358e-12
0.035, 4.359e-12
0.034, 4.398e-12
0.033, 4.401e-12
0.032, 4.457e-12
0.031, 4.451e-12
0.030, 4.535e-12
0.029, 4.493e-12
0.028, 4.525e-12
0.027, 4.534e-12
0.026, 4.619e-12
0.025, 4.606e-12
0.024, 4.643e-12
0.023, 4.665e-12
0.022, 4.659e-12
0.021, 4.655e-12
0.020, 4.692e-12
0.019, 4.731e-12
0.018, 4.747e-12
0.017, 4.738e-12
0.016, 4.748e-12
0.015, 4.825e-12
0.014, 4.797e-12
0.013, 4.819e-12
0.012, 4.834e-12
0.011, 4.811e-12
0.010, 4.830e-12
0.009, 4.849e-12
0.008, 4.822e-12
0.007, 4.861e-12
0.006, 4.843e-12
0.005, 4.869e-12
0.004, 4.902e-12
0.003, 4.875e-12
0.002, 4.892e-12
0.001, 4.892e-12
