May 25, 2023   19:34:52
Cyclic Voltammetry
File: c:/users/mapence2/desktop/data/2023_05_24\expt4\mix_9\cv_1.bin
Data Source:  Experiment
Instrument Model:  CHI760E
Header: CV
Note: 

Init E (V) = 0
High E (V) = 0.7
Low E (V) = 0
Final E (V) = 0
Init P/N = P
Scan Rate (V/s) = 0.005
Segment = 3
Sample Interval (V) = 0.001
Quiet Time (sec) = 2
Sensitivity (A/V) = 1e-9

Results:

Channel 1:
Segment 1:

Segment 2:

Segment 3:

Potential/V, Current/A

0.000, 2.295e-11
0.001, 1.881e-11
0.002, 1.597e-11
0.003, 1.371e-11
0.004, 1.190e-11
0.005, 1.045e-11
0.006, 9.267e-12
0.007, 8.275e-12
0.008, 7.399e-12
0.009, 6.670e-12
0.010, 6.149e-12
0.011, 5.473e-12
0.012, 4.945e-12
0.013, 4.589e-12
0.014, 4.353e-12
0.015, 3.929e-12
0.016, 3.606e-12
0.017, 3.370e-12
0.018, 3.153e-12
0.019, 2.983e-12
0.020, 2.730e-12
0.021, 2.550e-12
0.022, 2.433e-12
0.023, 2.246e-12
0.024, 2.025e-12
0.025, 1.919e-12
0.026, 1.728e-12
0.027, 1.517e-12
0.028, 1.391e-12
0.029, 1.329e-12
0.030, 1.269e-12
0.031, 1.236e-12
0.032, 1.105e-12
0.033, 9.868e-13
0.034, 8.868e-13
0.035, 8.270e-13
0.036, 7.466e-13
0.037, 6.694e-13
0.038, 5.868e-13
0.039, 4.324e-13
0.040, 3.780e-13
0.041, 3.379e-13
0.042, 2.662e-13
0.043, 1.977e-13
0.044, 1.292e-13
0.045, 4.253e-14
0.046, -1.103e-14
0.047, -1.024e-14
0.048, -9.845e-14
0.049, -1.512e-13
0.050, -2.654e-13
0.051, -3.749e-13
0.052, -4.639e-13
0.053, -4.891e-13
0.054, -4.300e-13
0.055, -5.324e-13
0.056, -5.119e-13
0.057, -5.143e-13
0.058, -6.379e-13
0.059, -6.962e-13
0.060, -6.868e-13
0.061, -7.112e-13
0.062, -7.482e-13
0.063, -7.766e-13
0.064, -7.931e-13
0.065, -9.010e-13
0.066, -8.939e-13
0.067, -9.183e-13
0.068, -9.798e-13
0.069, -1.061e-12
0.070, -1.093e-12
0.071, -1.120e-12
0.072, -1.149e-12
0.073, -1.183e-12
0.074, -1.195e-12
0.075, -1.271e-12
0.076, -1.291e-12
0.077, -1.360e-12
0.078, -1.438e-12
0.079, -1.477e-12
0.080, -1.507e-12
0.081, -1.570e-12
0.082, -1.633e-12
0.083, -1.713e-12
0.084, -1.773e-12
0.085, -1.778e-12
0.086, -1.845e-12
0.087, -1.904e-12
0.088, -1.941e-12
0.089, -1.986e-12
0.090, -2.064e-12
0.091, -2.122e-12
0.092, -2.180e-12
0.093, -2.223e-12
0.094, -2.236e-12
0.095, -2.307e-12
0.096, -2.364e-12
0.097, -2.449e-12
0.098, -2.538e-12
0.099, -2.580e-12
0.100, -2.611e-12
0.101, -2.680e-12
0.102, -2.820e-12
0.103, -2.803e-12
0.104, -2.842e-12
0.105, -2.872e-12
0.106, -2.923e-12
0.107, -3.008e-12
0.108, -3.103e-12
0.109, -3.131e-12
0.110, -3.131e-12
0.111, -3.242e-12
0.112, -3.321e-12
0.113, -3.336e-12
0.114, -3.391e-12
0.115, -3.479e-12
0.116, -3.537e-12
0.117, -3.591e-12
0.118, -3.650e-12
0.119, -3.759e-12
0.120, -3.821e-12
0.121, -3.885e-12
0.122, -4.003e-12
0.123, -4.134e-12
0.124, -4.242e-12
0.125, -4.192e-12
0.126, -4.260e-12
0.127, -4.303e-12
0.128, -4.388e-12
0.129, -4.500e-12
0.130, -4.576e-12
0.131, -4.628e-12
0.132, -4.711e-12
0.133, -4.737e-12
0.134, -4.843e-12
0.135, -4.941e-12
0.136, -4.985e-12
0.137, -5.085e-12
0.138, -5.114e-12
0.139, -5.171e-12
0.140, -5.293e-12
0.141, -5.420e-12
0.142, -5.521e-12
0.143, -5.582e-12
0.144, -5.671e-12
0.145, -5.727e-12
0.146, -5.802e-12
0.147, -5.931e-12
0.148, -6.005e-12
0.149, -6.096e-12
0.150, -6.223e-12
0.151, -6.285e-12
0.152, -6.411e-12
0.153, -6.577e-12
0.154, -6.696e-12
0.155, -6.791e-12
0.156, -6.895e-12
0.157, -7.024e-12
0.158, -7.129e-12
0.159, -7.204e-12
0.160, -7.319e-12
0.161, -7.425e-12
0.162, -7.493e-12
0.163, -7.605e-12
0.164, -7.762e-12
0.165, -7.855e-12
0.166, -7.972e-12
0.167, -8.110e-12
0.168, -8.237e-12
0.169, -8.374e-12
0.170, -8.482e-12
0.171, -8.605e-12
0.172, -8.719e-12
0.173, -8.830e-12
0.174, -8.945e-12
0.175, -9.097e-12
0.176, -9.204e-12
0.177, -9.301e-12
0.178, -9.426e-12
0.179, -9.563e-12
0.180, -9.697e-12
0.181, -9.828e-12
0.182, -9.959e-12
0.183, -1.009e-11
0.184, -1.023e-11
0.185, -1.039e-11
0.186, -1.049e-11
0.187, -1.065e-11
0.188, -1.080e-11
0.189, -1.091e-11
0.190, -1.105e-11
0.191, -1.116e-11
0.192, -1.132e-11
0.193, -1.146e-11
0.194, -1.164e-11
0.195, -1.179e-11
0.196, -1.194e-11
0.197, -1.209e-11
0.198, -1.222e-11
0.199, -1.237e-11
0.200, -1.255e-11
0.201, -1.268e-11
0.202, -1.287e-11
0.203, -1.304e-11
0.204, -1.320e-11
0.205, -1.336e-11
0.206, -1.352e-11
0.207, -1.373e-11
0.208, -1.387e-11
0.209, -1.401e-11
0.210, -1.423e-11
0.211, -1.438e-11
0.212, -1.453e-11
0.213, -1.474e-11
0.214, -1.498e-11
0.215, -1.513e-11
0.216, -1.528e-11
0.217, -1.546e-11
0.218, -1.564e-11
0.219, -1.579e-11
0.220, -1.600e-11
0.221, -1.624e-11
0.222, -1.642e-11
0.223, -1.663e-11
0.224, -1.684e-11
0.225, -1.706e-11
0.226, -1.723e-11
0.227, -1.743e-11
0.228, -1.770e-11
0.229, -1.788e-11
0.230, -1.810e-11
0.231, -1.835e-11
0.232, -1.855e-11
0.233, -1.878e-11
0.234, -1.900e-11
0.235, -1.927e-11
0.236, -1.956e-11
0.237, -1.976e-11
0.238, -2.000e-11
0.239, -2.028e-11
0.240, -2.051e-11
0.241, -2.084e-11
0.242, -2.106e-11
0.243, -2.133e-11
0.244, -2.152e-11
0.245, -2.183e-11
0.246, -2.212e-11
0.247, -2.237e-11
0.248, -2.263e-11
0.249, -2.291e-11
0.250, -2.318e-11
0.251, -2.346e-11
0.252, -2.373e-11
0.253, -2.405e-11
0.254, -2.434e-11
0.255, -2.461e-11
0.256, -2.497e-11
0.257, -2.528e-11
0.258, -2.562e-11
0.259, -2.595e-11
0.260, -2.625e-11
0.261, -2.656e-11
0.262, -2.688e-11
0.263, -2.723e-11
0.264, -2.759e-11
0.265, -2.789e-11
0.266, -2.831e-11
0.267, -2.871e-11
0.268, -2.894e-11
0.269, -2.926e-11
0.270, -2.967e-11
0.271, -3.001e-11
0.272, -3.036e-11
0.273, -3.084e-11
0.274, -3.119e-11
0.275, -3.163e-11
0.276, -3.198e-11
0.277, -3.237e-11
0.278, -3.281e-11
0.279, -3.319e-11
0.280, -3.355e-11
0.281, -3.396e-11
0.282, -3.434e-11
0.283, -3.475e-11
0.284, -3.527e-11
0.285, -3.574e-11
0.286, -3.609e-11
0.287, -3.658e-11
0.288, -3.698e-11
0.289, -3.747e-11
0.290, -3.789e-11
0.291, -3.833e-11
0.292, -3.879e-11
0.293, -3.928e-11
0.294, -3.981e-11
0.295, -4.033e-11
0.296, -4.082e-11
0.297, -4.131e-11
0.298, -4.183e-11
0.299, -4.231e-11
0.300, -4.289e-11
0.301, -4.338e-11
0.302, -4.387e-11
0.303, -4.446e-11
0.304, -4.502e-11
0.305, -4.553e-11
0.306, -4.610e-11
0.307, -4.666e-11
0.308, -4.722e-11
0.309, -4.785e-11
0.310, -4.849e-11
0.311, -4.905e-11
0.312, -4.965e-11
0.313, -5.031e-11
0.314, -5.087e-11
0.315, -5.136e-11
0.316, -5.193e-11
0.317, -5.257e-11
0.318, -5.320e-11
0.319, -5.380e-11
0.320, -5.433e-11
0.321, -5.488e-11
0.322, -5.548e-11
0.323, -5.601e-11
0.324, -5.662e-11
0.325, -5.727e-11
0.326, -5.792e-11
0.327, -5.854e-11
0.328, -5.917e-11
0.329, -5.990e-11
0.330, -6.059e-11
0.331, -6.122e-11
0.332, -6.188e-11
0.333, -6.268e-11
0.334, -6.343e-11
0.335, -6.399e-11
0.336, -6.455e-11
0.337, -6.516e-11
0.338, -6.583e-11
0.339, -6.651e-11
0.340, -6.715e-11
0.341, -6.780e-11
0.342, -6.844e-11
0.343, -6.904e-11
0.344, -6.964e-11
0.345, -7.021e-11
0.346, -7.081e-11
0.347, -7.140e-11
0.348, -7.200e-11
0.349, -7.266e-11
0.350, -7.330e-11
0.351, -7.390e-11
0.352, -7.447e-11
0.353, -7.510e-11
0.354, -7.576e-11
0.355, -7.639e-11
0.356, -7.711e-11
0.357, -7.782e-11
0.358, -7.864e-11
0.359, -7.939e-11
0.360, -8.013e-11
0.361, -8.094e-11
0.362, -8.174e-11
0.363, -8.248e-11
0.364, -8.318e-11
0.365, -8.378e-11
0.366, -8.437e-11
0.367, -8.492e-11
0.368, -8.553e-11
0.369, -8.611e-11
0.370, -8.673e-11
0.371, -8.735e-11
0.372, -8.791e-11
0.373, -8.853e-11
0.374, -8.914e-11
0.375, -8.977e-11
0.376, -9.038e-11
0.377, -9.095e-11
0.378, -9.151e-11
0.379, -9.209e-11
0.380, -9.266e-11
0.381, -9.327e-11
0.382, -9.375e-11
0.383, -9.427e-11
0.384, -9.478e-11
0.385, -9.531e-11
0.386, -9.584e-11
0.387, -9.640e-11
0.388, -9.699e-11
0.389, -9.758e-11
0.390, -9.820e-11
0.391, -9.882e-11
0.392, -9.940e-11
0.393, -1.001e-10
0.394, -1.007e-10
0.395, -1.014e-10
0.396, -1.019e-10
0.397, -1.025e-10
0.398, -1.030e-10
0.399, -1.035e-10
0.400, -1.039e-10
0.401, -1.045e-10
0.402, -1.050e-10
0.403, -1.055e-10
0.404, -1.059e-10
0.405, -1.063e-10
0.406, -1.067e-10
0.407, -1.071e-10
0.408, -1.076e-10
0.409, -1.080e-10
0.410, -1.084e-10
0.411, -1.088e-10
0.412, -1.093e-10
0.413, -1.096e-10
0.414, -1.100e-10
0.415, -1.104e-10
0.416, -1.107e-10
0.417, -1.110e-10
0.418, -1.114e-10
0.419, -1.118e-10
0.420, -1.121e-10
0.421, -1.125e-10
0.422, -1.129e-10
0.423, -1.132e-10
0.424, -1.136e-10
0.425, -1.141e-10
0.426, -1.146e-10
0.427, -1.150e-10
0.428, -1.154e-10
0.429, -1.158e-10
0.430, -1.162e-10
0.431, -1.167e-10
0.432, -1.171e-10
0.433, -1.174e-10
0.434, -1.178e-10
0.435, -1.182e-10
0.436, -1.187e-10
0.437, -1.192e-10
0.438, -1.198e-10
0.439, -1.204e-10
0.440, -1.209e-10
0.441, -1.212e-10
0.442, -1.214e-10
0.443, -1.217e-10
0.444, -1.219e-10
0.445, -1.223e-10
0.446, -1.226e-10
0.447, -1.230e-10
0.448, -1.234e-10
0.449, -1.238e-10
0.450, -1.242e-10
0.451, -1.245e-10
0.452, -1.249e-10
0.453, -1.254e-10
0.454, -1.258e-10
0.455, -1.262e-10
0.456, -1.265e-10
0.457, -1.267e-10
0.458, -1.269e-10
0.459, -1.271e-10
0.460, -1.273e-10
0.461, -1.274e-10
0.462, -1.276e-10
0.463, -1.277e-10
0.464, -1.279e-10
0.465, -1.281e-10
0.466, -1.282e-10
0.467, -1.284e-10
0.468, -1.287e-10
0.469, -1.290e-10
0.470, -1.293e-10
0.471, -1.296e-10
0.472, -1.298e-10
0.473, -1.301e-10
0.474, -1.303e-10
0.475, -1.306e-10
0.476, -1.309e-10
0.477, -1.312e-10
0.478, -1.315e-10
0.479, -1.318e-10
0.480, -1.319e-10
0.481, -1.322e-10
0.482, -1.324e-10
0.483, -1.326e-10
0.484, -1.329e-10
0.485, -1.332e-10
0.486, -1.335e-10
0.487, -1.338e-10
0.488, -1.340e-10
0.489, -1.343e-10
0.490, -1.346e-10
0.491, -1.349e-10
0.492, -1.352e-10
0.493, -1.356e-10
0.494, -1.360e-10
0.495, -1.363e-10
0.496, -1.367e-10
0.497, -1.371e-10
0.498, -1.374e-10
0.499, -1.376e-10
0.500, -1.378e-10
0.501, -1.379e-10
0.502, -1.379e-10
0.503, -1.380e-10
0.504, -1.381e-10
0.505, -1.383e-10
0.506, -1.387e-10
0.507, -1.391e-10
0.508, -1.397e-10
0.509, -1.400e-10
0.510, -1.404e-10
0.511, -1.407e-10
0.512, -1.410e-10
0.513, -1.413e-10
0.514, -1.414e-10
0.515, -1.414e-10
0.516, -1.413e-10
0.517, -1.412e-10
0.518, -1.413e-10
0.519, -1.413e-10
0.520, -1.414e-10
0.521, -1.415e-10
0.522, -1.416e-10
0.523, -1.417e-10
0.524, -1.417e-10
0.525, -1.420e-10
0.526, -1.422e-10
0.527, -1.424e-10
0.528, -1.427e-10
0.529, -1.431e-10
0.530, -1.435e-10
0.531, -1.440e-10
0.532, -1.444e-10
0.533, -1.449e-10
0.534, -1.453e-10
0.535, -1.458e-10
0.536, -1.461e-10
0.537, -1.464e-10
0.538, -1.468e-10
0.539, -1.471e-10
0.540, -1.475e-10
0.541, -1.481e-10
0.542, -1.485e-10
0.543, -1.488e-10
0.544, -1.489e-10
0.545, -1.489e-10
0.546, -1.488e-10
0.547, -1.488e-10
0.548, -1.488e-10
0.549, -1.488e-10
0.550, -1.490e-10
0.551, -1.491e-10
0.552, -1.493e-10
0.553, -1.495e-10
0.554, -1.497e-10
0.555, -1.498e-10
0.556, -1.499e-10
0.557, -1.501e-10
0.558, -1.503e-10
0.559, -1.504e-10
0.560, -1.505e-10
0.561, -1.506e-10
0.562, -1.507e-10
0.563, -1.509e-10
0.564, -1.510e-10
0.565, -1.511e-10
0.566, -1.513e-10
0.567, -1.515e-10
0.568, -1.517e-10
0.569, -1.519e-10
0.570, -1.520e-10
0.571, -1.522e-10
0.572, -1.523e-10
0.573, -1.526e-10
0.574, -1.528e-10
0.575, -1.531e-10
0.576, -1.534e-10
0.577, -1.539e-10
0.578, -1.543e-10
0.579, -1.547e-10
0.580, -1.551e-10
0.581, -1.554e-10
0.582, -1.556e-10
0.583, -1.558e-10
0.584, -1.561e-10
0.585, -1.564e-10
0.586, -1.567e-10
0.587, -1.571e-10
0.588, -1.575e-10
0.589, -1.581e-10
0.590, -1.587e-10
0.591, -1.595e-10
0.592, -1.602e-10
0.593, -1.608e-10
0.594, -1.613e-10
0.595, -1.615e-10
0.596, -1.616e-10
0.597, -1.617e-10
0.598, -1.616e-10
0.599, -1.616e-10
0.600, -1.616e-10
0.601, -1.616e-10
0.602, -1.617e-10
0.603, -1.617e-10
0.604, -1.618e-10
0.605, -1.618e-10
0.606, -1.620e-10
0.607, -1.621e-10
0.608, -1.622e-10
0.609, -1.624e-10
0.610, -1.626e-10
0.611, -1.627e-10
0.612, -1.629e-10
0.613, -1.631e-10
0.614, -1.634e-10
0.615, -1.638e-10
0.616, -1.642e-10
0.617, -1.644e-10
0.618, -1.647e-10
0.619, -1.648e-10
0.620, -1.650e-10
0.621, -1.651e-10
0.622, -1.654e-10
0.623, -1.656e-10
0.624, -1.660e-10
0.625, -1.664e-10
0.626, -1.668e-10
0.627, -1.670e-10
0.628, -1.672e-10
0.629, -1.673e-10
0.630, -1.674e-10
0.631, -1.673e-10
0.632, -1.674e-10
0.633, -1.674e-10
0.634, -1.675e-10
0.635, -1.676e-10
0.636, -1.677e-10
0.637, -1.678e-10
0.638, -1.678e-10
0.639, -1.678e-10
0.640, -1.678e-10
0.641, -1.678e-10
0.642, -1.679e-10
0.643, -1.680e-10
0.644, -1.680e-10
0.645, -1.681e-10
0.646, -1.683e-10
0.647, -1.685e-10
0.648, -1.687e-10
0.649, -1.689e-10
0.650, -1.692e-10
0.651, -1.695e-10
0.652, -1.699e-10
0.653, -1.703e-10
0.654, -1.707e-10
0.655, -1.712e-10
0.656, -1.716e-10
0.657, -1.721e-10
0.658, -1.724e-10
0.659, -1.728e-10
0.660, -1.731e-10
0.661, -1.731e-10
0.662, -1.731e-10
0.663, -1.731e-10
0.664, -1.731e-10
0.665, -1.732e-10
0.666, -1.733e-10
0.667, -1.734e-10
0.668, -1.736e-10
0.669, -1.738e-10
0.670, -1.741e-10
0.671, -1.744e-10
0.672, -1.747e-10
0.673, -1.751e-10
0.674, -1.755e-10
0.675, -1.759e-10
0.676, -1.762e-10
0.677, -1.764e-10
0.678, -1.766e-10
0.679, -1.768e-10
0.680, -1.770e-10
0.681, -1.771e-10
0.682, -1.773e-10
0.683, -1.774e-10
0.684, -1.777e-10
0.685, -1.779e-10
0.686, -1.782e-10
0.687, -1.784e-10
0.688, -1.785e-10
0.689, -1.787e-10
0.690, -1.789e-10
0.691, -1.790e-10
0.692, -1.792e-10
0.693, -1.794e-10
0.694, -1.795e-10
0.695, -1.797e-10
0.696, -1.799e-10
0.697, -1.800e-10
0.698, -1.802e-10
0.699, -1.804e-10
0.700, -1.802e-10
0.699, -1.786e-10
0.698, -1.773e-10
0.697, -1.764e-10
0.696, -1.755e-10
0.695, -1.748e-10
0.694, -1.741e-10
0.693, -1.735e-10
0.692, -1.729e-10
0.691, -1.723e-10
0.690, -1.717e-10
0.689, -1.711e-10
0.688, -1.706e-10
0.687, -1.700e-10
0.686, -1.695e-10
0.685, -1.690e-10
0.684, -1.685e-10
0.683, -1.681e-10
0.682, -1.677e-10
0.681, -1.672e-10
0.680, -1.668e-10
0.679, -1.663e-10
0.678, -1.659e-10
0.677, -1.654e-10
0.676, -1.649e-10
0.675, -1.645e-10
0.674, -1.642e-10
0.673, -1.639e-10
0.672, -1.636e-10
0.671, -1.632e-10
0.670, -1.628e-10
0.669, -1.624e-10
0.668, -1.620e-10
0.667, -1.616e-10
0.666, -1.613e-10
0.665, -1.612e-10
0.664, -1.612e-10
0.663, -1.612e-10
0.662, -1.614e-10
0.661, -1.618e-10
0.660, -1.623e-10
0.659, -1.627e-10
0.658, -1.630e-10
0.657, -1.632e-10
0.656, -1.633e-10
0.655, -1.632e-10
0.654, -1.631e-10
0.653, -1.627e-10
0.652, -1.623e-10
0.651, -1.617e-10
0.650, -1.610e-10
0.649, -1.604e-10
0.648, -1.596e-10
0.647, -1.589e-10
0.646, -1.581e-10
0.645, -1.575e-10
0.644, -1.569e-10
0.643, -1.563e-10
0.642, -1.557e-10
0.641, -1.552e-10
0.640, -1.547e-10
0.639, -1.544e-10
0.638, -1.539e-10
0.637, -1.536e-10
0.636, -1.532e-10
0.635, -1.529e-10
0.634, -1.527e-10
0.633, -1.525e-10
0.632, -1.522e-10
0.631, -1.520e-10
0.630, -1.518e-10
0.629, -1.515e-10
0.628, -1.513e-10
0.627, -1.510e-10
0.626, -1.508e-10
0.625, -1.506e-10
0.624, -1.504e-10
0.623, -1.502e-10
0.622, -1.503e-10
0.621, -1.504e-10
0.620, -1.505e-10
0.619, -1.505e-10
0.618, -1.504e-10
0.617, -1.501e-10
0.616, -1.499e-10
0.615, -1.496e-10
0.614, -1.494e-10
0.613, -1.491e-10
0.612, -1.489e-10
0.611, -1.488e-10
0.610, -1.487e-10
0.609, -1.485e-10
0.608, -1.484e-10
0.607, -1.482e-10
0.606, -1.480e-10
0.605, -1.477e-10
0.604, -1.472e-10
0.603, -1.466e-10
0.602, -1.460e-10
0.601, -1.454e-10
0.600, -1.447e-10
0.599, -1.442e-10
0.598, -1.436e-10
0.597, -1.432e-10
0.596, -1.427e-10
0.595, -1.424e-10
0.594, -1.420e-10
0.593, -1.417e-10
0.592, -1.413e-10
0.591, -1.411e-10
0.590, -1.408e-10
0.589, -1.406e-10
0.588, -1.404e-10
0.587, -1.403e-10
0.586, -1.400e-10
0.585, -1.399e-10
0.584, -1.397e-10
0.583, -1.394e-10
0.582, -1.392e-10
0.581, -1.389e-10
0.580, -1.387e-10
0.579, -1.384e-10
0.578, -1.381e-10
0.577, -1.378e-10
0.576, -1.375e-10
0.575, -1.372e-10
0.574, -1.370e-10
0.573, -1.367e-10
0.572, -1.365e-10
0.571, -1.362e-10
0.570, -1.359e-10
0.569, -1.358e-10
0.568, -1.356e-10
0.567, -1.353e-10
0.566, -1.350e-10
0.565, -1.348e-10
0.564, -1.344e-10
0.563, -1.340e-10
0.562, -1.335e-10
0.561, -1.330e-10
0.560, -1.325e-10
0.559, -1.319e-10
0.558, -1.315e-10
0.557, -1.310e-10
0.556, -1.306e-10
0.555, -1.302e-10
0.554, -1.298e-10
0.553, -1.294e-10
0.552, -1.290e-10
0.551, -1.285e-10
0.550, -1.281e-10
0.549, -1.277e-10
0.548, -1.273e-10
0.547, -1.269e-10
0.546, -1.267e-10
0.545, -1.265e-10
0.544, -1.263e-10
0.543, -1.263e-10
0.542, -1.262e-10
0.541, -1.260e-10
0.540, -1.258e-10
0.539, -1.256e-10
0.538, -1.253e-10
0.537, -1.251e-10
0.536, -1.247e-10
0.535, -1.242e-10
0.534, -1.237e-10
0.533, -1.233e-10
0.532, -1.230e-10
0.531, -1.226e-10
0.530, -1.222e-10
0.529, -1.218e-10
0.528, -1.215e-10
0.527, -1.213e-10
0.526, -1.211e-10
0.525, -1.209e-10
0.524, -1.208e-10
0.523, -1.206e-10
0.522, -1.203e-10
0.521, -1.200e-10
0.520, -1.197e-10
0.519, -1.193e-10
0.518, -1.189e-10
0.517, -1.185e-10
0.516, -1.180e-10
0.515, -1.176e-10
0.514, -1.171e-10
0.513, -1.165e-10
0.512, -1.159e-10
0.511, -1.154e-10
0.510, -1.149e-10
0.509, -1.144e-10
0.508, -1.138e-10
0.507, -1.134e-10
0.506, -1.130e-10
0.505, -1.127e-10
0.504, -1.123e-10
0.503, -1.120e-10
0.502, -1.117e-10
0.501, -1.115e-10
0.500, -1.114e-10
0.499, -1.114e-10
0.498, -1.113e-10
0.497, -1.113e-10
0.496, -1.111e-10
0.495, -1.109e-10
0.494, -1.106e-10
0.493, -1.102e-10
0.492, -1.098e-10
0.491, -1.093e-10
0.490, -1.088e-10
0.489, -1.083e-10
0.488, -1.078e-10
0.487, -1.072e-10
0.486, -1.066e-10
0.485, -1.060e-10
0.484, -1.054e-10
0.483, -1.049e-10
0.482, -1.044e-10
0.481, -1.039e-10
0.480, -1.035e-10
0.479, -1.031e-10
0.478, -1.026e-10
0.477, -1.020e-10
0.476, -1.014e-10
0.475, -1.008e-10
0.474, -1.003e-10
0.473, -1.000e-10
0.472, -9.978e-11
0.471, -9.957e-11
0.470, -9.923e-11
0.469, -9.883e-11
0.468, -9.835e-11
0.467, -9.789e-11
0.466, -9.737e-11
0.465, -9.680e-11
0.464, -9.620e-11
0.463, -9.563e-11
0.462, -9.515e-11
0.461, -9.455e-11
0.460, -9.398e-11
0.459, -9.344e-11
0.458, -9.287e-11
0.457, -9.235e-11
0.456, -9.182e-11
0.455, -9.132e-11
0.454, -9.086e-11
0.453, -9.033e-11
0.452, -8.987e-11
0.451, -8.932e-11
0.450, -8.884e-11
0.449, -8.834e-11
0.448, -8.783e-11
0.447, -8.730e-11
0.446, -8.676e-11
0.445, -8.629e-11
0.444, -8.583e-11
0.443, -8.539e-11
0.442, -8.488e-11
0.441, -8.441e-11
0.440, -8.394e-11
0.439, -8.352e-11
0.438, -8.309e-11
0.437, -8.267e-11
0.436, -8.226e-11
0.435, -8.190e-11
0.434, -8.156e-11
0.433, -8.123e-11
0.432, -8.084e-11
0.431, -8.046e-11
0.430, -8.004e-11
0.429, -7.963e-11
0.428, -7.922e-11
0.427, -7.880e-11
0.426, -7.836e-11
0.425, -7.791e-11
0.424, -7.748e-11
0.423, -7.702e-11
0.422, -7.663e-11
0.421, -7.619e-11
0.420, -7.576e-11
0.419, -7.535e-11
0.418, -7.494e-11
0.417, -7.454e-11
0.416, -7.433e-11
0.415, -7.391e-11
0.414, -7.339e-11
0.413, -7.287e-11
0.412, -7.236e-11
0.411, -7.192e-11
0.410, -7.145e-11
0.409, -7.103e-11
0.408, -7.060e-11
0.407, -7.025e-11
0.406, -6.991e-11
0.405, -6.959e-11
0.404, -6.926e-11
0.403, -6.889e-11
0.402, -6.846e-11
0.401, -6.795e-11
0.400, -6.747e-11
0.399, -6.696e-11
0.398, -6.649e-11
0.397, -6.601e-11
0.396, -6.554e-11
0.395, -6.505e-11
0.394, -6.453e-11
0.393, -6.406e-11
0.392, -6.362e-11
0.391, -6.320e-11
0.390, -6.276e-11
0.389, -6.231e-11
0.388, -6.190e-11
0.387, -6.154e-11
0.386, -6.116e-11
0.385, -6.070e-11
0.384, -6.025e-11
0.383, -5.978e-11
0.382, -5.929e-11
0.381, -5.892e-11
0.380, -5.858e-11
0.379, -5.811e-11
0.378, -5.762e-11
0.377, -5.723e-11
0.376, -5.688e-11
0.375, -5.651e-11
0.374, -5.613e-11
0.373, -5.568e-11
0.372, -5.525e-11
0.371, -5.486e-11
0.370, -5.455e-11
0.369, -5.417e-11
0.368, -5.379e-11
0.367, -5.347e-11
0.366, -5.312e-11
0.365, -5.269e-11
0.364, -5.222e-11
0.363, -5.178e-11
0.362, -5.131e-11
0.361, -5.090e-11
0.360, -5.047e-11
0.359, -5.001e-11
0.358, -4.953e-11
0.357, -4.913e-11
0.356, -4.872e-11
0.355, -4.823e-11
0.354, -4.776e-11
0.353, -4.732e-11
0.352, -4.696e-11
0.351, -4.655e-11
0.350, -4.612e-11
0.349, -4.570e-11
0.348, -4.535e-11
0.347, -4.496e-11
0.346, -4.457e-11
0.345, -4.416e-11
0.344, -4.383e-11
0.343, -4.345e-11
0.342, -4.312e-11
0.341, -4.281e-11
0.340, -4.244e-11
0.339, -4.208e-11
0.338, -4.166e-11
0.337, -4.118e-11
0.336, -4.078e-11
0.335, -4.045e-11
0.334, -4.008e-11
0.333, -3.969e-11
0.332, -3.928e-11
0.331, -3.896e-11
0.330, -3.857e-11
0.329, -3.831e-11
0.328, -3.805e-11
0.327, -3.770e-11
0.326, -3.734e-11
0.325, -3.697e-11
0.324, -3.658e-11
0.323, -3.620e-11
0.322, -3.579e-11
0.321, -3.542e-11
0.320, -3.508e-11
0.319, -3.472e-11
0.318, -3.438e-11
0.317, -3.406e-11
0.316, -3.368e-11
0.315, -3.327e-11
0.314, -3.295e-11
0.313, -3.259e-11
0.312, -3.222e-11
0.311, -3.181e-11
0.310, -3.148e-11
0.309, -3.115e-11
0.308, -3.077e-11
0.307, -3.039e-11
0.306, -3.007e-11
0.305, -2.975e-11
0.304, -2.934e-11
0.303, -2.902e-11
0.302, -2.866e-11
0.301, -2.828e-11
0.300, -2.791e-11
0.299, -2.767e-11
0.298, -2.736e-11
0.297, -2.705e-11
0.296, -2.674e-11
0.295, -2.637e-11
0.294, -2.600e-11
0.293, -2.564e-11
0.292, -2.535e-11
0.291, -2.495e-11
0.290, -2.458e-11
0.289, -2.429e-11
0.288, -2.396e-11
0.287, -2.370e-11
0.286, -2.345e-11
0.285, -2.314e-11
0.284, -2.278e-11
0.283, -2.243e-11
0.282, -2.212e-11
0.281, -2.185e-11
0.280, -2.148e-11
0.279, -2.117e-11
0.278, -2.085e-11
0.277, -2.050e-11
0.276, -2.027e-11
0.275, -2.002e-11
0.274, -1.964e-11
0.273, -1.935e-11
0.272, -1.912e-11
0.271, -1.879e-11
0.270, -1.846e-11
0.269, -1.817e-11
0.268, -1.790e-11
0.267, -1.759e-11
0.266, -1.737e-11
0.265, -1.714e-11
0.264, -1.691e-11
0.263, -1.664e-11
0.262, -1.641e-11
0.261, -1.616e-11
0.260, -1.586e-11
0.259, -1.561e-11
0.258, -1.538e-11
0.257, -1.512e-11
0.256, -1.487e-11
0.255, -1.459e-11
0.254, -1.433e-11
0.253, -1.413e-11
0.252, -1.394e-11
0.251, -1.378e-11
0.250, -1.353e-11
0.249, -1.336e-11
0.248, -1.318e-11
0.247, -1.303e-11
0.246, -1.280e-11
0.245, -1.256e-11
0.244, -1.240e-11
0.243, -1.217e-11
0.242, -1.188e-11
0.241, -1.177e-11
0.240, -1.161e-11
0.239, -1.136e-11
0.238, -1.117e-11
0.237, -1.104e-11
0.236, -1.084e-11
0.235, -1.068e-11
0.234, -1.046e-11
0.233, -1.025e-11
0.232, -1.005e-11
0.231, -9.916e-12
0.230, -9.721e-12
0.229, -9.576e-12
0.228, -9.459e-12
0.227, -9.286e-12
0.226, -9.116e-12
0.225, -8.952e-12
0.224, -8.780e-12
0.223, -8.667e-12
0.222, -8.474e-12
0.221, -8.246e-12
0.220, -8.120e-12
0.219, -7.920e-12
0.218, -7.776e-12
0.217, -7.658e-12
0.216, -7.452e-12
0.215, -7.274e-12
0.214, -7.082e-12
0.213, -6.976e-12
0.212, -6.809e-12
0.211, -6.646e-12
0.210, -6.531e-12
0.209, -6.395e-12
0.208, -6.269e-12
0.207, -6.166e-12
0.206, -5.991e-12
0.205, -5.843e-12
0.204, -5.693e-12
0.203, -5.627e-12
0.202, -5.498e-12
0.201, -5.347e-12
0.200, -5.235e-12
0.199, -5.089e-12
0.198, -4.996e-12
0.197, -4.855e-12
0.196, -4.728e-12
0.195, -4.625e-12
0.194, -4.531e-12
0.193, -4.413e-12
0.192, -4.231e-12
0.191, -4.066e-12
0.190, -4.021e-12
0.189, -3.903e-12
0.188, -3.786e-12
0.187, -3.649e-12
0.186, -3.537e-12
0.185, -3.368e-12
0.184, -3.272e-12
0.183, -3.184e-12
0.182, -3.062e-12
0.181, -2.972e-12
0.180, -2.881e-12
0.179, -2.723e-12
0.178, -2.629e-12
0.177, -2.453e-12
0.176, -2.284e-12
0.175, -2.216e-12
0.174, -2.134e-12
0.173, -2.041e-12
0.172, -1.925e-12
0.171, -1.831e-12
0.170, -1.693e-12
0.169, -1.639e-12
0.168, -1.567e-12
0.167, -1.440e-12
0.166, -1.351e-12
0.165, -1.274e-12
0.164, -1.189e-12
0.163, -1.112e-12
0.162, -1.020e-12
0.161, -9.136e-13
0.160, -7.955e-13
0.159, -6.907e-13
0.158, -6.978e-13
0.157, -6.127e-13
0.156, -5.371e-13
0.155, -4.300e-13
0.154, -3.528e-13
0.153, -3.103e-13
0.152, -2.158e-13
0.151, -1.465e-13
0.150, -8.270e-14
0.149, 1.654e-14
0.148, 4.410e-14
0.147, 1.520e-13
0.146, 2.371e-13
0.145, 2.449e-13
0.144, 2.977e-13
0.143, 3.725e-13
0.142, 4.529e-13
0.141, 5.190e-13
0.140, 6.135e-13
0.139, 6.876e-13
0.138, 7.104e-13
0.137, 7.167e-13
0.136, 7.750e-13
0.135, 8.805e-13
0.134, 9.987e-13
0.133, 1.081e-12
0.132, 1.114e-12
0.131, 1.164e-12
0.130, 1.244e-12
0.129, 1.300e-12
0.128, 1.400e-12
0.127, 1.474e-12
0.126, 1.492e-12
0.125, 1.564e-12
0.124, 1.604e-12
0.123, 1.704e-12
0.122, 1.756e-12
0.121, 1.814e-12
0.120, 1.904e-12
0.119, 1.870e-12
0.118, 1.960e-12
0.117, 1.990e-12
0.116, 1.973e-12
0.115, 2.067e-12
0.114, 2.141e-12
0.113, 2.104e-12
0.112, 2.135e-12
0.111, 2.218e-12
0.110, 2.322e-12
0.109, 2.361e-12
0.108, 2.442e-12
0.107, 2.530e-12
0.106, 2.536e-12
0.105, 2.530e-12
0.104, 2.636e-12
0.103, 2.702e-12
0.102, 2.734e-12
0.101, 2.764e-12
0.100, 2.822e-12
0.099, 2.873e-12
0.098, 2.936e-12
0.097, 2.946e-12
0.096, 2.970e-12
0.095, 3.016e-12
0.094, 3.057e-12
0.093, 3.105e-12
0.092, 3.102e-12
0.091, 3.172e-12
0.090, 3.200e-12
0.089, 3.238e-12
0.088, 3.239e-12
0.087, 3.261e-12
0.086, 3.328e-12
0.085, 3.344e-12
0.084, 3.380e-12
0.083, 3.401e-12
0.082, 3.446e-12
0.081, 3.458e-12
0.080, 3.428e-12
0.079, 3.472e-12
0.078, 3.543e-12
0.077, 3.563e-12
0.076, 3.618e-12
0.075, 3.635e-12
0.074, 3.683e-12
0.073, 3.736e-12
0.072, 3.717e-12
0.071, 3.739e-12
0.070, 3.808e-12
0.069, 3.799e-12
0.068, 3.780e-12
0.067, 3.809e-12
0.066, 3.825e-12
0.065, 3.895e-12
0.064, 3.909e-12
0.063, 3.950e-12
0.062, 3.899e-12
0.061, 3.903e-12
0.060, 3.922e-12
0.059, 4.021e-12
0.058, 4.011e-12
0.057, 3.995e-12
0.056, 4.063e-12
0.055, 4.108e-12
0.054, 4.074e-12
0.053, 4.084e-12
0.052, 4.151e-12
0.051, 4.165e-12
0.050, 4.193e-12
0.049, 4.174e-12
0.048, 4.225e-12
0.047, 4.240e-12
0.046, 4.241e-12
0.045, 4.214e-12
0.044, 4.266e-12
0.043, 4.265e-12
0.042, 4.297e-12
0.041, 4.332e-12
0.040, 4.319e-12
0.039, 4.366e-12
0.038, 4.347e-12
0.037, 4.373e-12
0.036, 4.382e-12
0.035, 4.490e-12
0.034, 4.474e-12
0.033, 4.386e-12
0.032, 4.440e-12
0.031, 4.454e-12
0.030, 4.470e-12
0.029, 4.476e-12
0.028, 4.475e-12
0.027, 4.503e-12
0.026, 4.471e-12
0.025, 4.436e-12
0.024, 4.461e-12
0.023, 4.481e-12
0.022, 4.525e-12
0.021, 4.560e-12
0.020, 4.600e-12
0.019, 4.548e-12
0.018, 4.555e-12
0.017, 4.566e-12
0.016, 4.614e-12
0.015, 4.703e-12
0.014, 4.626e-12
0.013, 4.585e-12
0.012, 4.640e-12
0.011, 4.648e-12
0.010, 4.681e-12
0.009, 4.708e-12
0.008, 4.734e-12
0.007, 4.639e-12
0.006, 4.643e-12
0.005, 4.732e-12
0.004, 4.752e-12
0.003, 4.684e-12
0.002, 4.700e-12
0.001, 4.703e-12
