Mar. 16, 2023   09:44:38
Cyclic Voltammetry
File: c:/users/oliverrz/desktop/electrolab/data/2023_03_16\fcmeoh_macros_750_um\electrode2_cv_150mvs_750_um.bin
Data Source:  Experiment
Instrument Model:  CHI760E
Header: CV
Note: 

Init E (V) = -0.2
High E (V) = 0.3
Low E (V) = -0.2
Final E (V) = -0.2
Init P/N = P
Scan Rate (V/s) = 0.15
Segment = 3
Sample Interval (V) = 0.001
Quiet Time (sec) = 2
Sensitivity (A/V) = 1e-7

Results:

Channel 1:
Segment 1:
Ep = 0.098V
ip = -5.740e-8A
Ah = -2.352e-8C

Segment 2:
Ep = 0.036V
ip = 5.585e-8A
Ah = 2.360e-8C

Segment 3:

Potential/V, Current/A

-0.200, 6.491e-9
-0.199, 5.711e-9
-0.198, 5.578e-9
-0.197, 5.355e-9
-0.196, 5.304e-9
-0.195, 5.147e-9
-0.194, 5.038e-9
-0.193, 4.982e-9
-0.192, 4.820e-9
-0.191, 4.819e-9
-0.190, 4.663e-9
-0.189, 4.585e-9
-0.188, 4.568e-9
-0.187, 4.392e-9
-0.186, 4.409e-9
-0.185, 4.285e-9
-0.184, 4.209e-9
-0.183, 4.194e-9
-0.182, 4.025e-9
-0.181, 4.052e-9
-0.180, 3.923e-9
-0.179, 3.849e-9
-0.178, 3.859e-9
-0.177, 3.674e-9
-0.176, 3.725e-9
-0.175, 3.603e-9
-0.174, 3.523e-9
-0.173, 3.545e-9
-0.172, 3.379e-9
-0.171, 3.401e-9
-0.170, 3.310e-9
-0.169, 3.228e-9
-0.168, 3.240e-9
-0.167, 3.095e-9
-0.166, 3.110e-9
-0.165, 3.018e-9
-0.164, 2.954e-9
-0.163, 2.961e-9
-0.162, 2.811e-9
-0.161, 2.841e-9
-0.160, 2.762e-9
-0.159, 2.686e-9
-0.158, 2.686e-9
-0.157, 2.562e-9
-0.156, 2.592e-9
-0.155, 2.493e-9
-0.154, 2.433e-9
-0.153, 2.431e-9
-0.152, 2.319e-9
-0.151, 2.351e-9
-0.150, 2.245e-9
-0.149, 2.212e-9
-0.148, 2.213e-9
-0.147, 2.067e-9
-0.146, 2.140e-9
-0.145, 2.018e-9
-0.144, 1.970e-9
-0.143, 1.999e-9
-0.142, 1.842e-9
-0.141, 1.906e-9
-0.140, 1.806e-9
-0.139, 1.755e-9
-0.138, 1.775e-9
-0.137, 1.639e-9
-0.136, 1.702e-9
-0.135, 1.601e-9
-0.134, 1.543e-9
-0.133, 1.577e-9
-0.132, 1.429e-9
-0.131, 1.494e-9
-0.130, 1.405e-9
-0.129, 1.331e-9
-0.128, 1.382e-9
-0.127, 1.245e-9
-0.126, 1.284e-9
-0.125, 1.218e-9
-0.124, 1.163e-9
-0.123, 1.179e-9
-0.122, 1.062e-9
-0.121, 1.110e-9
-0.120, 1.018e-9
-0.119, 9.918e-10
-0.118, 9.944e-10
-0.117, 8.780e-10
-0.116, 9.314e-10
-0.115, 8.302e-10
-0.114, 7.990e-10
-0.113, 8.170e-10
-0.112, 7.019e-10
-0.111, 7.532e-10
-0.110, 6.532e-10
-0.109, 6.261e-10
-0.108, 6.456e-10
-0.107, 5.133e-10
-0.106, 5.877e-10
-0.105, 4.653e-10
-0.104, 4.495e-10
-0.103, 4.685e-10
-0.102, 3.212e-10
-0.101, 4.042e-10
-0.100, 3.048e-10
-0.099, 2.609e-10
-0.098, 3.081e-10
-0.097, 1.588e-10
-0.096, 2.288e-10
-0.095, 1.444e-10
-0.094, 8.087e-11
-0.093, 1.247e-10
-0.092, -1.056e-11
-0.091, 4.887e-11
-0.090, -4.241e-11
-0.089, -8.897e-11
-0.088, -4.869e-11
-0.087, -1.859e-10
-0.086, -1.303e-10
-0.085, -2.141e-10
-0.084, -2.701e-10
-0.083, -2.395e-10
-0.082, -3.686e-10
-0.081, -3.347e-10
-0.080, -4.031e-10
-0.079, -4.503e-10
-0.078, -4.490e-10
-0.077, -5.704e-10
-0.076, -5.225e-10
-0.075, -6.202e-10
-0.074, -6.468e-10
-0.073, -6.556e-10
-0.072, -7.780e-10
-0.071, -7.271e-10
-0.070, -8.302e-10
-0.069, -8.777e-10
-0.068, -8.678e-10
-0.067, -1.012e-9
-0.066, -9.573e-10
-0.065, -1.068e-9
-0.064, -1.113e-9
-0.063, -1.108e-9
-0.062, -1.263e-9
-0.061, -1.202e-9
-0.060, -1.330e-9
-0.059, -1.386e-9
-0.058, -1.360e-9
-0.057, -1.545e-9
-0.056, -1.485e-9
-0.055, -1.608e-9
-0.054, -1.685e-9
-0.053, -1.681e-9
-0.052, -1.847e-9
-0.051, -1.824e-9
-0.050, -1.944e-9
-0.049, -2.022e-9
-0.048, -2.024e-9
-0.047, -2.202e-9
-0.046, -2.192e-9
-0.045, -2.309e-9
-0.044, -2.407e-9
-0.043, -2.423e-9
-0.042, -2.596e-9
-0.041, -2.619e-9
-0.040, -2.740e-9
-0.039, -2.842e-9
-0.038, -2.901e-9
-0.037, -3.076e-9
-0.036, -3.091e-9
-0.035, -3.258e-9
-0.034, -3.361e-9
-0.033, -3.433e-9
-0.032, -3.610e-9
-0.031, -3.640e-9
-0.030, -3.835e-9
-0.029, -3.955e-9
-0.028, -4.032e-9
-0.027, -4.266e-9
-0.026, -4.320e-9
-0.025, -4.524e-9
-0.024, -4.664e-9
-0.023, -4.770e-9
-0.022, -5.027e-9
-0.021, -5.078e-9
-0.020, -5.325e-9
-0.019, -5.492e-9
-0.018, -5.616e-9
-0.017, -5.919e-9
-0.016, -5.991e-9
-0.015, -6.250e-9
-0.014, -6.486e-9
-0.013, -6.631e-9
-0.012, -6.943e-9
-0.011, -7.082e-9
-0.010, -7.360e-9
-0.009, -7.642e-9
-0.008, -7.805e-9
-0.007, -8.171e-9
-0.006, -8.343e-9
-0.005, -8.669e-9
-0.004, -8.960e-9
-0.003, -9.196e-9
-0.002, -9.574e-9
-0.001, -9.822e-9
-0.000, -1.032e-8
0.001, -1.057e-8
0.002, -1.085e-8
0.003, -1.127e-8
0.004, -1.156e-8
0.005, -1.198e-8
0.006, -1.234e-8
0.007, -1.273e-8
0.008, -1.317e-8
0.009, -1.350e-8
0.010, -1.402e-8
0.011, -1.443e-8
0.012, -1.485e-8
0.013, -1.540e-8
0.014, -1.580e-8
0.015, -1.637e-8
0.016, -1.684e-8
0.017, -1.732e-8
0.018, -1.794e-8
0.019, -1.837e-8
0.020, -1.901e-8
0.021, -1.954e-8
0.022, -2.008e-8
0.023, -2.077e-8
0.024, -2.127e-8
0.025, -2.196e-8
0.026, -2.262e-8
0.027, -2.320e-8
0.028, -2.395e-8
0.029, -2.453e-8
0.030, -2.524e-8
0.031, -2.599e-8
0.032, -2.660e-8
0.033, -2.738e-8
0.034, -2.808e-8
0.035, -2.882e-8
0.036, -2.958e-8
0.037, -3.030e-8
0.038, -3.114e-8
0.039, -3.188e-8
0.040, -3.268e-8
0.041, -3.347e-8
0.042, -3.424e-8
0.043, -3.508e-8
0.044, -3.584e-8
0.045, -3.669e-8
0.046, -3.747e-8
0.047, -3.832e-8
0.048, -3.912e-8
0.049, -3.994e-8
0.050, -4.081e-8
0.051, -4.160e-8
0.052, -4.243e-8
0.053, -4.326e-8
0.054, -4.403e-8
0.055, -4.490e-8
0.056, -4.564e-8
0.057, -4.641e-8
0.058, -4.729e-8
0.059, -4.796e-8
0.060, -4.883e-8
0.061, -4.954e-8
0.062, -5.028e-8
0.063, -5.106e-8
0.064, -5.169e-8
0.065, -5.248e-8
0.066, -5.315e-8
0.067, -5.376e-8
0.068, -5.450e-8
0.069, -5.506e-8
0.070, -5.570e-8
0.071, -5.634e-8
0.072, -5.685e-8
0.073, -5.744e-8
0.074, -5.796e-8
0.075, -5.847e-8
0.076, -5.901e-8
0.077, -5.944e-8
0.078, -5.992e-8
0.079, -6.032e-8
0.080, -6.073e-8
0.081, -6.110e-8
0.082, -6.146e-8
0.083, -6.179e-8
0.084, -6.205e-8
0.085, -6.238e-8
0.086, -6.263e-8
0.087, -6.287e-8
0.088, -6.309e-8
0.089, -6.323e-8
0.090, -6.348e-8
0.091, -6.361e-8
0.092, -6.371e-8
0.093, -6.385e-8
0.094, -6.384e-8
0.095, -6.402e-8
0.096, -6.400e-8
0.097, -6.401e-8
0.098, -6.411e-8
0.099, -6.398e-8
0.100, -6.403e-8
0.101, -6.396e-8
0.102, -6.390e-8
0.103, -6.391e-8
0.104, -6.369e-8
0.105, -6.368e-8
0.106, -6.354e-8
0.107, -6.335e-8
0.108, -6.330e-8
0.109, -6.304e-8
0.110, -6.295e-8
0.111, -6.279e-8
0.112, -6.254e-8
0.113, -6.239e-8
0.114, -6.214e-8
0.115, -6.197e-8
0.116, -6.175e-8
0.117, -6.150e-8
0.118, -6.130e-8
0.119, -6.103e-8
0.120, -6.081e-8
0.121, -6.055e-8
0.122, -6.028e-8
0.123, -6.008e-8
0.124, -5.975e-8
0.125, -5.953e-8
0.126, -5.926e-8
0.127, -5.896e-8
0.128, -5.876e-8
0.129, -5.841e-8
0.130, -5.821e-8
0.131, -5.790e-8
0.132, -5.761e-8
0.133, -5.740e-8
0.134, -5.701e-8
0.135, -5.683e-8
0.136, -5.652e-8
0.137, -5.620e-8
0.138, -5.604e-8
0.139, -5.564e-8
0.140, -5.545e-8
0.141, -5.517e-8
0.142, -5.485e-8
0.143, -5.468e-8
0.144, -5.429e-8
0.145, -5.409e-8
0.146, -5.382e-8
0.147, -5.351e-8
0.148, -5.334e-8
0.149, -5.298e-8
0.150, -5.279e-8
0.151, -5.256e-8
0.152, -5.222e-8
0.153, -5.210e-8
0.154, -5.175e-8
0.155, -5.156e-8
0.156, -5.133e-8
0.157, -5.104e-8
0.158, -5.088e-8
0.159, -5.058e-8
0.160, -5.039e-8
0.161, -5.016e-8
0.162, -4.991e-8
0.163, -4.976e-8
0.164, -4.945e-8
0.165, -4.930e-8
0.166, -4.908e-8
0.167, -4.881e-8
0.168, -4.870e-8
0.169, -4.839e-8
0.170, -4.827e-8
0.171, -4.805e-8
0.172, -4.783e-8
0.173, -4.771e-8
0.174, -4.741e-8
0.175, -4.731e-8
0.176, -4.709e-8
0.177, -4.688e-8
0.178, -4.680e-8
0.179, -4.650e-8
0.180, -4.640e-8
0.181, -4.622e-8
0.182, -4.598e-8
0.183, -4.593e-8
0.184, -4.565e-8
0.185, -4.554e-8
0.186, -4.539e-8
0.187, -4.518e-8
0.188, -4.511e-8
0.189, -4.486e-8
0.190, -4.478e-8
0.191, -4.463e-8
0.192, -4.443e-8
0.193, -4.438e-8
0.194, -4.414e-8
0.195, -4.405e-8
0.196, -4.392e-8
0.197, -4.373e-8
0.198, -4.368e-8
0.199, -4.347e-8
0.200, -4.338e-8
0.201, -4.326e-8
0.202, -4.310e-8
0.203, -4.304e-8
0.204, -4.284e-8
0.205, -4.279e-8
0.206, -4.264e-8
0.207, -4.250e-8
0.208, -4.246e-8
0.209, -4.224e-8
0.210, -4.221e-8
0.211, -4.208e-8
0.212, -4.193e-8
0.213, -4.192e-8
0.214, -4.170e-8
0.215, -4.168e-8
0.216, -4.155e-8
0.217, -4.142e-8
0.218, -4.141e-8
0.219, -4.120e-8
0.220, -4.118e-8
0.221, -4.106e-8
0.222, -4.093e-8
0.223, -4.095e-8
0.224, -4.073e-8
0.225, -4.072e-8
0.226, -4.064e-8
0.227, -4.048e-8
0.228, -4.050e-8
0.229, -4.032e-8
0.230, -4.029e-8
0.231, -4.022e-8
0.232, -4.008e-8
0.233, -4.008e-8
0.234, -3.992e-8
0.235, -3.990e-8
0.236, -3.982e-8
0.237, -3.970e-8
0.238, -3.971e-8
0.239, -3.955e-8
0.240, -3.954e-8
0.241, -3.946e-8
0.242, -3.935e-8
0.243, -3.936e-8
0.244, -3.921e-8
0.245, -3.920e-8
0.246, -3.911e-8
0.247, -3.904e-8
0.248, -3.903e-8
0.249, -3.889e-8
0.250, -3.891e-8
0.251, -3.881e-8
0.252, -3.871e-8
0.253, -3.876e-8
0.254, -3.858e-8
0.255, -3.861e-8
0.256, -3.854e-8
0.257, -3.844e-8
0.258, -3.848e-8
0.259, -3.831e-8
0.260, -3.835e-8
0.261, -3.828e-8
0.262, -3.818e-8
0.263, -3.824e-8
0.264, -3.808e-8
0.265, -3.810e-8
0.266, -3.806e-8
0.267, -3.794e-8
0.268, -3.802e-8
0.269, -3.788e-8
0.270, -3.788e-8
0.271, -3.786e-8
0.272, -3.775e-8
0.273, -3.781e-8
0.274, -3.768e-8
0.275, -3.770e-8
0.276, -3.765e-8
0.277, -3.758e-8
0.278, -3.762e-8
0.279, -3.751e-8
0.280, -3.754e-8
0.281, -3.750e-8
0.282, -3.742e-8
0.283, -3.748e-8
0.284, -3.736e-8
0.285, -3.739e-8
0.286, -3.734e-8
0.287, -3.730e-8
0.288, -3.734e-8
0.289, -3.721e-8
0.290, -3.728e-8
0.291, -3.722e-8
0.292, -3.718e-8
0.293, -3.724e-8
0.294, -3.710e-8
0.295, -3.718e-8
0.296, -3.713e-8
0.297, -3.706e-8
0.298, -3.715e-8
0.299, -3.702e-8
0.300, -3.443e-8
0.299, -3.286e-8
0.298, -3.247e-8
0.297, -3.227e-8
0.296, -3.196e-8
0.295, -3.184e-8
0.294, -3.164e-8
0.293, -3.144e-8
0.292, -3.138e-8
0.291, -3.114e-8
0.290, -3.108e-8
0.289, -3.092e-8
0.288, -3.076e-8
0.287, -3.072e-8
0.286, -3.052e-8
0.285, -3.048e-8
0.284, -3.035e-8
0.283, -3.022e-8
0.282, -3.019e-8
0.281, -2.999e-8
0.280, -2.999e-8
0.279, -2.987e-8
0.278, -2.973e-8
0.277, -2.976e-8
0.276, -2.954e-8
0.275, -2.956e-8
0.274, -2.946e-8
0.273, -2.932e-8
0.272, -2.935e-8
0.271, -2.917e-8
0.270, -2.916e-8
0.269, -2.908e-8
0.268, -2.895e-8
0.267, -2.899e-8
0.266, -2.882e-8
0.265, -2.880e-8
0.264, -2.874e-8
0.263, -2.863e-8
0.262, -2.865e-8
0.261, -2.849e-8
0.260, -2.848e-8
0.259, -2.842e-8
0.258, -2.831e-8
0.257, -2.832e-8
0.256, -2.817e-8
0.255, -2.817e-8
0.254, -2.810e-8
0.253, -2.802e-8
0.252, -2.803e-8
0.251, -2.788e-8
0.250, -2.790e-8
0.249, -2.781e-8
0.248, -2.773e-8
0.247, -2.777e-8
0.246, -2.760e-8
0.245, -2.763e-8
0.244, -2.754e-8
0.243, -2.746e-8
0.242, -2.750e-8
0.241, -2.732e-8
0.240, -2.736e-8
0.239, -2.728e-8
0.238, -2.719e-8
0.237, -2.724e-8
0.236, -2.706e-8
0.235, -2.710e-8
0.234, -2.704e-8
0.233, -2.692e-8
0.232, -2.697e-8
0.231, -2.681e-8
0.230, -2.683e-8
0.229, -2.677e-8
0.228, -2.666e-8
0.227, -2.672e-8
0.226, -2.656e-8
0.225, -2.657e-8
0.224, -2.651e-8
0.223, -2.642e-8
0.222, -2.645e-8
0.221, -2.631e-8
0.220, -2.631e-8
0.219, -2.626e-8
0.218, -2.616e-8
0.217, -2.619e-8
0.216, -2.604e-8
0.215, -2.606e-8
0.214, -2.598e-8
0.213, -2.589e-8
0.212, -2.591e-8
0.211, -2.577e-8
0.210, -2.579e-8
0.209, -2.569e-8
0.208, -2.561e-8
0.207, -2.564e-8
0.206, -2.548e-8
0.205, -2.549e-8
0.204, -2.539e-8
0.203, -2.532e-8
0.202, -2.534e-8
0.201, -2.516e-8
0.200, -2.519e-8
0.199, -2.509e-8
0.198, -2.500e-8
0.197, -2.503e-8
0.196, -2.484e-8
0.195, -2.487e-8
0.194, -2.477e-8
0.193, -2.465e-8
0.192, -2.468e-8
0.191, -2.451e-8
0.190, -2.450e-8
0.189, -2.441e-8
0.188, -2.428e-8
0.187, -2.430e-8
0.186, -2.412e-8
0.185, -2.410e-8
0.184, -2.401e-8
0.183, -2.387e-8
0.182, -2.387e-8
0.181, -2.368e-8
0.180, -2.364e-8
0.179, -2.353e-8
0.178, -2.341e-8
0.177, -2.338e-8
0.176, -2.319e-8
0.175, -2.315e-8
0.174, -2.302e-8
0.173, -2.288e-8
0.172, -2.282e-8
0.171, -2.262e-8
0.170, -2.257e-8
0.169, -2.242e-8
0.168, -2.226e-8
0.167, -2.221e-8
0.166, -2.197e-8
0.165, -2.192e-8
0.164, -2.172e-8
0.163, -2.159e-8
0.162, -2.150e-8
0.161, -2.123e-8
0.160, -2.116e-8
0.159, -2.096e-8
0.158, -2.076e-8
0.157, -2.068e-8
0.156, -2.038e-8
0.155, -2.029e-8
0.154, -2.006e-8
0.153, -1.981e-8
0.152, -1.971e-8
0.151, -1.939e-8
0.150, -1.925e-8
0.149, -1.902e-8
0.148, -1.873e-8
0.147, -1.860e-8
0.146, -1.825e-8
0.145, -1.805e-8
0.144, -1.778e-8
0.143, -1.748e-8
0.142, -1.728e-8
0.141, -1.690e-8
0.140, -1.666e-8
0.139, -1.637e-8
0.138, -1.601e-8
0.137, -1.575e-8
0.136, -1.535e-8
0.135, -1.505e-8
0.134, -1.468e-8
0.133, -1.430e-8
0.132, -1.397e-8
0.131, -1.354e-8
0.130, -1.321e-8
0.129, -1.275e-8
0.128, -1.232e-8
0.127, -1.196e-8
0.126, -1.143e-8
0.125, -1.107e-8
0.124, -1.055e-8
0.123, -1.008e-8
0.122, -9.660e-9
0.121, -9.040e-9
0.120, -8.618e-9
0.119, -8.055e-9
0.118, -7.510e-9
0.117, -7.012e-9
0.116, -6.329e-9
0.115, -5.855e-9
0.114, -5.228e-9
0.113, -4.607e-9
0.112, -4.059e-9
0.111, -3.349e-9
0.110, -2.761e-9
0.109, -2.119e-9
0.108, -1.372e-9
0.107, -8.181e-10
0.106, -2.600e-11
0.105, 6.506e-10
0.104, 1.341e-9
0.103, 2.138e-9
0.102, 2.828e-9
0.101, 3.609e-9
0.100, 4.351e-9
0.099, 5.097e-9
0.098, 5.885e-9
0.097, 6.637e-9
0.096, 7.465e-9
0.095, 8.234e-9
0.094, 9.046e-9
0.093, 9.883e-9
0.092, 1.066e-8
0.091, 1.153e-8
0.090, 1.230e-8
0.089, 1.317e-8
0.088, 1.398e-8
0.087, 1.476e-8
0.086, 1.564e-8
0.085, 1.640e-8
0.084, 1.732e-8
0.083, 1.806e-8
0.082, 1.889e-8
0.081, 1.979e-8
0.080, 2.048e-8
0.079, 2.134e-8
0.078, 2.213e-8
0.077, 2.286e-8
0.076, 2.378e-8
0.075, 2.441e-8
0.074, 2.519e-8
0.073, 2.594e-8
0.072, 2.660e-8
0.071, 2.739e-8
0.070, 2.801e-8
0.069, 2.872e-8
0.068, 2.942e-8
0.067, 2.994e-8
0.066, 3.067e-8
0.065, 3.123e-8
0.064, 3.180e-8
0.063, 3.241e-8
0.062, 3.287e-8
0.061, 3.344e-8
0.060, 3.396e-8
0.059, 3.436e-8
0.058, 3.484e-8
0.057, 3.525e-8
0.056, 3.569e-8
0.055, 3.602e-8
0.054, 3.641e-8
0.053, 3.672e-8
0.052, 3.705e-8
0.051, 3.738e-8
0.050, 3.756e-8
0.049, 3.786e-8
0.048, 3.806e-8
0.047, 3.824e-8
0.046, 3.846e-8
0.045, 3.855e-8
0.044, 3.875e-8
0.043, 3.881e-8
0.042, 3.887e-8
0.041, 3.905e-8
0.040, 3.900e-8
0.039, 3.912e-8
0.038, 3.912e-8
0.037, 3.905e-8
0.036, 3.915e-8
0.035, 3.900e-8
0.034, 3.900e-8
0.033, 3.898e-8
0.032, 3.881e-8
0.031, 3.882e-8
0.030, 3.866e-8
0.029, 3.853e-8
0.028, 3.846e-8
0.027, 3.823e-8
0.026, 3.818e-8
0.025, 3.797e-8
0.024, 3.781e-8
0.023, 3.766e-8
0.022, 3.740e-8
0.021, 3.730e-8
0.020, 3.705e-8
0.019, 3.684e-8
0.018, 3.665e-8
0.017, 3.638e-8
0.016, 3.622e-8
0.015, 3.596e-8
0.014, 3.574e-8
0.013, 3.551e-8
0.012, 3.525e-8
0.011, 3.505e-8
0.010, 3.474e-8
0.009, 3.455e-8
0.008, 3.430e-8
0.007, 3.399e-8
0.006, 3.383e-8
0.005, 3.349e-8
0.004, 3.330e-8
0.003, 3.303e-8
0.002, 3.272e-8
0.001, 3.257e-8
0.000, 3.237e-8
-0.001, 3.206e-8
-0.002, 3.179e-8
-0.003, 3.149e-8
-0.004, 3.132e-8
-0.005, 3.099e-8
-0.006, 3.078e-8
-0.007, 3.056e-8
-0.008, 3.023e-8
-0.009, 3.011e-8
-0.010, 2.978e-8
-0.011, 2.956e-8
-0.012, 2.938e-8
-0.013, 2.906e-8
-0.014, 2.891e-8
-0.015, 2.864e-8
-0.016, 2.842e-8
-0.017, 2.822e-8
-0.018, 2.794e-8
-0.019, 2.781e-8
-0.020, 2.753e-8
-0.021, 2.733e-8
-0.022, 2.715e-8
-0.023, 2.688e-8
-0.024, 2.677e-8
-0.025, 2.650e-8
-0.026, 2.633e-8
-0.027, 2.615e-8
-0.028, 2.591e-8
-0.029, 2.577e-8
-0.030, 2.553e-8
-0.031, 2.539e-8
-0.032, 2.521e-8
-0.033, 2.497e-8
-0.034, 2.490e-8
-0.035, 2.462e-8
-0.036, 2.452e-8
-0.037, 2.435e-8
-0.038, 2.410e-8
-0.039, 2.406e-8
-0.040, 2.380e-8
-0.041, 2.368e-8
-0.042, 2.356e-8
-0.043, 2.332e-8
-0.044, 2.329e-8
-0.045, 2.305e-8
-0.046, 2.293e-8
-0.047, 2.283e-8
-0.048, 2.260e-8
-0.049, 2.258e-8
-0.050, 2.235e-8
-0.051, 2.227e-8
-0.052, 2.216e-8
-0.053, 2.194e-8
-0.054, 2.193e-8
-0.055, 2.174e-8
-0.056, 2.163e-8
-0.057, 2.155e-8
-0.058, 2.136e-8
-0.059, 2.132e-8
-0.060, 2.116e-8
-0.061, 2.107e-8
-0.062, 2.097e-8
-0.063, 2.083e-8
-0.064, 2.080e-8
-0.065, 2.062e-8
-0.066, 2.057e-8
-0.067, 2.047e-8
-0.068, 2.032e-8
-0.069, 2.031e-8
-0.070, 2.014e-8
-0.071, 2.010e-8
-0.072, 2.003e-8
-0.073, 1.987e-8
-0.074, 1.988e-8
-0.075, 1.972e-8
-0.076, 1.969e-8
-0.077, 1.961e-8
-0.078, 1.946e-8
-0.079, 1.950e-8
-0.080, 1.932e-8
-0.081, 1.931e-8
-0.082, 1.926e-8
-0.083, 1.909e-8
-0.084, 1.915e-8
-0.085, 1.899e-8
-0.086, 1.895e-8
-0.087, 1.893e-8
-0.088, 1.877e-8
-0.089, 1.882e-8
-0.090, 1.869e-8
-0.091, 1.865e-8
-0.092, 1.863e-8
-0.093, 1.849e-8
-0.094, 1.853e-8
-0.095, 1.841e-8
-0.096, 1.839e-8
-0.097, 1.836e-8
-0.098, 1.824e-8
-0.099, 1.830e-8
-0.100, 1.818e-8
-0.101, 1.815e-8
-0.102, 1.815e-8
-0.103, 1.803e-8
-0.104, 1.806e-8
-0.105, 1.797e-8
-0.106, 1.796e-8
-0.107, 1.793e-8
-0.108, 1.785e-8
-0.109, 1.789e-8
-0.110, 1.777e-8
-0.111, 1.781e-8
-0.112, 1.777e-8
-0.113, 1.767e-8
-0.114, 1.775e-8
-0.115, 1.763e-8
-0.116, 1.766e-8
-0.117, 1.764e-8
-0.118, 1.753e-8
-0.119, 1.763e-8
-0.120, 1.751e-8
-0.121, 1.754e-8
-0.122, 1.752e-8
-0.123, 1.744e-8
-0.124, 1.754e-8
-0.125, 1.741e-8
-0.126, 1.745e-8
-0.127, 1.746e-8
-0.128, 1.736e-8
-0.129, 1.746e-8
-0.130, 1.737e-8
-0.131, 1.737e-8
-0.132, 1.741e-8
-0.133, 1.731e-8
-0.134, 1.739e-8
-0.135, 1.733e-8
-0.136, 1.734e-8
-0.137, 1.736e-8
-0.138, 1.730e-8
-0.139, 1.739e-8
-0.140, 1.731e-8
-0.141, 1.734e-8
-0.142, 1.736e-8
-0.143, 1.729e-8
-0.144, 1.739e-8
-0.145, 1.732e-8
-0.146, 1.735e-8
-0.147, 1.737e-8
-0.148, 1.732e-8
-0.149, 1.741e-8
-0.150, 1.735e-8
-0.151, 1.741e-8
-0.152, 1.741e-8
-0.153, 1.738e-8
-0.154, 1.748e-8
-0.155, 1.740e-8
-0.156, 1.749e-8
-0.157, 1.749e-8
-0.158, 1.743e-8
-0.159, 1.757e-8
-0.160, 1.749e-8
-0.161, 1.755e-8
-0.162, 1.760e-8
-0.163, 1.754e-8
-0.164, 1.768e-8
-0.165, 1.761e-8
-0.166, 1.767e-8
-0.167, 1.772e-8
-0.168, 1.767e-8
-0.169, 1.780e-8
-0.170, 1.775e-8
-0.171, 1.781e-8
-0.172, 1.788e-8
-0.173, 1.781e-8
-0.174, 1.796e-8
-0.175, 1.792e-8
-0.176, 1.797e-8
-0.177, 1.804e-8
-0.178, 1.800e-8
-0.179, 1.813e-8
-0.180, 1.811e-8
-0.181, 1.818e-8
-0.182, 1.822e-8
-0.183, 1.822e-8
-0.184, 1.834e-8
-0.185, 1.830e-8
-0.186, 1.841e-8
-0.187, 1.846e-8
-0.188, 1.844e-8
-0.189, 1.858e-8
-0.190, 1.854e-8
-0.191, 1.865e-8
-0.192, 1.871e-8
-0.193, 1.870e-8
-0.194, 1.886e-8
-0.195, 1.882e-8
-0.196, 1.895e-8
-0.197, 1.898e-8
-0.198, 1.898e-8
-0.199, 1.915e-8
