Mar. 16, 2023   09:50:18
Cyclic Voltammetry
File: c:/users/oliverrz/desktop/electrolab/data/2023_03_16\fcmeoh_macros_750_um\electrode6_cv_250mvs_750_um.bin
Data Source:  Experiment
Instrument Model:  CHI760E
Header: CV
Note: 

Init E (V) = -0.2
High E (V) = 0.3
Low E (V) = -0.2
Final E (V) = -0.2
Init P/N = P
Scan Rate (V/s) = 0.25
Segment = 3
Sample Interval (V) = 0.001
Quiet Time (sec) = 2
Sensitivity (A/V) = 1e-7

Results:

Channel 1:
Segment 1:
Ep = 0.110V
ip = -7.790e-8A
Ah = -1.947e-8C

Segment 2:
Ep = 0.050V
ip = 7.112e-8A
Ah = 1.730e-8C

Segment 3:

Potential/V, Current/A

-0.200, 2.683e-9
-0.199, 1.699e-9
-0.198, 1.453e-9
-0.197, 1.514e-9
-0.196, 1.637e-9
-0.195, 1.514e-9
-0.194, 1.299e-9
-0.193, 1.299e-9
-0.192, 1.484e-9
-0.191, 1.422e-9
-0.190, 1.207e-9
-0.189, 1.207e-9
-0.188, 1.360e-9
-0.187, 1.360e-9
-0.186, 1.145e-9
-0.185, 1.053e-9
-0.184, 1.237e-9
-0.183, 1.268e-9
-0.182, 1.084e-9
-0.181, 9.913e-10
-0.180, 1.114e-9
-0.179, 1.207e-9
-0.178, 1.022e-9
-0.177, 8.682e-10
-0.176, 1.022e-9
-0.175, 1.114e-9
-0.174, 9.913e-10
-0.173, 8.067e-10
-0.172, 8.682e-10
-0.171, 1.053e-9
-0.170, 9.298e-10
-0.169, 7.452e-10
-0.168, 7.759e-10
-0.167, 9.605e-10
-0.166, 8.990e-10
-0.165, 6.836e-10
-0.164, 6.836e-10
-0.163, 8.990e-10
-0.162, 8.682e-10
-0.161, 6.836e-10
-0.160, 6.221e-10
-0.159, 7.759e-10
-0.158, 8.067e-10
-0.157, 6.529e-10
-0.156, 5.298e-10
-0.155, 6.836e-10
-0.154, 7.759e-10
-0.153, 6.221e-10
-0.152, 4.683e-10
-0.151, 5.913e-10
-0.150, 7.144e-10
-0.149, 5.913e-10
-0.148, 4.068e-10
-0.147, 4.991e-10
-0.146, 6.836e-10
-0.145, 5.606e-10
-0.144, 3.760e-10
-0.143, 4.068e-10
-0.142, 5.913e-10
-0.141, 5.606e-10
-0.140, 3.145e-10
-0.139, 3.452e-10
-0.138, 4.991e-10
-0.137, 4.991e-10
-0.136, 3.452e-10
-0.135, 2.529e-10
-0.134, 4.683e-10
-0.133, 4.683e-10
-0.132, 3.145e-10
-0.131, 2.222e-10
-0.130, 3.452e-10
-0.129, 4.683e-10
-0.128, 2.837e-10
-0.127, 1.606e-10
-0.126, 2.837e-10
-0.125, 4.068e-10
-0.124, 2.529e-10
-0.123, 9.911e-11
-0.122, 1.914e-10
-0.121, 3.452e-10
-0.120, 2.529e-10
-0.119, 6.834e-11
-0.118, 9.911e-11
-0.117, 3.145e-10
-0.116, 2.222e-10
-0.115, 6.813e-12
-0.114, 3.758e-11
-0.113, 1.914e-10
-0.112, 2.222e-10
-0.111, 6.813e-12
-0.110, -5.472e-11
-0.109, 1.606e-10
-0.108, 1.606e-10
-0.107, 6.813e-12
-0.106, -8.548e-11
-0.105, 6.813e-12
-0.104, 1.606e-10
-0.103, -2.395e-11
-0.102, -1.778e-10
-0.101, -2.395e-11
-0.100, 6.834e-11
-0.099, -2.395e-11
-0.098, -2.085e-10
-0.097, -1.470e-10
-0.096, 3.758e-11
-0.095, -8.548e-11
-0.094, -2.701e-10
-0.093, -2.393e-10
-0.092, -5.472e-11
-0.091, -8.548e-11
-0.090, -3.316e-10
-0.089, -3.316e-10
-0.088, -1.162e-10
-0.087, -1.470e-10
-0.086, -3.316e-10
-0.085, -4.239e-10
-0.084, -2.085e-10
-0.083, -2.085e-10
-0.082, -3.931e-10
-0.081, -4.854e-10
-0.080, -3.316e-10
-0.079, -2.701e-10
-0.078, -4.547e-10
-0.077, -5.777e-10
-0.076, -4.854e-10
-0.075, -3.624e-10
-0.074, -4.854e-10
-0.073, -7.008e-10
-0.072, -5.777e-10
-0.071, -4.547e-10
-0.070, -5.777e-10
-0.069, -7.315e-10
-0.068, -7.623e-10
-0.067, -5.470e-10
-0.066, -6.393e-10
-0.065, -8.854e-10
-0.064, -8.546e-10
-0.063, -7.008e-10
-0.062, -7.315e-10
-0.061, -9.469e-10
-0.060, -1.039e-9
-0.059, -8.546e-10
-0.058, -8.546e-10
-0.057, -1.070e-9
-0.056, -1.162e-9
-0.055, -1.070e-9
-0.054, -9.777e-10
-0.053, -1.193e-9
-0.052, -1.378e-9
-0.051, -1.255e-9
-0.050, -1.193e-9
-0.049, -1.347e-9
-0.048, -1.531e-9
-0.047, -1.501e-9
-0.046, -1.378e-9
-0.045, -1.531e-9
-0.044, -1.747e-9
-0.043, -1.747e-9
-0.042, -1.624e-9
-0.041, -1.747e-9
-0.040, -1.993e-9
-0.039, -2.054e-9
-0.038, -1.931e-9
-0.037, -1.962e-9
-0.036, -2.239e-9
-0.035, -2.393e-9
-0.034, -2.239e-9
-0.033, -2.301e-9
-0.032, -2.516e-9
-0.031, -2.731e-9
-0.030, -2.670e-9
-0.029, -2.608e-9
-0.028, -2.885e-9
-0.027, -3.100e-9
-0.026, -3.100e-9
-0.025, -3.100e-9
-0.024, -3.285e-9
-0.023, -3.562e-9
-0.022, -3.593e-9
-0.021, -3.531e-9
-0.020, -3.777e-9
-0.019, -4.054e-9
-0.018, -4.177e-9
-0.017, -4.116e-9
-0.016, -4.300e-9
-0.015, -4.669e-9
-0.014, -4.793e-9
-0.013, -4.793e-9
-0.012, -4.977e-9
-0.011, -5.316e-9
-0.010, -5.562e-9
-0.009, -5.562e-9
-0.008, -5.715e-9
-0.007, -6.085e-9
-0.006, -6.392e-9
-0.005, -6.454e-9
-0.004, -6.577e-9
-0.003, -6.977e-9
-0.002, -7.346e-9
-0.001, -7.500e-9
-0.000, -7.715e-9
0.001, -8.054e-9
0.002, -8.484e-9
0.003, -8.669e-9
0.004, -8.792e-9
0.005, -9.192e-9
0.006, -9.684e-9
0.007, -9.992e-9
0.008, -1.011e-8
0.009, -1.055e-8
0.010, -1.110e-8
0.011, -1.144e-8
0.012, -1.168e-8
0.013, -1.208e-8
0.014, -1.267e-8
0.015, -1.319e-8
0.016, -1.338e-8
0.017, -1.384e-8
0.018, -1.445e-8
0.019, -1.501e-8
0.020, -1.541e-8
0.021, -1.578e-8
0.022, -1.648e-8
0.023, -1.716e-8
0.024, -1.756e-8
0.025, -1.808e-8
0.026, -1.879e-8
0.027, -1.950e-8
0.028, -2.008e-8
0.029, -2.051e-8
0.030, -2.131e-8
0.031, -2.214e-8
0.032, -2.276e-8
0.033, -2.334e-8
0.034, -2.411e-8
0.035, -2.501e-8
0.036, -2.577e-8
0.037, -2.636e-8
0.038, -2.719e-8
0.039, -2.817e-8
0.040, -2.900e-8
0.041, -2.971e-8
0.042, -3.054e-8
0.043, -3.153e-8
0.044, -3.257e-8
0.045, -3.328e-8
0.046, -3.414e-8
0.047, -3.522e-8
0.048, -3.620e-8
0.049, -3.716e-8
0.050, -3.796e-8
0.051, -3.906e-8
0.052, -4.023e-8
0.053, -4.113e-8
0.054, -4.199e-8
0.055, -4.316e-8
0.056, -4.423e-8
0.057, -4.528e-8
0.058, -4.611e-8
0.059, -4.728e-8
0.060, -4.848e-8
0.061, -4.946e-8
0.062, -5.039e-8
0.063, -5.149e-8
0.064, -5.263e-8
0.065, -5.377e-8
0.066, -5.463e-8
0.067, -5.562e-8
0.068, -5.682e-8
0.069, -5.786e-8
0.070, -5.879e-8
0.071, -5.968e-8
0.072, -6.072e-8
0.073, -6.195e-8
0.074, -6.269e-8
0.075, -6.352e-8
0.076, -6.460e-8
0.077, -6.562e-8
0.078, -6.645e-8
0.079, -6.718e-8
0.080, -6.808e-8
0.081, -6.906e-8
0.082, -6.980e-8
0.083, -7.032e-8
0.084, -7.128e-8
0.085, -7.205e-8
0.086, -7.275e-8
0.087, -7.321e-8
0.088, -7.383e-8
0.089, -7.469e-8
0.090, -7.524e-8
0.091, -7.561e-8
0.092, -7.617e-8
0.093, -7.669e-8
0.094, -7.721e-8
0.095, -7.752e-8
0.096, -7.777e-8
0.097, -7.835e-8
0.098, -7.872e-8
0.099, -7.891e-8
0.100, -7.915e-8
0.101, -7.937e-8
0.102, -7.980e-8
0.103, -7.989e-8
0.104, -7.989e-8
0.105, -8.014e-8
0.106, -8.029e-8
0.107, -8.032e-8
0.108, -8.023e-8
0.109, -8.026e-8
0.110, -8.044e-8
0.111, -8.038e-8
0.112, -8.011e-8
0.113, -8.011e-8
0.114, -8.014e-8
0.115, -8.004e-8
0.116, -7.977e-8
0.117, -7.955e-8
0.118, -7.952e-8
0.119, -7.943e-8
0.120, -7.906e-8
0.121, -7.875e-8
0.122, -7.863e-8
0.123, -7.847e-8
0.124, -7.814e-8
0.125, -7.768e-8
0.126, -7.752e-8
0.127, -7.737e-8
0.128, -7.697e-8
0.129, -7.651e-8
0.130, -7.626e-8
0.131, -7.601e-8
0.132, -7.568e-8
0.133, -7.512e-8
0.134, -7.484e-8
0.135, -7.466e-8
0.136, -7.423e-8
0.137, -7.374e-8
0.138, -7.337e-8
0.139, -7.312e-8
0.140, -7.281e-8
0.141, -7.223e-8
0.142, -7.183e-8
0.143, -7.161e-8
0.144, -7.128e-8
0.145, -7.078e-8
0.146, -7.026e-8
0.147, -7.001e-8
0.148, -6.980e-8
0.149, -6.921e-8
0.150, -6.875e-8
0.151, -6.848e-8
0.152, -6.823e-8
0.153, -6.780e-8
0.154, -6.725e-8
0.155, -6.697e-8
0.156, -6.675e-8
0.157, -6.632e-8
0.158, -6.577e-8
0.159, -6.546e-8
0.160, -6.528e-8
0.161, -6.491e-8
0.162, -6.438e-8
0.163, -6.402e-8
0.164, -6.386e-8
0.165, -6.355e-8
0.166, -6.300e-8
0.167, -6.266e-8
0.168, -6.245e-8
0.169, -6.223e-8
0.170, -6.174e-8
0.171, -6.128e-8
0.172, -6.115e-8
0.173, -6.094e-8
0.174, -6.051e-8
0.175, -6.011e-8
0.176, -5.986e-8
0.177, -5.977e-8
0.178, -5.934e-8
0.179, -5.888e-8
0.180, -5.872e-8
0.181, -5.857e-8
0.182, -5.826e-8
0.183, -5.780e-8
0.184, -5.752e-8
0.185, -5.749e-8
0.186, -5.719e-8
0.187, -5.675e-8
0.188, -5.651e-8
0.189, -5.642e-8
0.190, -5.623e-8
0.191, -5.577e-8
0.192, -5.549e-8
0.193, -5.543e-8
0.194, -5.528e-8
0.195, -5.488e-8
0.196, -5.454e-8
0.197, -5.445e-8
0.198, -5.436e-8
0.199, -5.402e-8
0.200, -5.368e-8
0.201, -5.356e-8
0.202, -5.352e-8
0.203, -5.319e-8
0.204, -5.282e-8
0.205, -5.272e-8
0.206, -5.269e-8
0.207, -5.245e-8
0.208, -5.205e-8
0.209, -5.192e-8
0.210, -5.196e-8
0.211, -5.171e-8
0.212, -5.137e-8
0.213, -5.116e-8
0.214, -5.116e-8
0.215, -5.106e-8
0.216, -5.069e-8
0.217, -5.048e-8
0.218, -5.048e-8
0.219, -5.039e-8
0.220, -5.008e-8
0.221, -4.980e-8
0.222, -4.983e-8
0.223, -4.980e-8
0.224, -4.946e-8
0.225, -4.925e-8
0.226, -4.916e-8
0.227, -4.919e-8
0.228, -4.894e-8
0.229, -4.863e-8
0.230, -4.860e-8
0.231, -4.863e-8
0.232, -4.842e-8
0.233, -4.811e-8
0.234, -4.802e-8
0.235, -4.808e-8
0.236, -4.796e-8
0.237, -4.762e-8
0.238, -4.749e-8
0.239, -4.756e-8
0.240, -4.746e-8
0.241, -4.716e-8
0.242, -4.700e-8
0.243, -4.703e-8
0.244, -4.703e-8
0.245, -4.676e-8
0.246, -4.651e-8
0.247, -4.657e-8
0.248, -4.657e-8
0.249, -4.633e-8
0.250, -4.611e-8
0.251, -4.608e-8
0.252, -4.617e-8
0.253, -4.596e-8
0.254, -4.568e-8
0.255, -4.571e-8
0.256, -4.577e-8
0.257, -4.562e-8
0.258, -4.531e-8
0.259, -4.528e-8
0.260, -4.537e-8
0.261, -4.525e-8
0.262, -4.497e-8
0.263, -4.491e-8
0.264, -4.497e-8
0.265, -4.497e-8
0.266, -4.466e-8
0.267, -4.454e-8
0.268, -4.463e-8
0.269, -4.463e-8
0.270, -4.439e-8
0.271, -4.420e-8
0.272, -4.429e-8
0.273, -4.433e-8
0.274, -4.411e-8
0.275, -4.389e-8
0.276, -4.396e-8
0.277, -4.405e-8
0.278, -4.386e-8
0.279, -4.362e-8
0.280, -4.365e-8
0.281, -4.377e-8
0.282, -4.365e-8
0.283, -4.334e-8
0.284, -4.337e-8
0.285, -4.346e-8
0.286, -4.340e-8
0.287, -4.316e-8
0.288, -4.306e-8
0.289, -4.322e-8
0.290, -4.319e-8
0.291, -4.291e-8
0.292, -4.282e-8
0.293, -4.294e-8
0.294, -4.294e-8
0.295, -4.276e-8
0.296, -4.257e-8
0.297, -4.270e-8
0.298, -4.276e-8
0.299, -4.254e-8
0.300, -4.082e-8
0.299, -3.897e-8
0.298, -3.882e-8
0.297, -3.845e-8
0.296, -3.808e-8
0.295, -3.796e-8
0.294, -3.799e-8
0.293, -3.774e-8
0.292, -3.737e-8
0.291, -3.731e-8
0.290, -3.737e-8
0.289, -3.719e-8
0.288, -3.691e-8
0.287, -3.673e-8
0.286, -3.685e-8
0.285, -3.676e-8
0.284, -3.642e-8
0.283, -3.630e-8
0.282, -3.636e-8
0.281, -3.633e-8
0.280, -3.605e-8
0.279, -3.583e-8
0.278, -3.590e-8
0.277, -3.593e-8
0.276, -3.568e-8
0.275, -3.547e-8
0.274, -3.550e-8
0.273, -3.556e-8
0.272, -3.534e-8
0.271, -3.510e-8
0.270, -3.510e-8
0.269, -3.519e-8
0.268, -3.503e-8
0.267, -3.479e-8
0.266, -3.476e-8
0.265, -3.485e-8
0.264, -3.476e-8
0.263, -3.445e-8
0.262, -3.439e-8
0.261, -3.451e-8
0.260, -3.445e-8
0.259, -3.417e-8
0.258, -3.405e-8
0.257, -3.414e-8
0.256, -3.417e-8
0.255, -3.390e-8
0.254, -3.374e-8
0.253, -3.383e-8
0.252, -3.387e-8
0.251, -3.368e-8
0.250, -3.343e-8
0.249, -3.350e-8
0.248, -3.362e-8
0.247, -3.337e-8
0.246, -3.316e-8
0.245, -3.319e-8
0.244, -3.328e-8
0.243, -3.316e-8
0.242, -3.288e-8
0.241, -3.285e-8
0.240, -3.297e-8
0.239, -3.288e-8
0.238, -3.263e-8
0.237, -3.254e-8
0.236, -3.267e-8
0.235, -3.263e-8
0.234, -3.236e-8
0.233, -3.227e-8
0.232, -3.236e-8
0.231, -3.236e-8
0.230, -3.211e-8
0.229, -3.196e-8
0.228, -3.205e-8
0.227, -3.208e-8
0.226, -3.187e-8
0.225, -3.165e-8
0.224, -3.171e-8
0.223, -3.180e-8
0.222, -3.159e-8
0.221, -3.137e-8
0.220, -3.134e-8
0.219, -3.147e-8
0.218, -3.134e-8
0.217, -3.104e-8
0.216, -3.104e-8
0.215, -3.113e-8
0.214, -3.104e-8
0.213, -3.076e-8
0.212, -3.064e-8
0.211, -3.076e-8
0.210, -3.070e-8
0.209, -3.042e-8
0.208, -3.030e-8
0.207, -3.036e-8
0.206, -3.036e-8
0.205, -3.008e-8
0.204, -2.990e-8
0.203, -2.999e-8
0.202, -2.996e-8
0.201, -2.974e-8
0.200, -2.950e-8
0.199, -2.950e-8
0.198, -2.959e-8
0.197, -2.934e-8
0.196, -2.907e-8
0.195, -2.904e-8
0.194, -2.910e-8
0.193, -2.894e-8
0.192, -2.860e-8
0.191, -2.854e-8
0.190, -2.860e-8
0.189, -2.845e-8
0.188, -2.811e-8
0.187, -2.799e-8
0.186, -2.802e-8
0.185, -2.790e-8
0.184, -2.756e-8
0.183, -2.737e-8
0.182, -2.737e-8
0.181, -2.731e-8
0.180, -2.697e-8
0.179, -2.673e-8
0.178, -2.670e-8
0.177, -2.660e-8
0.176, -2.633e-8
0.175, -2.599e-8
0.174, -2.593e-8
0.173, -2.590e-8
0.172, -2.553e-8
0.171, -2.519e-8
0.170, -2.507e-8
0.169, -2.501e-8
0.168, -2.473e-8
0.167, -2.427e-8
0.166, -2.411e-8
0.165, -2.402e-8
0.164, -2.374e-8
0.163, -2.331e-8
0.162, -2.301e-8
0.161, -2.291e-8
0.160, -2.267e-8
0.159, -2.211e-8
0.158, -2.184e-8
0.157, -2.165e-8
0.156, -2.141e-8
0.155, -2.088e-8
0.154, -2.045e-8
0.153, -2.024e-8
0.152, -1.999e-8
0.151, -1.944e-8
0.150, -1.894e-8
0.149, -1.867e-8
0.148, -1.839e-8
0.147, -1.787e-8
0.146, -1.725e-8
0.145, -1.688e-8
0.144, -1.658e-8
0.143, -1.602e-8
0.142, -1.534e-8
0.141, -1.491e-8
0.140, -1.451e-8
0.139, -1.399e-8
0.138, -1.325e-8
0.137, -1.270e-8
0.136, -1.230e-8
0.135, -1.168e-8
0.134, -1.091e-8
0.133, -1.027e-8
0.132, -9.746e-9
0.131, -9.192e-9
0.130, -8.300e-9
0.129, -7.561e-9
0.128, -7.008e-9
0.127, -6.331e-9
0.126, -5.469e-9
0.125, -4.608e-9
0.124, -3.931e-9
0.123, -3.316e-9
0.122, -2.362e-9
0.121, -1.378e-9
0.120, -7.008e-10
0.119, 1.299e-10
0.118, 9.605e-10
0.117, 2.099e-9
0.116, 2.929e-9
0.115, 3.668e-9
0.114, 4.652e-9
0.113, 5.760e-9
0.112, 6.683e-9
0.111, 7.544e-9
0.110, 8.436e-9
0.109, 9.636e-9
0.108, 1.068e-8
0.107, 1.151e-8
0.106, 1.250e-8
0.105, 1.373e-8
0.104, 1.477e-8
0.103, 1.576e-8
0.102, 1.671e-8
0.101, 1.788e-8
0.100, 1.905e-8
0.099, 1.991e-8
0.098, 2.093e-8
0.097, 2.207e-8
0.096, 2.323e-8
0.095, 2.425e-8
0.094, 2.511e-8
0.093, 2.622e-8
0.092, 2.745e-8
0.091, 2.834e-8
0.090, 2.933e-8
0.089, 3.034e-8
0.088, 3.148e-8
0.087, 3.249e-8
0.086, 3.326e-8
0.085, 3.422e-8
0.084, 3.536e-8
0.083, 3.619e-8
0.082, 3.705e-8
0.081, 3.782e-8
0.080, 3.880e-8
0.079, 3.972e-8
0.078, 4.040e-8
0.077, 4.111e-8
0.076, 4.200e-8
0.075, 4.283e-8
0.074, 4.348e-8
0.073, 4.397e-8
0.072, 4.468e-8
0.071, 4.551e-8
0.070, 4.591e-8
0.069, 4.640e-8
0.068, 4.699e-8
0.067, 4.760e-8
0.066, 4.806e-8
0.065, 4.840e-8
0.064, 4.880e-8
0.063, 4.942e-8
0.062, 4.966e-8
0.061, 4.985e-8
0.060, 5.015e-8
0.059, 5.055e-8
0.058, 5.083e-8
0.057, 5.083e-8
0.056, 5.095e-8
0.055, 5.135e-8
0.054, 5.142e-8
0.053, 5.145e-8
0.052, 5.145e-8
0.051, 5.157e-8
0.050, 5.175e-8
0.049, 5.157e-8
0.048, 5.145e-8
0.047, 5.151e-8
0.046, 5.151e-8
0.045, 5.138e-8
0.044, 5.114e-8
0.043, 5.105e-8
0.042, 5.111e-8
0.041, 5.083e-8
0.040, 5.052e-8
0.039, 5.037e-8
0.038, 5.034e-8
0.037, 5.006e-8
0.036, 4.966e-8
0.035, 4.938e-8
0.034, 4.935e-8
0.033, 4.911e-8
0.032, 4.862e-8
0.031, 4.828e-8
0.030, 4.815e-8
0.029, 4.791e-8
0.028, 4.748e-8
0.027, 4.702e-8
0.026, 4.686e-8
0.025, 4.665e-8
0.024, 4.615e-8
0.023, 4.569e-8
0.022, 4.542e-8
0.021, 4.523e-8
0.020, 4.480e-8
0.019, 4.428e-8
0.018, 4.400e-8
0.017, 4.382e-8
0.016, 4.335e-8
0.015, 4.289e-8
0.014, 4.249e-8
0.013, 4.237e-8
0.012, 4.197e-8
0.011, 4.142e-8
0.010, 4.108e-8
0.009, 4.089e-8
0.008, 4.056e-8
0.007, 4.006e-8
0.006, 3.957e-8
0.005, 3.945e-8
0.004, 3.917e-8
0.003, 3.865e-8
0.002, 3.822e-8
0.001, 3.800e-8
0.000, 3.791e-8
-0.001, 3.739e-8
-0.002, 3.686e-8
-0.003, 3.668e-8
-0.004, 3.646e-8
-0.005, 3.606e-8
-0.006, 3.557e-8
-0.007, 3.529e-8
-0.008, 3.517e-8
-0.009, 3.480e-8
-0.010, 3.431e-8
-0.011, 3.403e-8
-0.012, 3.397e-8
-0.013, 3.363e-8
-0.014, 3.314e-8
-0.015, 3.286e-8
-0.016, 3.274e-8
-0.017, 3.253e-8
-0.018, 3.203e-8
-0.019, 3.166e-8
-0.020, 3.160e-8
-0.021, 3.139e-8
-0.022, 3.102e-8
-0.023, 3.062e-8
-0.024, 3.050e-8
-0.025, 3.040e-8
-0.026, 3.000e-8
-0.027, 2.960e-8
-0.028, 2.951e-8
-0.029, 2.939e-8
-0.030, 2.908e-8
-0.031, 2.868e-8
-0.032, 2.853e-8
-0.033, 2.850e-8
-0.034, 2.819e-8
-0.035, 2.779e-8
-0.036, 2.763e-8
-0.037, 2.760e-8
-0.038, 2.739e-8
-0.039, 2.696e-8
-0.040, 2.674e-8
-0.041, 2.677e-8
-0.042, 2.659e-8
-0.043, 2.622e-8
-0.044, 2.594e-8
-0.045, 2.594e-8
-0.046, 2.585e-8
-0.047, 2.551e-8
-0.048, 2.520e-8
-0.049, 2.520e-8
-0.050, 2.514e-8
-0.051, 2.480e-8
-0.052, 2.453e-8
-0.053, 2.447e-8
-0.054, 2.447e-8
-0.055, 2.419e-8
-0.056, 2.385e-8
-0.057, 2.379e-8
-0.058, 2.382e-8
-0.059, 2.357e-8
-0.060, 2.327e-8
-0.061, 2.311e-8
-0.062, 2.317e-8
-0.063, 2.305e-8
-0.064, 2.268e-8
-0.065, 2.256e-8
-0.066, 2.259e-8
-0.067, 2.250e-8
-0.068, 2.219e-8
-0.069, 2.197e-8
-0.070, 2.203e-8
-0.071, 2.197e-8
-0.072, 2.170e-8
-0.073, 2.148e-8
-0.074, 2.151e-8
-0.075, 2.151e-8
-0.076, 2.123e-8
-0.077, 2.099e-8
-0.078, 2.099e-8
-0.079, 2.105e-8
-0.080, 2.080e-8
-0.081, 2.053e-8
-0.082, 2.050e-8
-0.083, 2.059e-8
-0.084, 2.040e-8
-0.085, 2.010e-8
-0.086, 2.003e-8
-0.087, 2.016e-8
-0.088, 2.003e-8
-0.089, 1.976e-8
-0.090, 1.960e-8
-0.091, 1.970e-8
-0.092, 1.967e-8
-0.093, 1.936e-8
-0.094, 1.923e-8
-0.095, 1.933e-8
-0.096, 1.930e-8
-0.097, 1.908e-8
-0.098, 1.884e-8
-0.099, 1.893e-8
-0.100, 1.896e-8
-0.101, 1.871e-8
-0.102, 1.853e-8
-0.103, 1.856e-8
-0.104, 1.862e-8
-0.105, 1.847e-8
-0.106, 1.819e-8
-0.107, 1.822e-8
-0.108, 1.831e-8
-0.109, 1.816e-8
-0.110, 1.791e-8
-0.111, 1.785e-8
-0.112, 1.800e-8
-0.113, 1.791e-8
-0.114, 1.764e-8
-0.115, 1.757e-8
-0.116, 1.767e-8
-0.117, 1.764e-8
-0.118, 1.739e-8
-0.119, 1.727e-8
-0.120, 1.739e-8
-0.121, 1.739e-8
-0.122, 1.717e-8
-0.123, 1.699e-8
-0.124, 1.711e-8
-0.125, 1.714e-8
-0.126, 1.696e-8
-0.127, 1.677e-8
-0.128, 1.680e-8
-0.129, 1.693e-8
-0.130, 1.674e-8
-0.131, 1.650e-8
-0.132, 1.656e-8
-0.133, 1.665e-8
-0.134, 1.656e-8
-0.135, 1.631e-8
-0.136, 1.625e-8
-0.137, 1.647e-8
-0.138, 1.634e-8
-0.139, 1.610e-8
-0.140, 1.607e-8
-0.141, 1.619e-8
-0.142, 1.619e-8
-0.143, 1.594e-8
-0.144, 1.582e-8
-0.145, 1.597e-8
-0.146, 1.597e-8
-0.147, 1.579e-8
-0.148, 1.564e-8
-0.149, 1.573e-8
-0.150, 1.585e-8
-0.151, 1.564e-8
-0.152, 1.545e-8
-0.153, 1.554e-8
-0.154, 1.567e-8
-0.155, 1.551e-8
-0.156, 1.527e-8
-0.157, 1.533e-8
-0.158, 1.548e-8
-0.159, 1.539e-8
-0.160, 1.514e-8
-0.161, 1.514e-8
-0.162, 1.530e-8
-0.163, 1.524e-8
-0.164, 1.502e-8
-0.165, 1.496e-8
-0.166, 1.511e-8
-0.167, 1.514e-8
-0.168, 1.490e-8
-0.169, 1.484e-8
-0.170, 1.496e-8
-0.171, 1.499e-8
-0.172, 1.480e-8
-0.173, 1.465e-8
-0.174, 1.480e-8
-0.175, 1.490e-8
-0.176, 1.471e-8
-0.177, 1.456e-8
-0.178, 1.462e-8
-0.179, 1.477e-8
-0.180, 1.465e-8
-0.181, 1.440e-8
-0.182, 1.450e-8
-0.183, 1.465e-8
-0.184, 1.456e-8
-0.185, 1.434e-8
-0.186, 1.434e-8
-0.187, 1.453e-8
-0.188, 1.447e-8
-0.189, 1.425e-8
-0.190, 1.422e-8
-0.191, 1.440e-8
-0.192, 1.440e-8
-0.193, 1.419e-8
-0.194, 1.413e-8
-0.195, 1.428e-8
-0.196, 1.431e-8
-0.197, 1.413e-8
-0.198, 1.400e-8
-0.199, 1.416e-8
