Mar. 16, 2023   09:50:08
Cyclic Voltammetry
File: c:/users/oliverrz/desktop/electrolab/data/2023_03_16\fcmeoh_macros_750_um\electrode6_cv_200mvs_750_um.bin
Data Source:  Experiment
Instrument Model:  CHI760E
Header: CV
Note: 

Init E (V) = -0.2
High E (V) = 0.3
Low E (V) = -0.2
Final E (V) = -0.2
Init P/N = P
Scan Rate (V/s) = 0.2
Segment = 3
Sample Interval (V) = 0.001
Quiet Time (sec) = 2
Sensitivity (A/V) = 1e-7

Results:

Channel 1:
Segment 1:
Ep = 0.108V
ip = -6.996e-8A
Ah = -2.123e-8C

Segment 2:
Ep = 0.050V
ip = 6.375e-8A
Ah = 1.928e-8C

Segment 3:

Potential/V, Current/A

-0.200, 2.666e-9
-0.199, 1.930e-9
-0.198, 1.933e-9
-0.197, 2.045e-9
-0.196, 1.838e-9
-0.195, 1.738e-9
-0.194, 1.933e-9
-0.193, 1.804e-9
-0.192, 1.628e-9
-0.191, 1.766e-9
-0.190, 1.796e-9
-0.189, 1.571e-9
-0.188, 1.618e-9
-0.187, 1.753e-9
-0.186, 1.579e-9
-0.185, 1.466e-9
-0.184, 1.685e-9
-0.183, 1.572e-9
-0.182, 1.388e-9
-0.181, 1.552e-9
-0.180, 1.579e-9
-0.179, 1.344e-9
-0.178, 1.417e-9
-0.177, 1.537e-9
-0.176, 1.369e-9
-0.175, 1.284e-9
-0.174, 1.483e-9
-0.173, 1.385e-9
-0.172, 1.211e-9
-0.171, 1.358e-9
-0.170, 1.412e-9
-0.169, 1.163e-9
-0.168, 1.250e-9
-0.167, 1.374e-9
-0.166, 1.190e-9
-0.165, 1.119e-9
-0.164, 1.321e-9
-0.163, 1.222e-9
-0.162, 1.057e-9
-0.161, 1.195e-9
-0.160, 1.254e-9
-0.159, 1.021e-9
-0.158, 1.086e-9
-0.157, 1.230e-9
-0.156, 1.043e-9
-0.155, 9.664e-10
-0.154, 1.181e-9
-0.153, 1.063e-9
-0.152, 9.110e-10
-0.151, 1.060e-9
-0.150, 1.107e-9
-0.149, 8.794e-10
-0.148, 9.505e-10
-0.147, 1.089e-9
-0.146, 9.139e-10
-0.145, 8.195e-10
-0.144, 1.050e-9
-0.143, 9.434e-10
-0.142, 7.713e-10
-0.141, 9.291e-10
-0.140, 9.784e-10
-0.139, 7.412e-10
-0.138, 8.304e-10
-0.137, 9.532e-10
-0.136, 7.899e-10
-0.135, 7.077e-10
-0.134, 9.138e-10
-0.133, 8.193e-10
-0.132, 6.456e-10
-0.131, 8.084e-10
-0.130, 8.593e-10
-0.129, 6.225e-10
-0.128, 6.948e-10
-0.127, 8.361e-10
-0.126, 6.546e-10
-0.125, 5.857e-10
-0.124, 7.918e-10
-0.123, 6.969e-10
-0.122, 5.295e-10
-0.121, 6.793e-10
-0.120, 7.411e-10
-0.119, 5.041e-10
-0.118, 5.761e-10
-0.117, 7.218e-10
-0.116, 5.372e-10
-0.115, 4.581e-10
-0.114, 6.852e-10
-0.113, 5.612e-10
-0.112, 4.144e-10
-0.111, 5.699e-10
-0.110, 6.095e-10
-0.109, 3.870e-10
-0.108, 4.556e-10
-0.107, 5.962e-10
-0.106, 4.214e-10
-0.105, 3.331e-10
-0.104, 5.564e-10
-0.103, 4.448e-10
-0.102, 2.736e-10
-0.101, 4.406e-10
-0.100, 4.832e-10
-0.099, 2.506e-10
-0.098, 3.279e-10
-0.097, 4.537e-10
-0.096, 2.903e-10
-0.095, 2.015e-10
-0.094, 4.135e-10
-0.093, 3.150e-10
-0.092, 1.378e-10
-0.091, 2.963e-10
-0.090, 3.427e-10
-0.089, 9.709e-11
-0.088, 1.842e-10
-0.087, 3.128e-10
-0.086, 1.256e-10
-0.085, 5.486e-11
-0.084, 2.550e-10
-0.083, 1.501e-10
-0.082, -1.248e-11
-0.081, 1.271e-10
-0.080, 1.730e-10
-0.079, -6.102e-11
-0.078, 2.579e-12
-0.077, 1.271e-10
-0.076, -5.836e-11
-0.075, -1.346e-10
-0.074, 6.992e-11
-0.073, -5.846e-11
-0.072, -2.171e-10
-0.071, -6.919e-11
-0.070, -4.773e-11
-0.069, -2.753e-10
-0.068, -2.215e-10
-0.067, -9.301e-11
-0.066, -2.808e-10
-0.065, -3.840e-10
-0.064, -1.778e-10
-0.063, -2.998e-10
-0.062, -4.873e-10
-0.061, -3.359e-10
-0.060, -3.172e-10
-0.059, -5.677e-10
-0.058, -5.020e-10
-0.057, -4.064e-10
-0.056, -5.892e-10
-0.055, -6.941e-10
-0.054, -5.182e-10
-0.053, -6.327e-10
-0.052, -8.405e-10
-0.051, -7.089e-10
-0.050, -6.874e-10
-0.049, -9.676e-10
-0.048, -9.075e-10
-0.047, -8.092e-10
-0.046, -1.027e-9
-0.045, -1.132e-9
-0.044, -9.726e-10
-0.043, -1.107e-9
-0.042, -1.313e-9
-0.041, -1.214e-9
-0.040, -1.199e-9
-0.039, -1.494e-9
-0.038, -1.470e-9
-0.037, -1.377e-9
-0.036, -1.622e-9
-0.035, -1.744e-9
-0.034, -1.598e-9
-0.033, -1.787e-9
-0.032, -1.986e-9
-0.031, -1.909e-9
-0.030, -1.951e-9
-0.029, -2.234e-9
-0.028, -2.254e-9
-0.027, -2.196e-9
-0.026, -2.461e-9
-0.025, -2.628e-9
-0.024, -2.501e-9
-0.023, -2.706e-9
-0.022, -2.968e-9
-0.021, -2.910e-9
-0.020, -2.984e-9
-0.019, -3.316e-9
-0.018, -3.358e-9
-0.017, -3.367e-9
-0.016, -3.631e-9
-0.015, -3.849e-9
-0.014, -3.783e-9
-0.013, -4.030e-9
-0.012, -4.342e-9
-0.011, -4.329e-9
-0.010, -4.451e-9
-0.009, -4.851e-9
-0.008, -4.927e-9
-0.007, -4.982e-9
-0.006, -5.344e-9
-0.005, -5.607e-9
-0.004, -5.605e-9
-0.003, -5.902e-9
-0.002, -6.278e-9
-0.001, -6.365e-9
-0.000, -6.637e-9
0.001, -7.040e-9
0.002, -7.203e-9
0.003, -7.325e-9
0.004, -7.779e-9
0.005, -8.116e-9
0.006, -8.184e-9
0.007, -8.611e-9
0.008, -9.034e-9
0.009, -9.213e-9
0.010, -9.498e-9
0.011, -1.003e-8
0.012, -1.034e-8
0.013, -1.056e-8
0.014, -1.109e-8
0.015, -1.156e-8
0.016, -1.174e-8
0.017, -1.226e-8
0.018, -1.282e-8
0.019, -1.309e-8
0.020, -1.353e-8
0.021, -1.419e-8
0.022, -1.458e-8
0.023, -1.497e-8
0.024, -1.562e-8
0.025, -1.622e-8
0.026, -1.656e-8
0.027, -1.720e-8
0.028, -1.792e-8
0.029, -1.833e-8
0.030, -1.889e-8
0.031, -1.972e-8
0.032, -2.023e-8
0.033, -2.077e-8
0.034, -2.158e-8
0.035, -2.229e-8
0.036, -2.280e-8
0.037, -2.358e-8
0.038, -2.444e-8
0.039, -2.506e-8
0.040, -2.574e-8
0.041, -2.671e-8
0.042, -2.739e-8
0.043, -2.805e-8
0.044, -2.903e-8
0.045, -2.989e-8
0.046, -3.051e-8
0.047, -3.151e-8
0.048, -3.242e-8
0.049, -3.317e-8
0.050, -3.404e-8
0.051, -3.509e-8
0.052, -3.593e-8
0.053, -3.670e-8
0.054, -3.775e-8
0.055, -3.875e-8
0.056, -3.946e-8
0.057, -4.051e-8
0.058, -4.155e-8
0.059, -4.234e-8
0.060, -4.329e-8
0.061, -4.434e-8
0.062, -4.524e-8
0.063, -4.611e-8
0.064, -4.716e-8
0.065, -4.818e-8
0.066, -4.892e-8
0.067, -4.993e-8
0.068, -5.098e-8
0.069, -5.171e-8
0.070, -5.260e-8
0.071, -5.371e-8
0.072, -5.446e-8
0.073, -5.527e-8
0.074, -5.625e-8
0.075, -5.711e-8
0.076, -5.778e-8
0.077, -5.871e-8
0.078, -5.960e-8
0.079, -6.027e-8
0.080, -6.093e-8
0.081, -6.185e-8
0.082, -6.248e-8
0.083, -6.303e-8
0.084, -6.389e-8
0.085, -6.451e-8
0.086, -6.495e-8
0.087, -6.567e-8
0.088, -6.629e-8
0.089, -6.669e-8
0.090, -6.723e-8
0.091, -6.783e-8
0.092, -6.824e-8
0.093, -6.852e-8
0.094, -6.907e-8
0.095, -6.951e-8
0.096, -6.961e-8
0.097, -7.007e-8
0.098, -7.048e-8
0.099, -7.058e-8
0.100, -7.080e-8
0.101, -7.117e-8
0.102, -7.130e-8
0.103, -7.137e-8
0.104, -7.160e-8
0.105, -7.177e-8
0.106, -7.167e-8
0.107, -7.180e-8
0.108, -7.197e-8
0.109, -7.182e-8
0.110, -7.179e-8
0.111, -7.194e-8
0.112, -7.178e-8
0.113, -7.162e-8
0.114, -7.167e-8
0.115, -7.164e-8
0.116, -7.131e-8
0.117, -7.127e-8
0.118, -7.123e-8
0.119, -7.094e-8
0.120, -7.067e-8
0.121, -7.068e-8
0.122, -7.040e-8
0.123, -7.002e-8
0.124, -6.998e-8
0.125, -6.974e-8
0.126, -6.929e-8
0.127, -6.916e-8
0.128, -6.900e-8
0.129, -6.856e-8
0.130, -6.823e-8
0.131, -6.812e-8
0.132, -6.775e-8
0.133, -6.730e-8
0.134, -6.713e-8
0.135, -6.692e-8
0.136, -6.636e-8
0.137, -6.615e-8
0.138, -6.596e-8
0.139, -6.546e-8
0.140, -6.511e-8
0.141, -6.495e-8
0.142, -6.454e-8
0.143, -6.409e-8
0.144, -6.389e-8
0.145, -6.363e-8
0.146, -6.307e-8
0.147, -6.282e-8
0.148, -6.264e-8
0.149, -6.213e-8
0.150, -6.174e-8
0.151, -6.162e-8
0.152, -6.120e-8
0.153, -6.074e-8
0.154, -6.058e-8
0.155, -6.030e-8
0.156, -5.977e-8
0.157, -5.954e-8
0.158, -5.935e-8
0.159, -5.890e-8
0.160, -5.851e-8
0.161, -5.842e-8
0.162, -5.803e-8
0.163, -5.757e-8
0.164, -5.744e-8
0.165, -5.720e-8
0.166, -5.668e-8
0.167, -5.650e-8
0.168, -5.634e-8
0.169, -5.589e-8
0.170, -5.556e-8
0.171, -5.548e-8
0.172, -5.513e-8
0.173, -5.470e-8
0.174, -5.459e-8
0.175, -5.440e-8
0.176, -5.390e-8
0.177, -5.373e-8
0.178, -5.364e-8
0.179, -5.321e-8
0.180, -5.292e-8
0.181, -5.287e-8
0.182, -5.254e-8
0.183, -5.217e-8
0.184, -5.209e-8
0.185, -5.192e-8
0.186, -5.148e-8
0.187, -5.133e-8
0.188, -5.127e-8
0.189, -5.088e-8
0.190, -5.060e-8
0.191, -5.063e-8
0.192, -5.031e-8
0.193, -4.996e-8
0.194, -4.993e-8
0.195, -4.978e-8
0.196, -4.937e-8
0.197, -4.926e-8
0.198, -4.922e-8
0.199, -4.887e-8
0.200, -4.861e-8
0.201, -4.865e-8
0.202, -4.839e-8
0.203, -4.804e-8
0.204, -4.805e-8
0.205, -4.795e-8
0.206, -4.754e-8
0.207, -4.747e-8
0.208, -4.744e-8
0.209, -4.712e-8
0.210, -4.691e-8
0.211, -4.695e-8
0.212, -4.671e-8
0.213, -4.640e-8
0.214, -4.640e-8
0.215, -4.634e-8
0.216, -4.595e-8
0.217, -4.590e-8
0.218, -4.592e-8
0.219, -4.559e-8
0.220, -4.541e-8
0.221, -4.548e-8
0.222, -4.525e-8
0.223, -4.499e-8
0.224, -4.500e-8
0.225, -4.494e-8
0.226, -4.460e-8
0.227, -4.455e-8
0.228, -4.459e-8
0.229, -4.429e-8
0.230, -4.411e-8
0.231, -4.422e-8
0.232, -4.400e-8
0.233, -4.375e-8
0.234, -4.380e-8
0.235, -4.375e-8
0.236, -4.342e-8
0.237, -4.340e-8
0.238, -4.344e-8
0.239, -4.318e-8
0.240, -4.300e-8
0.241, -4.312e-8
0.242, -4.293e-8
0.243, -4.269e-8
0.244, -4.275e-8
0.245, -4.272e-8
0.246, -4.239e-8
0.247, -4.240e-8
0.248, -4.244e-8
0.249, -4.219e-8
0.250, -4.204e-8
0.251, -4.217e-8
0.252, -4.200e-8
0.253, -4.176e-8
0.254, -4.183e-8
0.255, -4.182e-8
0.256, -4.150e-8
0.257, -4.152e-8
0.258, -4.159e-8
0.259, -4.133e-8
0.260, -4.120e-8
0.261, -4.134e-8
0.262, -4.117e-8
0.263, -4.096e-8
0.264, -4.103e-8
0.265, -4.103e-8
0.266, -4.074e-8
0.267, -4.075e-8
0.268, -4.084e-8
0.269, -4.060e-8
0.270, -4.046e-8
0.271, -4.063e-8
0.272, -4.046e-8
0.273, -4.025e-8
0.274, -4.035e-8
0.275, -4.034e-8
0.276, -4.006e-8
0.277, -4.009e-8
0.278, -4.017e-8
0.279, -3.996e-8
0.280, -3.983e-8
0.281, -3.999e-8
0.282, -3.986e-8
0.283, -3.964e-8
0.284, -3.975e-8
0.285, -3.976e-8
0.286, -3.948e-8
0.287, -3.952e-8
0.288, -3.960e-8
0.289, -3.939e-8
0.290, -3.928e-8
0.291, -3.944e-8
0.292, -3.932e-8
0.293, -3.912e-8
0.294, -3.922e-8
0.295, -3.926e-8
0.296, -3.897e-8
0.297, -3.902e-8
0.298, -3.913e-8
0.299, -3.892e-8
0.300, -3.716e-8
0.299, -3.612e-8
0.298, -3.577e-8
0.297, -3.540e-8
0.296, -3.540e-8
0.295, -3.529e-8
0.294, -3.492e-8
0.293, -3.488e-8
0.292, -3.489e-8
0.291, -3.461e-8
0.290, -3.443e-8
0.289, -3.452e-8
0.288, -3.432e-8
0.287, -3.407e-8
0.286, -3.413e-8
0.285, -3.410e-8
0.284, -3.376e-8
0.283, -3.377e-8
0.282, -3.382e-8
0.281, -3.355e-8
0.280, -3.342e-8
0.279, -3.354e-8
0.278, -3.336e-8
0.277, -3.314e-8
0.276, -3.321e-8
0.275, -3.320e-8
0.274, -3.289e-8
0.273, -3.290e-8
0.272, -3.298e-8
0.271, -3.272e-8
0.270, -3.259e-8
0.269, -3.273e-8
0.268, -3.256e-8
0.267, -3.236e-8
0.266, -3.244e-8
0.265, -3.243e-8
0.264, -3.214e-8
0.263, -3.216e-8
0.262, -3.224e-8
0.261, -3.201e-8
0.260, -3.186e-8
0.259, -3.204e-8
0.258, -3.187e-8
0.257, -3.165e-8
0.256, -3.175e-8
0.255, -3.175e-8
0.254, -3.147e-8
0.253, -3.149e-8
0.252, -3.156e-8
0.251, -3.134e-8
0.250, -3.122e-8
0.249, -3.137e-8
0.248, -3.122e-8
0.247, -3.100e-8
0.246, -3.111e-8
0.245, -3.111e-8
0.244, -3.080e-8
0.243, -3.085e-8
0.242, -3.093e-8
0.241, -3.070e-8
0.240, -3.058e-8
0.239, -3.073e-8
0.238, -3.058e-8
0.237, -3.037e-8
0.236, -3.046e-8
0.235, -3.048e-8
0.234, -3.019e-8
0.233, -3.021e-8
0.232, -3.031e-8
0.231, -3.007e-8
0.230, -2.995e-8
0.229, -3.010e-8
0.228, -2.994e-8
0.227, -2.974e-8
0.226, -2.984e-8
0.225, -2.983e-8
0.224, -2.955e-8
0.223, -2.956e-8
0.222, -2.965e-8
0.221, -2.942e-8
0.220, -2.928e-8
0.219, -2.945e-8
0.218, -2.928e-8
0.217, -2.906e-8
0.216, -2.917e-8
0.215, -2.915e-8
0.214, -2.886e-8
0.213, -2.889e-8
0.212, -2.894e-8
0.211, -2.872e-8
0.210, -2.858e-8
0.209, -2.871e-8
0.208, -2.855e-8
0.207, -2.832e-8
0.206, -2.840e-8
0.205, -2.838e-8
0.204, -2.807e-8
0.203, -2.809e-8
0.202, -2.815e-8
0.201, -2.788e-8
0.200, -2.775e-8
0.199, -2.786e-8
0.198, -2.768e-8
0.197, -2.745e-8
0.196, -2.749e-8
0.195, -2.748e-8
0.194, -2.714e-8
0.193, -2.713e-8
0.192, -2.717e-8
0.191, -2.689e-8
0.190, -2.673e-8
0.189, -2.683e-8
0.188, -2.660e-8
0.187, -2.636e-8
0.186, -2.638e-8
0.185, -2.632e-8
0.184, -2.597e-8
0.183, -2.593e-8
0.182, -2.592e-8
0.181, -2.563e-8
0.180, -2.541e-8
0.179, -2.548e-8
0.178, -2.523e-8
0.177, -2.494e-8
0.176, -2.493e-8
0.175, -2.483e-8
0.174, -2.444e-8
0.173, -2.436e-8
0.172, -2.431e-8
0.171, -2.397e-8
0.170, -2.371e-8
0.169, -2.372e-8
0.168, -2.343e-8
0.167, -2.308e-8
0.166, -2.302e-8
0.165, -2.285e-8
0.164, -2.239e-8
0.163, -2.226e-8
0.162, -2.215e-8
0.161, -2.173e-8
0.160, -2.142e-8
0.159, -2.136e-8
0.158, -2.100e-8
0.157, -2.057e-8
0.156, -2.043e-8
0.155, -2.021e-8
0.154, -1.966e-8
0.153, -1.942e-8
0.152, -1.925e-8
0.151, -1.874e-8
0.150, -1.836e-8
0.149, -1.820e-8
0.148, -1.771e-8
0.147, -1.721e-8
0.146, -1.697e-8
0.145, -1.663e-8
0.144, -1.600e-8
0.143, -1.566e-8
0.142, -1.536e-8
0.141, -1.473e-8
0.140, -1.420e-8
0.139, -1.393e-8
0.138, -1.335e-8
0.137, -1.271e-8
0.136, -1.236e-8
0.135, -1.185e-8
0.134, -1.111e-8
0.133, -1.065e-8
0.132, -1.017e-8
0.131, -9.469e-9
0.130, -8.792e-9
0.129, -8.342e-9
0.128, -7.626e-9
0.127, -6.816e-9
0.126, -6.352e-9
0.125, -5.705e-9
0.124, -4.790e-9
0.123, -4.186e-9
0.122, -3.593e-9
0.121, -2.694e-9
0.120, -1.928e-9
0.119, -1.318e-9
0.118, -4.904e-10
0.117, 4.513e-10
0.116, 1.157e-9
0.115, 1.906e-9
0.114, 2.944e-9
0.113, 3.695e-9
0.112, 4.409e-9
0.111, 5.466e-9
0.110, 6.360e-9
0.109, 7.082e-9
0.108, 8.092e-9
0.107, 9.072e-9
0.106, 9.876e-9
0.105, 1.074e-8
0.104, 1.187e-8
0.103, 1.276e-8
0.102, 1.356e-8
0.101, 1.464e-8
0.100, 1.566e-8
0.099, 1.638e-8
0.098, 1.745e-8
0.097, 1.851e-8
0.096, 1.927e-8
0.095, 2.023e-8
0.094, 2.132e-8
0.093, 2.215e-8
0.092, 2.303e-8
0.091, 2.406e-8
0.090, 2.504e-8
0.089, 2.578e-8
0.088, 2.672e-8
0.087, 2.775e-8
0.086, 2.844e-8
0.085, 2.925e-8
0.084, 3.034e-8
0.083, 3.097e-8
0.082, 3.173e-8
0.081, 3.269e-8
0.080, 3.342e-8
0.079, 3.410e-8
0.078, 3.486e-8
0.077, 3.570e-8
0.076, 3.626e-8
0.075, 3.683e-8
0.074, 3.769e-8
0.073, 3.819e-8
0.072, 3.866e-8
0.071, 3.939e-8
0.070, 3.993e-8
0.069, 4.028e-8
0.068, 4.087e-8
0.067, 4.137e-8
0.066, 4.170e-8
0.065, 4.207e-8
0.064, 4.262e-8
0.063, 4.291e-8
0.062, 4.308e-8
0.061, 4.351e-8
0.060, 4.383e-8
0.059, 4.388e-8
0.058, 4.417e-8
0.057, 4.448e-8
0.056, 4.449e-8
0.055, 4.462e-8
0.054, 4.490e-8
0.053, 4.491e-8
0.052, 4.489e-8
0.051, 4.507e-8
0.050, 4.513e-8
0.049, 4.497e-8
0.048, 4.500e-8
0.047, 4.511e-8
0.046, 4.491e-8
0.045, 4.477e-8
0.044, 4.491e-8
0.043, 4.467e-8
0.042, 4.444e-8
0.041, 4.446e-8
0.040, 4.432e-8
0.039, 4.401e-8
0.038, 4.390e-8
0.037, 4.382e-8
0.036, 4.350e-8
0.035, 4.320e-8
0.034, 4.318e-8
0.033, 4.287e-8
0.032, 4.248e-8
0.031, 4.241e-8
0.030, 4.217e-8
0.029, 4.171e-8
0.028, 4.154e-8
0.027, 4.138e-8
0.026, 4.096e-8
0.025, 4.061e-8
0.024, 4.052e-8
0.023, 4.014e-8
0.022, 3.967e-8
0.021, 3.953e-8
0.020, 3.929e-8
0.019, 3.875e-8
0.018, 3.854e-8
0.017, 3.836e-8
0.016, 3.788e-8
0.015, 3.754e-8
0.014, 3.742e-8
0.013, 3.701e-8
0.012, 3.657e-8
0.011, 3.639e-8
0.010, 3.613e-8
0.009, 3.563e-8
0.008, 3.539e-8
0.007, 3.523e-8
0.006, 3.475e-8
0.005, 3.438e-8
0.004, 3.431e-8
0.003, 3.388e-8
0.002, 3.346e-8
0.001, 3.333e-8
0.000, 3.316e-8
-0.001, 3.260e-8
-0.002, 3.239e-8
-0.003, 3.222e-8
-0.004, 3.178e-8
-0.005, 3.142e-8
-0.006, 3.136e-8
-0.007, 3.099e-8
-0.008, 3.056e-8
-0.009, 3.046e-8
-0.010, 3.024e-8
-0.011, 2.976e-8
-0.012, 2.960e-8
-0.013, 2.948e-8
-0.014, 2.905e-8
-0.015, 2.875e-8
-0.016, 2.870e-8
-0.017, 2.838e-8
-0.018, 2.798e-8
-0.019, 2.791e-8
-0.020, 2.773e-8
-0.021, 2.728e-8
-0.022, 2.713e-8
-0.023, 2.706e-8
-0.024, 2.666e-8
-0.025, 2.640e-8
-0.026, 2.639e-8
-0.027, 2.608e-8
-0.028, 2.573e-8
-0.029, 2.568e-8
-0.030, 2.552e-8
-0.031, 2.512e-8
-0.032, 2.499e-8
-0.033, 2.496e-8
-0.034, 2.459e-8
-0.035, 2.433e-8
-0.036, 2.438e-8
-0.037, 2.408e-8
-0.038, 2.375e-8
-0.039, 2.375e-8
-0.040, 2.361e-8
-0.041, 2.323e-8
-0.042, 2.314e-8
-0.043, 2.312e-8
-0.044, 2.279e-8
-0.045, 2.256e-8
-0.046, 2.262e-8
-0.047, 2.238e-8
-0.048, 2.205e-8
-0.049, 2.209e-8
-0.050, 2.197e-8
-0.051, 2.162e-8
-0.052, 2.156e-8
-0.053, 2.156e-8
-0.054, 2.124e-8
-0.055, 2.105e-8
-0.056, 2.112e-8
-0.057, 2.091e-8
-0.058, 2.060e-8
-0.059, 2.065e-8
-0.060, 2.057e-8
-0.061, 2.022e-8
-0.062, 2.018e-8
-0.063, 2.022e-8
-0.064, 1.991e-8
-0.065, 1.974e-8
-0.066, 1.983e-8
-0.067, 1.962e-8
-0.068, 1.936e-8
-0.069, 1.941e-8
-0.070, 1.934e-8
-0.071, 1.904e-8
-0.072, 1.899e-8
-0.073, 1.905e-8
-0.074, 1.876e-8
-0.075, 1.860e-8
-0.076, 1.873e-8
-0.077, 1.853e-8
-0.078, 1.827e-8
-0.079, 1.835e-8
-0.080, 1.829e-8
-0.081, 1.800e-8
-0.082, 1.798e-8
-0.083, 1.804e-8
-0.084, 1.778e-8
-0.085, 1.762e-8
-0.086, 1.775e-8
-0.087, 1.758e-8
-0.088, 1.732e-8
-0.089, 1.744e-8
-0.090, 1.738e-8
-0.091, 1.709e-8
-0.092, 1.710e-8
-0.093, 1.716e-8
-0.094, 1.690e-8
-0.095, 1.678e-8
-0.096, 1.691e-8
-0.097, 1.676e-8
-0.098, 1.651e-8
-0.099, 1.661e-8
-0.100, 1.659e-8
-0.101, 1.630e-8
-0.102, 1.631e-8
-0.103, 1.641e-8
-0.104, 1.614e-8
-0.105, 1.603e-8
-0.106, 1.616e-8
-0.107, 1.602e-8
-0.108, 1.579e-8
-0.109, 1.590e-8
-0.110, 1.588e-8
-0.111, 1.562e-8
-0.112, 1.562e-8
-0.113, 1.573e-8
-0.114, 1.548e-8
-0.115, 1.537e-8
-0.116, 1.553e-8
-0.117, 1.538e-8
-0.118, 1.515e-8
-0.119, 1.529e-8
-0.120, 1.526e-8
-0.121, 1.502e-8
-0.122, 1.503e-8
-0.123, 1.513e-8
-0.124, 1.491e-8
-0.125, 1.479e-8
-0.126, 1.495e-8
-0.127, 1.483e-8
-0.128, 1.461e-8
-0.129, 1.474e-8
-0.130, 1.473e-8
-0.131, 1.448e-8
-0.132, 1.452e-8
-0.133, 1.462e-8
-0.134, 1.439e-8
-0.135, 1.431e-8
-0.136, 1.445e-8
-0.137, 1.434e-8
-0.138, 1.413e-8
-0.139, 1.427e-8
-0.140, 1.427e-8
-0.141, 1.402e-8
-0.142, 1.405e-8
-0.143, 1.418e-8
-0.144, 1.394e-8
-0.145, 1.387e-8
-0.146, 1.403e-8
-0.147, 1.390e-8
-0.148, 1.371e-8
-0.149, 1.385e-8
-0.150, 1.385e-8
-0.151, 1.361e-8
-0.152, 1.364e-8
-0.153, 1.378e-8
-0.154, 1.356e-8
-0.155, 1.347e-8
-0.156, 1.365e-8
-0.157, 1.353e-8
-0.158, 1.333e-8
-0.159, 1.349e-8
-0.160, 1.349e-8
-0.161, 1.327e-8
-0.162, 1.330e-8
-0.163, 1.342e-8
-0.164, 1.322e-8
-0.165, 1.314e-8
-0.166, 1.332e-8
-0.167, 1.322e-8
-0.168, 1.301e-8
-0.169, 1.318e-8
-0.170, 1.318e-8
-0.171, 1.295e-8
-0.172, 1.301e-8
-0.173, 1.313e-8
-0.174, 1.292e-8
-0.175, 1.286e-8
-0.176, 1.303e-8
-0.177, 1.294e-8
-0.178, 1.274e-8
-0.179, 1.290e-8
-0.180, 1.293e-8
-0.181, 1.269e-8
-0.182, 1.274e-8
-0.183, 1.289e-8
-0.184, 1.267e-8
-0.185, 1.262e-8
-0.186, 1.279e-8
-0.187, 1.270e-8
-0.188, 1.252e-8
-0.189, 1.267e-8
-0.190, 1.269e-8
-0.191, 1.248e-8
-0.192, 1.253e-8
-0.193, 1.268e-8
-0.194, 1.247e-8
-0.195, 1.240e-8
-0.196, 1.260e-8
-0.197, 1.250e-8
-0.198, 1.231e-8
-0.199, 1.250e-8
