Mar. 16, 2023   09:48:09
Cyclic Voltammetry
File: c:/users/oliverrz/desktop/electrolab/data/2023_03_16\fcmeoh_macros_750_um\electrode5_cv_50mvs_750_um.bin
Data Source:  Experiment
Instrument Model:  CHI760E
Header: CV
Note: 

Init E (V) = -0.2
High E (V) = 0.3
Low E (V) = -0.2
Final E (V) = -0.2
Init P/N = P
Scan Rate (V/s) = 0.05
Segment = 3
Sample Interval (V) = 0.001
Quiet Time (sec) = 2
Sensitivity (A/V) = 1e-7

Results:

Channel 1:
Segment 1:
Ep = 0.113V
ip = -3.504e-8A
Ah = -4.544e-8C

Segment 2:
Ep = 0.040V
ip = 3.451e-8A
Ah = 4.483e-8C

Segment 3:

Potential/V, Current/A

-0.200, 7.964e-9
-0.199, 7.396e-9
-0.198, 7.183e-9
-0.197, 7.047e-9
-0.196, 6.926e-9
-0.195, 6.819e-9
-0.194, 6.702e-9
-0.193, 6.600e-9
-0.192, 6.503e-9
-0.191, 6.409e-9
-0.190, 6.316e-9
-0.189, 6.221e-9
-0.188, 6.127e-9
-0.187, 6.045e-9
-0.186, 5.957e-9
-0.185, 5.874e-9
-0.184, 5.789e-9
-0.183, 5.701e-9
-0.182, 5.627e-9
-0.181, 5.547e-9
-0.180, 5.464e-9
-0.179, 5.386e-9
-0.178, 5.310e-9
-0.177, 5.238e-9
-0.176, 5.170e-9
-0.175, 5.094e-9
-0.174, 5.022e-9
-0.173, 4.951e-9
-0.172, 4.883e-9
-0.171, 4.820e-9
-0.170, 4.748e-9
-0.169, 4.680e-9
-0.168, 4.614e-9
-0.167, 4.549e-9
-0.166, 4.486e-9
-0.165, 4.425e-9
-0.164, 4.362e-9
-0.163, 4.305e-9
-0.162, 4.246e-9
-0.161, 4.188e-9
-0.160, 4.132e-9
-0.159, 4.070e-9
-0.158, 4.013e-9
-0.157, 3.959e-9
-0.156, 3.904e-9
-0.155, 3.852e-9
-0.154, 3.788e-9
-0.153, 3.735e-9
-0.152, 3.688e-9
-0.151, 3.633e-9
-0.150, 3.588e-9
-0.149, 3.534e-9
-0.148, 3.481e-9
-0.147, 3.438e-9
-0.146, 3.388e-9
-0.145, 3.341e-9
-0.144, 3.291e-9
-0.143, 3.240e-9
-0.142, 3.200e-9
-0.141, 3.154e-9
-0.140, 3.106e-9
-0.139, 3.062e-9
-0.138, 3.016e-9
-0.137, 2.977e-9
-0.136, 2.938e-9
-0.135, 2.892e-9
-0.134, 2.848e-9
-0.133, 2.805e-9
-0.132, 2.765e-9
-0.131, 2.730e-9
-0.130, 2.687e-9
-0.129, 2.645e-9
-0.128, 2.605e-9
-0.127, 2.567e-9
-0.126, 2.535e-9
-0.125, 2.496e-9
-0.124, 2.455e-9
-0.123, 2.420e-9
-0.122, 2.385e-9
-0.121, 2.352e-9
-0.120, 2.317e-9
-0.119, 2.277e-9
-0.118, 2.247e-9
-0.117, 2.215e-9
-0.116, 2.182e-9
-0.115, 2.147e-9
-0.114, 2.108e-9
-0.113, 2.075e-9
-0.112, 2.047e-9
-0.111, 2.014e-9
-0.110, 1.984e-9
-0.109, 1.946e-9
-0.108, 1.914e-9
-0.107, 1.888e-9
-0.106, 1.855e-9
-0.105, 1.825e-9
-0.104, 1.792e-9
-0.103, 1.759e-9
-0.102, 1.732e-9
-0.101, 1.705e-9
-0.100, 1.675e-9
-0.099, 1.645e-9
-0.098, 1.612e-9
-0.097, 1.586e-9
-0.096, 1.560e-9
-0.095, 1.528e-9
-0.094, 1.499e-9
-0.093, 1.470e-9
-0.092, 1.443e-9
-0.091, 1.421e-9
-0.090, 1.390e-9
-0.089, 1.355e-9
-0.088, 1.330e-9
-0.087, 1.303e-9
-0.086, 1.282e-9
-0.085, 1.254e-9
-0.084, 1.222e-9
-0.083, 1.197e-9
-0.082, 1.171e-9
-0.081, 1.145e-9
-0.080, 1.119e-9
-0.079, 1.084e-9
-0.078, 1.058e-9
-0.077, 1.030e-9
-0.076, 1.003e-9
-0.075, 9.799e-10
-0.074, 9.466e-10
-0.073, 9.181e-10
-0.072, 8.931e-10
-0.071, 8.641e-10
-0.070, 8.391e-10
-0.069, 8.025e-10
-0.068, 7.732e-10
-0.067, 7.523e-10
-0.066, 7.239e-10
-0.065, 6.939e-10
-0.064, 6.594e-10
-0.063, 6.257e-10
-0.062, 6.004e-10
-0.061, 5.688e-10
-0.060, 5.316e-10
-0.059, 4.995e-10
-0.058, 4.684e-10
-0.057, 4.405e-10
-0.056, 4.094e-10
-0.055, 3.754e-10
-0.054, 3.386e-10
-0.053, 3.026e-10
-0.052, 2.700e-10
-0.051, 2.365e-10
-0.050, 1.998e-10
-0.049, 1.593e-10
-0.048, 1.220e-10
-0.047, 8.400e-11
-0.046, 5.102e-11
-0.045, 8.486e-12
-0.044, -3.532e-11
-0.043, -7.244e-11
-0.042, -1.146e-10
-0.041, -1.563e-10
-0.040, -1.989e-10
-0.039, -2.503e-10
-0.038, -2.985e-10
-0.037, -3.426e-10
-0.036, -3.908e-10
-0.035, -4.398e-10
-0.034, -4.974e-10
-0.033, -5.492e-10
-0.032, -5.990e-10
-0.031, -6.570e-10
-0.030, -7.111e-10
-0.029, -7.768e-10
-0.028, -8.386e-10
-0.027, -8.960e-10
-0.026, -9.615e-10
-0.025, -1.030e-9
-0.024, -1.099e-9
-0.023, -1.169e-9
-0.022, -1.236e-9
-0.021, -1.310e-9
-0.020, -1.388e-9
-0.019, -1.468e-9
-0.018, -1.552e-9
-0.017, -1.634e-9
-0.016, -1.718e-9
-0.015, -1.814e-9
-0.014, -1.906e-9
-0.013, -2.002e-9
-0.012, -2.103e-9
-0.011, -2.198e-9
-0.010, -2.306e-9
-0.009, -2.414e-9
-0.008, -2.526e-9
-0.007, -2.639e-9
-0.006, -2.754e-9
-0.005, -2.881e-9
-0.004, -3.011e-9
-0.003, -3.139e-9
-0.002, -3.274e-9
-0.001, -3.411e-9
-0.000, -3.585e-9
0.001, -3.735e-9
0.002, -3.870e-9
0.003, -4.024e-9
0.004, -4.187e-9
0.005, -4.350e-9
0.006, -4.532e-9
0.007, -4.709e-9
0.008, -4.888e-9
0.009, -5.077e-9
0.010, -5.272e-9
0.011, -5.478e-9
0.012, -5.687e-9
0.013, -5.898e-9
0.014, -6.123e-9
0.015, -6.347e-9
0.016, -6.583e-9
0.017, -6.828e-9
0.018, -7.065e-9
0.019, -7.325e-9
0.020, -7.594e-9
0.021, -7.863e-9
0.022, -8.143e-9
0.023, -8.422e-9
0.024, -8.714e-9
0.025, -9.019e-9
0.026, -9.329e-9
0.027, -9.645e-9
0.028, -9.972e-9
0.029, -1.029e-8
0.030, -1.064e-8
0.031, -1.098e-8
0.032, -1.133e-8
0.033, -1.169e-8
0.034, -1.206e-8
0.035, -1.244e-8
0.036, -1.283e-8
0.037, -1.322e-8
0.038, -1.363e-8
0.039, -1.403e-8
0.040, -1.445e-8
0.041, -1.488e-8
0.042, -1.531e-8
0.043, -1.576e-8
0.044, -1.620e-8
0.045, -1.665e-8
0.046, -1.712e-8
0.047, -1.757e-8
0.048, -1.804e-8
0.049, -1.852e-8
0.050, -1.899e-8
0.051, -1.949e-8
0.052, -1.998e-8
0.053, -2.046e-8
0.054, -2.097e-8
0.055, -2.146e-8
0.056, -2.196e-8
0.057, -2.248e-8
0.058, -2.297e-8
0.059, -2.349e-8
0.060, -2.400e-8
0.061, -2.450e-8
0.062, -2.501e-8
0.063, -2.551e-8
0.064, -2.602e-8
0.065, -2.654e-8
0.066, -2.702e-8
0.067, -2.752e-8
0.068, -2.800e-8
0.069, -2.848e-8
0.070, -2.897e-8
0.071, -2.944e-8
0.072, -2.990e-8
0.073, -3.037e-8
0.074, -3.080e-8
0.075, -3.127e-8
0.076, -3.170e-8
0.077, -3.213e-8
0.078, -3.256e-8
0.079, -3.295e-8
0.080, -3.334e-8
0.081, -3.374e-8
0.082, -3.409e-8
0.083, -3.445e-8
0.084, -3.480e-8
0.085, -3.512e-8
0.086, -3.546e-8
0.087, -3.576e-8
0.088, -3.605e-8
0.089, -3.634e-8
0.090, -3.662e-8
0.091, -3.687e-8
0.092, -3.712e-8
0.093, -3.733e-8
0.094, -3.756e-8
0.095, -3.776e-8
0.096, -3.794e-8
0.097, -3.813e-8
0.098, -3.828e-8
0.099, -3.843e-8
0.100, -3.856e-8
0.101, -3.868e-8
0.102, -3.882e-8
0.103, -3.892e-8
0.104, -3.901e-8
0.105, -3.909e-8
0.106, -3.914e-8
0.107, -3.920e-8
0.108, -3.924e-8
0.109, -3.926e-8
0.110, -3.930e-8
0.111, -3.930e-8
0.112, -3.930e-8
0.113, -3.931e-8
0.114, -3.928e-8
0.115, -3.927e-8
0.116, -3.924e-8
0.117, -3.919e-8
0.118, -3.915e-8
0.119, -3.909e-8
0.120, -3.904e-8
0.121, -3.898e-8
0.122, -3.890e-8
0.123, -3.882e-8
0.124, -3.874e-8
0.125, -3.864e-8
0.126, -3.856e-8
0.127, -3.846e-8
0.128, -3.836e-8
0.129, -3.826e-8
0.130, -3.814e-8
0.131, -3.804e-8
0.132, -3.793e-8
0.133, -3.781e-8
0.134, -3.769e-8
0.135, -3.757e-8
0.136, -3.746e-8
0.137, -3.734e-8
0.138, -3.720e-8
0.139, -3.707e-8
0.140, -3.695e-8
0.141, -3.682e-8
0.142, -3.670e-8
0.143, -3.656e-8
0.144, -3.643e-8
0.145, -3.630e-8
0.146, -3.617e-8
0.147, -3.604e-8
0.148, -3.591e-8
0.149, -3.577e-8
0.150, -3.565e-8
0.151, -3.551e-8
0.152, -3.539e-8
0.153, -3.526e-8
0.154, -3.513e-8
0.155, -3.501e-8
0.156, -3.489e-8
0.157, -3.476e-8
0.158, -3.463e-8
0.159, -3.450e-8
0.160, -3.437e-8
0.161, -3.426e-8
0.162, -3.414e-8
0.163, -3.401e-8
0.164, -3.389e-8
0.165, -3.377e-8
0.166, -3.366e-8
0.167, -3.354e-8
0.168, -3.343e-8
0.169, -3.332e-8
0.170, -3.320e-8
0.171, -3.309e-8
0.172, -3.299e-8
0.173, -3.287e-8
0.174, -3.276e-8
0.175, -3.266e-8
0.176, -3.255e-8
0.177, -3.246e-8
0.178, -3.235e-8
0.179, -3.225e-8
0.180, -3.215e-8
0.181, -3.205e-8
0.182, -3.196e-8
0.183, -3.187e-8
0.184, -3.177e-8
0.185, -3.168e-8
0.186, -3.159e-8
0.187, -3.149e-8
0.188, -3.141e-8
0.189, -3.131e-8
0.190, -3.123e-8
0.191, -3.115e-8
0.192, -3.107e-8
0.193, -3.099e-8
0.194, -3.091e-8
0.195, -3.082e-8
0.196, -3.075e-8
0.197, -3.067e-8
0.198, -3.059e-8
0.199, -3.051e-8
0.200, -3.044e-8
0.201, -3.038e-8
0.202, -3.030e-8
0.203, -3.023e-8
0.204, -3.016e-8
0.205, -3.010e-8
0.206, -3.004e-8
0.207, -2.997e-8
0.208, -2.990e-8
0.209, -2.983e-8
0.210, -2.977e-8
0.211, -2.971e-8
0.212, -2.965e-8
0.213, -2.959e-8
0.214, -2.953e-8
0.215, -2.948e-8
0.216, -2.942e-8
0.217, -2.937e-8
0.218, -2.931e-8
0.219, -2.926e-8
0.220, -2.921e-8
0.221, -2.915e-8
0.222, -2.911e-8
0.223, -2.906e-8
0.224, -2.901e-8
0.225, -2.897e-8
0.226, -2.892e-8
0.227, -2.887e-8
0.228, -2.883e-8
0.229, -2.878e-8
0.230, -2.875e-8
0.231, -2.871e-8
0.232, -2.866e-8
0.233, -2.862e-8
0.234, -2.857e-8
0.235, -2.854e-8
0.236, -2.851e-8
0.237, -2.846e-8
0.238, -2.843e-8
0.239, -2.839e-8
0.240, -2.836e-8
0.241, -2.833e-8
0.242, -2.830e-8
0.243, -2.827e-8
0.244, -2.823e-8
0.245, -2.820e-8
0.246, -2.817e-8
0.247, -2.814e-8
0.248, -2.811e-8
0.249, -2.808e-8
0.250, -2.805e-8
0.251, -2.803e-8
0.252, -2.801e-8
0.253, -2.798e-8
0.254, -2.795e-8
0.255, -2.793e-8
0.256, -2.791e-8
0.257, -2.789e-8
0.258, -2.786e-8
0.259, -2.783e-8
0.260, -2.782e-8
0.261, -2.780e-8
0.262, -2.778e-8
0.263, -2.776e-8
0.264, -2.774e-8
0.265, -2.772e-8
0.266, -2.771e-8
0.267, -2.769e-8
0.268, -2.767e-8
0.269, -2.765e-8
0.270, -2.764e-8
0.271, -2.763e-8
0.272, -2.761e-8
0.273, -2.759e-8
0.274, -2.757e-8
0.275, -2.756e-8
0.276, -2.755e-8
0.277, -2.754e-8
0.278, -2.753e-8
0.279, -2.751e-8
0.280, -2.750e-8
0.281, -2.750e-8
0.282, -2.748e-8
0.283, -2.747e-8
0.284, -2.746e-8
0.285, -2.745e-8
0.286, -2.745e-8
0.287, -2.744e-8
0.288, -2.743e-8
0.289, -2.742e-8
0.290, -2.741e-8
0.291, -2.741e-8
0.292, -2.741e-8
0.293, -2.740e-8
0.294, -2.739e-8
0.295, -2.739e-8
0.296, -2.738e-8
0.297, -2.738e-8
0.298, -2.737e-8
0.299, -2.737e-8
0.300, -2.703e-8
0.299, -2.606e-8
0.298, -2.573e-8
0.297, -2.556e-8
0.296, -2.540e-8
0.295, -2.527e-8
0.294, -2.516e-8
0.293, -2.505e-8
0.292, -2.495e-8
0.291, -2.486e-8
0.290, -2.477e-8
0.289, -2.469e-8
0.288, -2.461e-8
0.287, -2.453e-8
0.286, -2.446e-8
0.285, -2.439e-8
0.284, -2.432e-8
0.283, -2.425e-8
0.282, -2.418e-8
0.281, -2.412e-8
0.280, -2.406e-8
0.279, -2.400e-8
0.278, -2.395e-8
0.277, -2.389e-8
0.276, -2.383e-8
0.275, -2.378e-8
0.274, -2.373e-8
0.273, -2.368e-8
0.272, -2.362e-8
0.271, -2.357e-8
0.270, -2.353e-8
0.269, -2.348e-8
0.268, -2.343e-8
0.267, -2.338e-8
0.266, -2.333e-8
0.265, -2.329e-8
0.264, -2.325e-8
0.263, -2.321e-8
0.262, -2.316e-8
0.261, -2.312e-8
0.260, -2.308e-8
0.259, -2.304e-8
0.258, -2.299e-8
0.257, -2.295e-8
0.256, -2.291e-8
0.255, -2.287e-8
0.254, -2.284e-8
0.253, -2.280e-8
0.252, -2.276e-8
0.251, -2.271e-8
0.250, -2.267e-8
0.249, -2.264e-8
0.248, -2.261e-8
0.247, -2.256e-8
0.246, -2.253e-8
0.245, -2.249e-8
0.244, -2.246e-8
0.243, -2.242e-8
0.242, -2.238e-8
0.241, -2.235e-8
0.240, -2.232e-8
0.239, -2.229e-8
0.238, -2.226e-8
0.237, -2.222e-8
0.236, -2.218e-8
0.235, -2.215e-8
0.234, -2.212e-8
0.233, -2.208e-8
0.232, -2.204e-8
0.231, -2.201e-8
0.230, -2.198e-8
0.229, -2.194e-8
0.228, -2.191e-8
0.227, -2.187e-8
0.226, -2.184e-8
0.225, -2.180e-8
0.224, -2.177e-8
0.223, -2.173e-8
0.222, -2.170e-8
0.221, -2.166e-8
0.220, -2.162e-8
0.219, -2.159e-8
0.218, -2.155e-8
0.217, -2.151e-8
0.216, -2.148e-8
0.215, -2.144e-8
0.214, -2.141e-8
0.213, -2.137e-8
0.212, -2.133e-8
0.211, -2.129e-8
0.210, -2.125e-8
0.209, -2.121e-8
0.208, -2.117e-8
0.207, -2.113e-8
0.206, -2.109e-8
0.205, -2.105e-8
0.204, -2.101e-8
0.203, -2.097e-8
0.202, -2.092e-8
0.201, -2.088e-8
0.200, -2.084e-8
0.199, -2.079e-8
0.198, -2.074e-8
0.197, -2.069e-8
0.196, -2.064e-8
0.195, -2.059e-8
0.194, -2.054e-8
0.193, -2.049e-8
0.192, -2.043e-8
0.191, -2.038e-8
0.190, -2.032e-8
0.189, -2.027e-8
0.188, -2.021e-8
0.187, -2.015e-8
0.186, -2.008e-8
0.185, -2.002e-8
0.184, -1.996e-8
0.183, -1.989e-8
0.182, -1.983e-8
0.181, -1.976e-8
0.180, -1.970e-8
0.179, -1.962e-8
0.178, -1.955e-8
0.177, -1.947e-8
0.176, -1.939e-8
0.175, -1.931e-8
0.174, -1.924e-8
0.173, -1.916e-8
0.172, -1.907e-8
0.171, -1.898e-8
0.170, -1.889e-8
0.169, -1.880e-8
0.168, -1.870e-8
0.167, -1.860e-8
0.166, -1.850e-8
0.165, -1.839e-8
0.164, -1.829e-8
0.163, -1.818e-8
0.162, -1.806e-8
0.161, -1.794e-8
0.160, -1.782e-8
0.159, -1.769e-8
0.158, -1.756e-8
0.157, -1.743e-8
0.156, -1.729e-8
0.155, -1.715e-8
0.154, -1.700e-8
0.153, -1.685e-8
0.152, -1.670e-8
0.151, -1.653e-8
0.150, -1.637e-8
0.149, -1.620e-8
0.148, -1.602e-8
0.147, -1.584e-8
0.146, -1.565e-8
0.145, -1.547e-8
0.144, -1.527e-8
0.143, -1.506e-8
0.142, -1.485e-8
0.141, -1.463e-8
0.140, -1.441e-8
0.139, -1.420e-8
0.138, -1.396e-8
0.137, -1.372e-8
0.136, -1.347e-8
0.135, -1.323e-8
0.134, -1.297e-8
0.133, -1.270e-8
0.132, -1.242e-8
0.131, -1.214e-8
0.130, -1.185e-8
0.129, -1.156e-8
0.128, -1.126e-8
0.127, -1.094e-8
0.126, -1.063e-8
0.125, -1.029e-8
0.124, -9.966e-9
0.123, -9.622e-9
0.122, -9.269e-9
0.121, -8.912e-9
0.120, -8.548e-9
0.119, -8.174e-9
0.118, -7.800e-9
0.117, -7.398e-9
0.116, -7.002e-9
0.115, -6.601e-9
0.114, -6.184e-9
0.113, -5.770e-9
0.112, -5.343e-9
0.111, -4.910e-9
0.110, -4.480e-9
0.109, -4.028e-9
0.108, -3.582e-9
0.107, -3.121e-9
0.106, -2.648e-9
0.105, -2.195e-9
0.104, -1.710e-9
0.103, -1.219e-9
0.102, -7.288e-10
0.101, -2.363e-10
0.100, 2.441e-10
0.099, 7.359e-10
0.098, 1.255e-9
0.097, 1.741e-9
0.096, 2.251e-9
0.095, 2.756e-9
0.094, 3.254e-9
0.093, 3.768e-9
0.092, 4.274e-9
0.091, 4.776e-9
0.090, 5.290e-9
0.089, 5.781e-9
0.088, 6.282e-9
0.087, 6.786e-9
0.086, 7.262e-9
0.085, 7.749e-9
0.084, 8.235e-9
0.083, 8.716e-9
0.082, 9.194e-9
0.081, 9.651e-9
0.080, 1.012e-8
0.079, 1.057e-8
0.078, 1.100e-8
0.077, 1.145e-8
0.076, 1.187e-8
0.075, 1.227e-8
0.074, 1.268e-8
0.073, 1.306e-8
0.072, 1.344e-8
0.071, 1.382e-8
0.070, 1.416e-8
0.069, 1.452e-8
0.068, 1.485e-8
0.067, 1.517e-8
0.066, 1.549e-8
0.065, 1.578e-8
0.064, 1.607e-8
0.063, 1.635e-8
0.062, 1.661e-8
0.061, 1.686e-8
0.060, 1.708e-8
0.059, 1.730e-8
0.058, 1.752e-8
0.057, 1.770e-8
0.056, 1.789e-8
0.055, 1.806e-8
0.054, 1.820e-8
0.053, 1.835e-8
0.052, 1.848e-8
0.051, 1.861e-8
0.050, 1.872e-8
0.049, 1.879e-8
0.048, 1.889e-8
0.047, 1.897e-8
0.046, 1.902e-8
0.045, 1.908e-8
0.044, 1.911e-8
0.043, 1.914e-8
0.042, 1.917e-8
0.041, 1.918e-8
0.040, 1.919e-8
0.039, 1.919e-8
0.038, 1.918e-8
0.037, 1.917e-8
0.036, 1.913e-8
0.035, 1.909e-8
0.034, 1.906e-8
0.033, 1.902e-8
0.032, 1.897e-8
0.031, 1.891e-8
0.030, 1.884e-8
0.029, 1.878e-8
0.028, 1.871e-8
0.027, 1.863e-8
0.026, 1.856e-8
0.025, 1.848e-8
0.024, 1.838e-8
0.023, 1.830e-8
0.022, 1.820e-8
0.021, 1.811e-8
0.020, 1.801e-8
0.019, 1.791e-8
0.018, 1.781e-8
0.017, 1.770e-8
0.016, 1.760e-8
0.015, 1.749e-8
0.014, 1.737e-8
0.013, 1.727e-8
0.012, 1.716e-8
0.011, 1.705e-8
0.010, 1.694e-8
0.009, 1.682e-8
0.008, 1.671e-8
0.007, 1.660e-8
0.006, 1.648e-8
0.005, 1.637e-8
0.004, 1.625e-8
0.003, 1.614e-8
0.002, 1.603e-8
0.001, 1.592e-8
0.000, 1.584e-8
-0.001, 1.572e-8
-0.002, 1.560e-8
-0.003, 1.549e-8
-0.004, 1.538e-8
-0.005, 1.527e-8
-0.006, 1.516e-8
-0.007, 1.505e-8
-0.008, 1.495e-8
-0.009, 1.485e-8
-0.010, 1.474e-8
-0.011, 1.464e-8
-0.012, 1.455e-8
-0.013, 1.445e-8
-0.014, 1.436e-8
-0.015, 1.425e-8
-0.016, 1.416e-8
-0.017, 1.407e-8
-0.018, 1.397e-8
-0.019, 1.389e-8
-0.020, 1.379e-8
-0.021, 1.370e-8
-0.022, 1.362e-8
-0.023, 1.353e-8
-0.024, 1.345e-8
-0.025, 1.337e-8
-0.026, 1.328e-8
-0.027, 1.321e-8
-0.028, 1.313e-8
-0.029, 1.305e-8
-0.030, 1.298e-8
-0.031, 1.289e-8
-0.032, 1.282e-8
-0.033, 1.275e-8
-0.034, 1.268e-8
-0.035, 1.261e-8
-0.036, 1.254e-8
-0.037, 1.247e-8
-0.038, 1.241e-8
-0.039, 1.235e-8
-0.040, 1.229e-8
-0.041, 1.223e-8
-0.042, 1.216e-8
-0.043, 1.211e-8
-0.044, 1.205e-8
-0.045, 1.199e-8
-0.046, 1.193e-8
-0.047, 1.188e-8
-0.048, 1.183e-8
-0.049, 1.178e-8
-0.050, 1.172e-8
-0.051, 1.167e-8
-0.052, 1.163e-8
-0.053, 1.158e-8
-0.054, 1.154e-8
-0.055, 1.148e-8
-0.056, 1.144e-8
-0.057, 1.140e-8
-0.058, 1.135e-8
-0.059, 1.132e-8
-0.060, 1.128e-8
-0.061, 1.123e-8
-0.062, 1.120e-8
-0.063, 1.116e-8
-0.064, 1.113e-8
-0.065, 1.109e-8
-0.066, 1.105e-8
-0.067, 1.102e-8
-0.068, 1.099e-8
-0.069, 1.096e-8
-0.070, 1.093e-8
-0.071, 1.089e-8
-0.072, 1.087e-8
-0.073, 1.085e-8
-0.074, 1.082e-8
-0.075, 1.080e-8
-0.076, 1.077e-8
-0.077, 1.075e-8
-0.078, 1.073e-8
-0.079, 1.071e-8
-0.080, 1.068e-8
-0.081, 1.066e-8
-0.082, 1.064e-8
-0.083, 1.063e-8
-0.084, 1.061e-8
-0.085, 1.059e-8
-0.086, 1.058e-8
-0.087, 1.057e-8
-0.088, 1.055e-8
-0.089, 1.054e-8
-0.090, 1.053e-8
-0.091, 1.052e-8
-0.092, 1.051e-8
-0.093, 1.050e-8
-0.094, 1.049e-8
-0.095, 1.048e-8
-0.096, 1.047e-8
-0.097, 1.047e-8
-0.098, 1.046e-8
-0.099, 1.046e-8
-0.100, 1.045e-8
-0.101, 1.045e-8
-0.102, 1.045e-8
-0.103, 1.045e-8
-0.104, 1.045e-8
-0.105, 1.045e-8
-0.106, 1.045e-8
-0.107, 1.046e-8
-0.108, 1.046e-8
-0.109, 1.046e-8
-0.110, 1.047e-8
-0.111, 1.047e-8
-0.112, 1.048e-8
-0.113, 1.049e-8
-0.114, 1.049e-8
-0.115, 1.050e-8
-0.116, 1.051e-8
-0.117, 1.052e-8
-0.118, 1.053e-8
-0.119, 1.054e-8
-0.120, 1.055e-8
-0.121, 1.056e-8
-0.122, 1.058e-8
-0.123, 1.060e-8
-0.124, 1.061e-8
-0.125, 1.062e-8
-0.126, 1.064e-8
-0.127, 1.066e-8
-0.128, 1.068e-8
-0.129, 1.070e-8
-0.130, 1.072e-8
-0.131, 1.074e-8
-0.132, 1.076e-8
-0.133, 1.079e-8
-0.134, 1.081e-8
-0.135, 1.083e-8
-0.136, 1.085e-8
-0.137, 1.088e-8
-0.138, 1.090e-8
-0.139, 1.093e-8
-0.140, 1.096e-8
-0.141, 1.099e-8
-0.142, 1.102e-8
-0.143, 1.105e-8
-0.144, 1.108e-8
-0.145, 1.111e-8
-0.146, 1.114e-8
-0.147, 1.118e-8
-0.148, 1.122e-8
-0.149, 1.125e-8
-0.150, 1.129e-8
-0.151, 1.132e-8
-0.152, 1.136e-8
-0.153, 1.140e-8
-0.154, 1.144e-8
-0.155, 1.148e-8
-0.156, 1.152e-8
-0.157, 1.157e-8
-0.158, 1.161e-8
-0.159, 1.165e-8
-0.160, 1.170e-8
-0.161, 1.174e-8
-0.162, 1.179e-8
-0.163, 1.184e-8
-0.164, 1.189e-8
-0.165, 1.193e-8
-0.166, 1.198e-8
-0.167, 1.204e-8
-0.168, 1.209e-8
-0.169, 1.215e-8
-0.170, 1.219e-8
-0.171, 1.225e-8
-0.172, 1.230e-8
-0.173, 1.235e-8
-0.174, 1.241e-8
-0.175, 1.247e-8
-0.176, 1.253e-8
-0.177, 1.260e-8
-0.178, 1.266e-8
-0.179, 1.273e-8
-0.180, 1.279e-8
-0.181, 1.285e-8
-0.182, 1.292e-8
-0.183, 1.299e-8
-0.184, 1.305e-8
-0.185, 1.312e-8
-0.186, 1.319e-8
-0.187, 1.326e-8
-0.188, 1.333e-8
-0.189, 1.341e-8
-0.190, 1.348e-8
-0.191, 1.355e-8
-0.192, 1.363e-8
-0.193, 1.371e-8
-0.194, 1.379e-8
-0.195, 1.387e-8
-0.196, 1.395e-8
-0.197, 1.403e-8
-0.198, 1.412e-8
-0.199, 1.420e-8
