Mar. 16, 2023   09:52:24
Cyclic Voltammetry
File: c:/users/oliverrz/desktop/electrolab/data/2023_03_16\fcmeoh_macros_750_um\electrode8_cv_100mvs_750_um.bin
Data Source:  Experiment
Instrument Model:  CHI760E
Header: CV
Note: 

Init E (V) = -0.2
High E (V) = 0.3
Low E (V) = -0.2
Final E (V) = -0.2
Init P/N = P
Scan Rate (V/s) = 0.1
Segment = 3
Sample Interval (V) = 0.001
Quiet Time (sec) = 2
Sensitivity (A/V) = 1e-7

Results:

Channel 1:
Segment 1:
Ep = 0.111V
ip = -4.937e-8A
Ah = -3.093e-8C

Segment 2:
Ep = 0.045V
ip = 4.597e-8A
Ah = 2.923e-8C

Segment 3:

Potential/V, Current/A

-0.200, 4.601e-9
-0.199, 4.019e-9
-0.198, 3.939e-9
-0.197, 3.777e-9
-0.196, 3.759e-9
-0.195, 3.703e-9
-0.194, 3.606e-9
-0.193, 3.627e-9
-0.192, 3.502e-9
-0.191, 3.503e-9
-0.190, 3.452e-9
-0.189, 3.363e-9
-0.188, 3.390e-9
-0.187, 3.276e-9
-0.186, 3.283e-9
-0.185, 3.234e-9
-0.184, 3.152e-9
-0.183, 3.182e-9
-0.182, 3.067e-9
-0.181, 3.083e-9
-0.180, 3.035e-9
-0.179, 2.954e-9
-0.178, 2.996e-9
-0.177, 2.878e-9
-0.176, 2.897e-9
-0.175, 2.854e-9
-0.174, 2.775e-9
-0.173, 2.818e-9
-0.172, 2.698e-9
-0.171, 2.725e-9
-0.170, 2.684e-9
-0.169, 2.607e-9
-0.168, 2.653e-9
-0.167, 2.540e-9
-0.166, 2.560e-9
-0.165, 2.526e-9
-0.164, 2.449e-9
-0.163, 2.502e-9
-0.162, 2.389e-9
-0.161, 2.411e-9
-0.160, 2.380e-9
-0.159, 2.303e-9
-0.158, 2.352e-9
-0.157, 2.250e-9
-0.156, 2.270e-9
-0.155, 2.241e-9
-0.154, 2.167e-9
-0.153, 2.213e-9
-0.152, 2.112e-9
-0.151, 2.137e-9
-0.150, 2.106e-9
-0.149, 2.037e-9
-0.148, 2.084e-9
-0.147, 1.984e-9
-0.146, 2.010e-9
-0.145, 1.977e-9
-0.144, 1.912e-9
-0.143, 1.962e-9
-0.142, 1.859e-9
-0.141, 1.888e-9
-0.140, 1.857e-9
-0.139, 1.795e-9
-0.138, 1.845e-9
-0.137, 1.742e-9
-0.136, 1.776e-9
-0.135, 1.747e-9
-0.134, 1.683e-9
-0.133, 1.734e-9
-0.132, 1.632e-9
-0.131, 1.667e-9
-0.130, 1.638e-9
-0.129, 1.569e-9
-0.128, 1.623e-9
-0.127, 1.524e-9
-0.126, 1.553e-9
-0.125, 1.532e-9
-0.124, 1.462e-9
-0.123, 1.523e-9
-0.122, 1.421e-9
-0.121, 1.452e-9
-0.120, 1.430e-9
-0.119, 1.362e-9
-0.118, 1.419e-9
-0.117, 1.323e-9
-0.116, 1.351e-9
-0.115, 1.330e-9
-0.114, 1.263e-9
-0.113, 1.321e-9
-0.112, 1.230e-9
-0.111, 1.256e-9
-0.110, 1.236e-9
-0.109, 1.174e-9
-0.108, 1.225e-9
-0.107, 1.134e-9
-0.106, 1.165e-9
-0.105, 1.143e-9
-0.104, 1.076e-9
-0.103, 1.132e-9
-0.102, 1.032e-9
-0.101, 1.070e-9
-0.100, 1.041e-9
-0.099, 9.829e-10
-0.098, 1.039e-9
-0.097, 9.406e-10
-0.096, 9.728e-10
-0.095, 9.476e-10
-0.094, 8.828e-10
-0.093, 9.441e-10
-0.092, 8.411e-10
-0.091, 8.791e-10
-0.090, 8.497e-10
-0.089, 7.840e-10
-0.088, 8.440e-10
-0.087, 7.436e-10
-0.086, 7.764e-10
-0.085, 7.540e-10
-0.084, 6.829e-10
-0.083, 7.441e-10
-0.082, 6.432e-10
-0.081, 6.682e-10
-0.080, 6.502e-10
-0.079, 5.766e-10
-0.078, 6.357e-10
-0.077, 5.284e-10
-0.076, 5.561e-10
-0.075, 5.340e-10
-0.074, 4.647e-10
-0.073, 5.153e-10
-0.072, 4.210e-10
-0.071, 4.422e-10
-0.070, 4.148e-10
-0.069, 3.449e-10
-0.068, 3.928e-10
-0.067, 2.955e-10
-0.066, 3.168e-10
-0.065, 2.849e-10
-0.064, 2.152e-10
-0.063, 2.614e-10
-0.062, 1.560e-10
-0.061, 1.799e-10
-0.060, 1.469e-10
-0.059, 7.327e-11
-0.058, 1.165e-10
-0.057, 6.616e-12
-0.056, 3.005e-11
-0.055, -9.431e-12
-0.054, -8.898e-11
-0.053, -4.409e-11
-0.052, -1.591e-10
-0.051, -1.461e-10
-0.050, -1.841e-10
-0.049, -2.734e-10
-0.048, -2.293e-10
-0.047, -3.495e-10
-0.046, -3.429e-10
-0.045, -3.826e-10
-0.044, -4.777e-10
-0.043, -4.409e-10
-0.042, -5.683e-10
-0.041, -5.686e-10
-0.040, -6.123e-10
-0.039, -7.153e-10
-0.038, -6.905e-10
-0.037, -8.204e-10
-0.036, -8.300e-10
-0.035, -8.811e-10
-0.034, -9.908e-10
-0.033, -9.746e-10
-0.032, -1.109e-9
-0.031, -1.128e-9
-0.030, -1.193e-9
-0.029, -1.308e-9
-0.028, -1.307e-9
-0.027, -1.452e-9
-0.026, -1.483e-9
-0.025, -1.565e-9
-0.024, -1.688e-9
-0.023, -1.698e-9
-0.022, -1.859e-9
-0.021, -1.900e-9
-0.020, -1.995e-9
-0.019, -2.135e-9
-0.018, -2.159e-9
-0.017, -2.339e-9
-0.016, -2.387e-9
-0.015, -2.498e-9
-0.014, -2.661e-9
-0.013, -2.699e-9
-0.012, -2.900e-9
-0.011, -2.972e-9
-0.010, -3.100e-9
-0.009, -3.284e-9
-0.008, -3.337e-9
-0.007, -3.553e-9
-0.006, -3.650e-9
-0.005, -3.798e-9
-0.004, -4.007e-9
-0.003, -4.092e-9
-0.002, -4.335e-9
-0.001, -4.468e-9
-0.000, -4.694e-9
0.001, -4.912e-9
0.002, -5.013e-9
0.003, -5.278e-9
0.004, -5.438e-9
0.005, -5.638e-9
0.006, -5.908e-9
0.007, -6.056e-9
0.008, -6.359e-9
0.009, -6.557e-9
0.010, -6.800e-9
0.011, -7.103e-9
0.012, -7.299e-9
0.013, -7.639e-9
0.014, -7.878e-9
0.015, -8.168e-9
0.016, -8.502e-9
0.017, -8.743e-9
0.018, -9.125e-9
0.019, -9.400e-9
0.020, -9.741e-9
0.021, -1.012e-8
0.022, -1.041e-8
0.023, -1.084e-8
0.024, -1.116e-8
0.025, -1.156e-8
0.026, -1.200e-8
0.027, -1.233e-8
0.028, -1.282e-8
0.029, -1.319e-8
0.030, -1.362e-8
0.031, -1.412e-8
0.032, -1.450e-8
0.033, -1.505e-8
0.034, -1.549e-8
0.035, -1.598e-8
0.036, -1.653e-8
0.037, -1.695e-8
0.038, -1.757e-8
0.039, -1.805e-8
0.040, -1.858e-8
0.041, -1.920e-8
0.042, -1.968e-8
0.043, -2.030e-8
0.044, -2.087e-8
0.045, -2.144e-8
0.046, -2.210e-8
0.047, -2.265e-8
0.048, -2.332e-8
0.049, -2.394e-8
0.050, -2.456e-8
0.051, -2.525e-8
0.052, -2.585e-8
0.053, -2.655e-8
0.054, -2.718e-8
0.055, -2.784e-8
0.056, -2.855e-8
0.057, -2.917e-8
0.058, -2.990e-8
0.059, -3.055e-8
0.060, -3.125e-8
0.061, -3.195e-8
0.062, -3.259e-8
0.063, -3.333e-8
0.064, -3.398e-8
0.065, -3.466e-8
0.066, -3.537e-8
0.067, -3.598e-8
0.068, -3.670e-8
0.069, -3.732e-8
0.070, -3.797e-8
0.071, -3.868e-8
0.072, -3.925e-8
0.073, -3.996e-8
0.074, -4.053e-8
0.075, -4.114e-8
0.076, -4.180e-8
0.077, -4.232e-8
0.078, -4.297e-8
0.079, -4.350e-8
0.080, -4.402e-8
0.081, -4.461e-8
0.082, -4.504e-8
0.083, -4.561e-8
0.084, -4.608e-8
0.085, -4.653e-8
0.086, -4.704e-8
0.087, -4.740e-8
0.088, -4.787e-8
0.089, -4.825e-8
0.090, -4.862e-8
0.091, -4.904e-8
0.092, -4.931e-8
0.093, -4.969e-8
0.094, -4.996e-8
0.095, -5.024e-8
0.096, -5.054e-8
0.097, -5.072e-8
0.098, -5.100e-8
0.099, -5.118e-8
0.100, -5.137e-8
0.101, -5.157e-8
0.102, -5.168e-8
0.103, -5.190e-8
0.104, -5.196e-8
0.105, -5.205e-8
0.106, -5.219e-8
0.107, -5.218e-8
0.108, -5.231e-8
0.109, -5.228e-8
0.110, -5.230e-8
0.111, -5.237e-8
0.112, -5.228e-8
0.113, -5.234e-8
0.114, -5.226e-8
0.115, -5.220e-8
0.116, -5.221e-8
0.117, -5.205e-8
0.118, -5.204e-8
0.119, -5.192e-8
0.120, -5.180e-8
0.121, -5.175e-8
0.122, -5.155e-8
0.123, -5.149e-8
0.124, -5.132e-8
0.125, -5.116e-8
0.126, -5.106e-8
0.127, -5.084e-8
0.128, -5.075e-8
0.129, -5.055e-8
0.130, -5.037e-8
0.131, -5.024e-8
0.132, -4.998e-8
0.133, -4.985e-8
0.134, -4.962e-8
0.135, -4.943e-8
0.136, -4.927e-8
0.137, -4.901e-8
0.138, -4.887e-8
0.139, -4.862e-8
0.140, -4.841e-8
0.141, -4.827e-8
0.142, -4.799e-8
0.143, -4.785e-8
0.144, -4.758e-8
0.145, -4.737e-8
0.146, -4.721e-8
0.147, -4.692e-8
0.148, -4.678e-8
0.149, -4.651e-8
0.150, -4.630e-8
0.151, -4.615e-8
0.152, -4.585e-8
0.153, -4.572e-8
0.154, -4.547e-8
0.155, -4.526e-8
0.156, -4.511e-8
0.157, -4.482e-8
0.158, -4.469e-8
0.159, -4.446e-8
0.160, -4.425e-8
0.161, -4.411e-8
0.162, -4.383e-8
0.163, -4.370e-8
0.164, -4.348e-8
0.165, -4.328e-8
0.166, -4.315e-8
0.167, -4.289e-8
0.168, -4.277e-8
0.169, -4.255e-8
0.170, -4.236e-8
0.171, -4.223e-8
0.172, -4.198e-8
0.173, -4.188e-8
0.174, -4.166e-8
0.175, -4.149e-8
0.176, -4.137e-8
0.177, -4.113e-8
0.178, -4.104e-8
0.179, -4.084e-8
0.180, -4.069e-8
0.181, -4.057e-8
0.182, -4.034e-8
0.183, -4.026e-8
0.184, -4.006e-8
0.185, -3.991e-8
0.186, -3.982e-8
0.187, -3.959e-8
0.188, -3.953e-8
0.189, -3.934e-8
0.190, -3.920e-8
0.191, -3.911e-8
0.192, -3.890e-8
0.193, -3.884e-8
0.194, -3.866e-8
0.195, -3.853e-8
0.196, -3.846e-8
0.197, -3.825e-8
0.198, -3.820e-8
0.199, -3.804e-8
0.200, -3.792e-8
0.201, -3.785e-8
0.202, -3.765e-8
0.203, -3.761e-8
0.204, -3.747e-8
0.205, -3.735e-8
0.206, -3.730e-8
0.207, -3.712e-8
0.208, -3.708e-8
0.209, -3.694e-8
0.210, -3.683e-8
0.211, -3.677e-8
0.212, -3.660e-8
0.213, -3.657e-8
0.214, -3.643e-8
0.215, -3.634e-8
0.216, -3.629e-8
0.217, -3.613e-8
0.218, -3.612e-8
0.219, -3.598e-8
0.220, -3.590e-8
0.221, -3.586e-8
0.222, -3.569e-8
0.223, -3.569e-8
0.224, -3.555e-8
0.225, -3.547e-8
0.226, -3.544e-8
0.227, -3.528e-8
0.228, -3.528e-8
0.229, -3.516e-8
0.230, -3.508e-8
0.231, -3.507e-8
0.232, -3.491e-8
0.233, -3.492e-8
0.234, -3.481e-8
0.235, -3.473e-8
0.236, -3.472e-8
0.237, -3.457e-8
0.238, -3.458e-8
0.239, -3.447e-8
0.240, -3.440e-8
0.241, -3.439e-8
0.242, -3.425e-8
0.243, -3.426e-8
0.244, -3.417e-8
0.245, -3.410e-8
0.246, -3.409e-8
0.247, -3.396e-8
0.248, -3.397e-8
0.249, -3.388e-8
0.250, -3.382e-8
0.251, -3.382e-8
0.252, -3.370e-8
0.253, -3.373e-8
0.254, -3.364e-8
0.255, -3.358e-8
0.256, -3.358e-8
0.257, -3.346e-8
0.258, -3.349e-8
0.259, -3.339e-8
0.260, -3.334e-8
0.261, -3.334e-8
0.262, -3.322e-8
0.263, -3.326e-8
0.264, -3.317e-8
0.265, -3.313e-8
0.266, -3.314e-8
0.267, -3.302e-8
0.268, -3.305e-8
0.269, -3.297e-8
0.270, -3.292e-8
0.271, -3.294e-8
0.272, -3.282e-8
0.273, -3.286e-8
0.274, -3.278e-8
0.275, -3.274e-8
0.276, -3.277e-8
0.277, -3.265e-8
0.278, -3.270e-8
0.279, -3.262e-8
0.280, -3.258e-8
0.281, -3.261e-8
0.282, -3.251e-8
0.283, -3.255e-8
0.284, -3.248e-8
0.285, -3.244e-8
0.286, -3.247e-8
0.287, -3.237e-8
0.288, -3.242e-8
0.289, -3.235e-8
0.290, -3.232e-8
0.291, -3.235e-8
0.292, -3.225e-8
0.293, -3.230e-8
0.294, -3.224e-8
0.295, -3.221e-8
0.296, -3.224e-8
0.297, -3.215e-8
0.298, -3.221e-8
0.299, -3.214e-8
0.300, -3.140e-8
0.299, -3.018e-8
0.298, -2.970e-8
0.297, -2.956e-8
0.296, -2.935e-8
0.295, -2.920e-8
0.294, -2.912e-8
0.293, -2.892e-8
0.292, -2.888e-8
0.291, -2.874e-8
0.290, -2.862e-8
0.289, -2.858e-8
0.288, -2.841e-8
0.287, -2.840e-8
0.286, -2.827e-8
0.285, -2.818e-8
0.284, -2.815e-8
0.283, -2.799e-8
0.282, -2.798e-8
0.281, -2.786e-8
0.280, -2.779e-8
0.279, -2.776e-8
0.278, -2.762e-8
0.277, -2.762e-8
0.276, -2.751e-8
0.275, -2.744e-8
0.274, -2.742e-8
0.273, -2.729e-8
0.272, -2.730e-8
0.271, -2.719e-8
0.270, -2.713e-8
0.269, -2.712e-8
0.268, -2.698e-8
0.267, -2.701e-8
0.266, -2.691e-8
0.265, -2.684e-8
0.264, -2.685e-8
0.263, -2.671e-8
0.262, -2.673e-8
0.261, -2.663e-8
0.260, -2.658e-8
0.259, -2.659e-8
0.258, -2.646e-8
0.257, -2.648e-8
0.256, -2.639e-8
0.255, -2.633e-8
0.254, -2.634e-8
0.253, -2.621e-8
0.252, -2.623e-8
0.251, -2.615e-8
0.250, -2.609e-8
0.249, -2.610e-8
0.248, -2.598e-8
0.247, -2.600e-8
0.246, -2.591e-8
0.245, -2.585e-8
0.244, -2.585e-8
0.243, -2.573e-8
0.242, -2.575e-8
0.241, -2.567e-8
0.240, -2.562e-8
0.239, -2.561e-8
0.238, -2.550e-8
0.237, -2.552e-8
0.236, -2.543e-8
0.235, -2.538e-8
0.234, -2.538e-8
0.233, -2.526e-8
0.232, -2.529e-8
0.231, -2.519e-8
0.230, -2.514e-8
0.229, -2.515e-8
0.228, -2.502e-8
0.227, -2.506e-8
0.226, -2.497e-8
0.225, -2.491e-8
0.224, -2.492e-8
0.223, -2.479e-8
0.222, -2.482e-8
0.221, -2.473e-8
0.220, -2.467e-8
0.219, -2.468e-8
0.218, -2.455e-8
0.217, -2.457e-8
0.216, -2.448e-8
0.215, -2.442e-8
0.214, -2.443e-8
0.213, -2.429e-8
0.212, -2.431e-8
0.211, -2.423e-8
0.210, -2.416e-8
0.209, -2.416e-8
0.208, -2.403e-8
0.207, -2.404e-8
0.206, -2.395e-8
0.205, -2.387e-8
0.204, -2.386e-8
0.203, -2.373e-8
0.202, -2.374e-8
0.201, -2.365e-8
0.200, -2.357e-8
0.199, -2.355e-8
0.198, -2.341e-8
0.197, -2.341e-8
0.196, -2.330e-8
0.195, -2.323e-8
0.194, -2.320e-8
0.193, -2.305e-8
0.192, -2.305e-8
0.191, -2.292e-8
0.190, -2.284e-8
0.189, -2.281e-8
0.188, -2.264e-8
0.187, -2.264e-8
0.186, -2.251e-8
0.185, -2.241e-8
0.184, -2.238e-8
0.183, -2.220e-8
0.182, -2.218e-8
0.181, -2.204e-8
0.180, -2.193e-8
0.179, -2.188e-8
0.178, -2.170e-8
0.177, -2.166e-8
0.176, -2.151e-8
0.175, -2.138e-8
0.174, -2.132e-8
0.173, -2.112e-8
0.172, -2.106e-8
0.171, -2.090e-8
0.170, -2.075e-8
0.169, -2.067e-8
0.168, -2.045e-8
0.167, -2.037e-8
0.166, -2.018e-8
0.165, -2.002e-8
0.164, -1.990e-8
0.163, -1.967e-8
0.162, -1.957e-8
0.161, -1.936e-8
0.160, -1.917e-8
0.159, -1.904e-8
0.158, -1.878e-8
0.157, -1.865e-8
0.156, -1.841e-8
0.155, -1.819e-8
0.154, -1.802e-8
0.153, -1.773e-8
0.152, -1.757e-8
0.151, -1.729e-8
0.150, -1.705e-8
0.149, -1.685e-8
0.148, -1.652e-8
0.147, -1.633e-8
0.146, -1.601e-8
0.145, -1.572e-8
0.144, -1.548e-8
0.143, -1.510e-8
0.142, -1.487e-8
0.141, -1.451e-8
0.140, -1.417e-8
0.139, -1.390e-8
0.138, -1.348e-8
0.137, -1.320e-8
0.136, -1.281e-8
0.135, -1.242e-8
0.134, -1.211e-8
0.133, -1.164e-8
0.132, -1.130e-8
0.131, -1.087e-8
0.130, -1.042e-8
0.129, -1.004e-8
0.128, -9.523e-9
0.127, -9.135e-9
0.126, -8.657e-9
0.125, -8.161e-9
0.124, -7.725e-9
0.123, -7.165e-9
0.122, -6.709e-9
0.121, -6.163e-9
0.120, -5.622e-9
0.119, -5.128e-9
0.118, -4.523e-9
0.117, -4.025e-9
0.116, -3.423e-9
0.115, -2.845e-9
0.114, -2.301e-9
0.113, -1.643e-9
0.112, -1.103e-9
0.111, -4.486e-10
0.110, 1.765e-10
0.109, 7.707e-10
0.108, 1.479e-9
0.107, 2.054e-9
0.106, 2.750e-9
0.105, 3.416e-9
0.104, 4.025e-9
0.103, 4.788e-9
0.102, 5.409e-9
0.101, 6.105e-9
0.100, 6.800e-9
0.099, 7.417e-9
0.098, 8.181e-9
0.097, 8.804e-9
0.096, 9.517e-9
0.095, 1.023e-8
0.094, 1.085e-8
0.093, 1.160e-8
0.092, 1.223e-8
0.091, 1.291e-8
0.090, 1.362e-8
0.089, 1.422e-8
0.088, 1.494e-8
0.087, 1.555e-8
0.086, 1.620e-8
0.085, 1.687e-8
0.084, 1.744e-8
0.083, 1.811e-8
0.082, 1.868e-8
0.081, 1.929e-8
0.080, 1.988e-8
0.079, 2.040e-8
0.078, 2.100e-8
0.077, 2.149e-8
0.076, 2.207e-8
0.075, 2.258e-8
0.074, 2.303e-8
0.073, 2.355e-8
0.072, 2.396e-8
0.071, 2.445e-8
0.070, 2.485e-8
0.069, 2.521e-8
0.068, 2.568e-8
0.067, 2.598e-8
0.066, 2.636e-8
0.065, 2.671e-8
0.064, 2.697e-8
0.063, 2.735e-8
0.062, 2.754e-8
0.061, 2.783e-8
0.060, 2.808e-8
0.059, 2.823e-8
0.058, 2.852e-8
0.057, 2.862e-8
0.056, 2.882e-8
0.055, 2.899e-8
0.054, 2.904e-8
0.053, 2.925e-8
0.052, 2.929e-8
0.051, 2.939e-8
0.050, 2.948e-8
0.049, 2.946e-8
0.048, 2.955e-8
0.047, 2.953e-8
0.046, 2.955e-8
0.045, 2.957e-8
0.044, 2.949e-8
0.043, 2.952e-8
0.042, 2.943e-8
0.041, 2.939e-8
0.040, 2.934e-8
0.039, 2.921e-8
0.038, 2.919e-8
0.037, 2.903e-8
0.036, 2.897e-8
0.035, 2.885e-8
0.034, 2.868e-8
0.033, 2.862e-8
0.032, 2.842e-8
0.031, 2.831e-8
0.030, 2.816e-8
0.029, 2.797e-8
0.028, 2.788e-8
0.027, 2.765e-8
0.026, 2.752e-8
0.025, 2.736e-8
0.024, 2.713e-8
0.023, 2.702e-8
0.022, 2.675e-8
0.021, 2.662e-8
0.020, 2.645e-8
0.019, 2.619e-8
0.018, 2.608e-8
0.017, 2.582e-8
0.016, 2.565e-8
0.015, 2.548e-8
0.014, 2.521e-8
0.013, 2.510e-8
0.012, 2.484e-8
0.011, 2.466e-8
0.010, 2.448e-8
0.009, 2.422e-8
0.008, 2.410e-8
0.007, 2.384e-8
0.006, 2.366e-8
0.005, 2.349e-8
0.004, 2.324e-8
0.003, 2.311e-8
0.002, 2.286e-8
0.001, 2.270e-8
0.000, 2.257e-8
-0.001, 2.232e-8
-0.002, 2.218e-8
-0.003, 2.193e-8
-0.004, 2.178e-8
-0.005, 2.160e-8
-0.006, 2.137e-8
-0.007, 2.126e-8
-0.008, 2.102e-8
-0.009, 2.088e-8
-0.010, 2.072e-8
-0.011, 2.049e-8
-0.012, 2.040e-8
-0.013, 2.016e-8
-0.014, 2.004e-8
-0.015, 1.989e-8
-0.016, 1.966e-8
-0.017, 1.959e-8
-0.018, 1.936e-8
-0.019, 1.924e-8
-0.020, 1.910e-8
-0.021, 1.889e-8
-0.022, 1.882e-8
-0.023, 1.860e-8
-0.024, 1.850e-8
-0.025, 1.837e-8
-0.026, 1.817e-8
-0.027, 1.812e-8
-0.028, 1.791e-8
-0.029, 1.781e-8
-0.030, 1.769e-8
-0.031, 1.750e-8
-0.032, 1.746e-8
-0.033, 1.726e-8
-0.034, 1.717e-8
-0.035, 1.706e-8
-0.036, 1.689e-8
-0.037, 1.684e-8
-0.038, 1.666e-8
-0.039, 1.659e-8
-0.040, 1.648e-8
-0.041, 1.631e-8
-0.042, 1.628e-8
-0.043, 1.610e-8
-0.044, 1.603e-8
-0.045, 1.593e-8
-0.046, 1.577e-8
-0.047, 1.576e-8
-0.048, 1.559e-8
-0.049, 1.553e-8
-0.050, 1.544e-8
-0.051, 1.529e-8
-0.052, 1.528e-8
-0.053, 1.511e-8
-0.054, 1.506e-8
-0.055, 1.499e-8
-0.056, 1.484e-8
-0.057, 1.484e-8
-0.058, 1.468e-8
-0.059, 1.463e-8
-0.060, 1.457e-8
-0.061, 1.443e-8
-0.062, 1.443e-8
-0.063, 1.428e-8
-0.064, 1.425e-8
-0.065, 1.419e-8
-0.066, 1.405e-8
-0.067, 1.406e-8
-0.068, 1.392e-8
-0.069, 1.388e-8
-0.070, 1.382e-8
-0.071, 1.370e-8
-0.072, 1.371e-8
-0.073, 1.358e-8
-0.074, 1.355e-8
-0.075, 1.350e-8
-0.076, 1.338e-8
-0.077, 1.340e-8
-0.078, 1.327e-8
-0.079, 1.325e-8
-0.080, 1.320e-8
-0.081, 1.309e-8
-0.082, 1.311e-8
-0.083, 1.299e-8
-0.084, 1.297e-8
-0.085, 1.293e-8
-0.086, 1.282e-8
-0.087, 1.285e-8
-0.088, 1.272e-8
-0.089, 1.272e-8
-0.090, 1.268e-8
-0.091, 1.257e-8
-0.092, 1.261e-8
-0.093, 1.248e-8
-0.094, 1.248e-8
-0.095, 1.245e-8
-0.096, 1.235e-8
-0.097, 1.239e-8
-0.098, 1.228e-8
-0.099, 1.227e-8
-0.100, 1.225e-8
-0.101, 1.215e-8
-0.102, 1.220e-8
-0.103, 1.209e-8
-0.104, 1.209e-8
-0.105, 1.207e-8
-0.106, 1.197e-8
-0.107, 1.201e-8
-0.108, 1.191e-8
-0.109, 1.191e-8
-0.110, 1.189e-8
-0.111, 1.181e-8
-0.112, 1.185e-8
-0.113, 1.175e-8
-0.114, 1.176e-8
-0.115, 1.174e-8
-0.116, 1.166e-8
-0.117, 1.171e-8
-0.118, 1.161e-8
-0.119, 1.162e-8
-0.120, 1.160e-8
-0.121, 1.152e-8
-0.122, 1.158e-8
-0.123, 1.148e-8
-0.124, 1.150e-8
-0.125, 1.148e-8
-0.126, 1.140e-8
-0.127, 1.146e-8
-0.128, 1.137e-8
-0.129, 1.139e-8
-0.130, 1.138e-8
-0.131, 1.130e-8
-0.132, 1.136e-8
-0.133, 1.127e-8
-0.134, 1.129e-8
-0.135, 1.129e-8
-0.136, 1.121e-8
-0.137, 1.128e-8
-0.138, 1.119e-8
-0.139, 1.121e-8
-0.140, 1.121e-8
-0.141, 1.114e-8
-0.142, 1.120e-8
-0.143, 1.112e-8
-0.144, 1.114e-8
-0.145, 1.115e-8
-0.146, 1.107e-8
-0.147, 1.114e-8
-0.148, 1.106e-8
-0.149, 1.109e-8
-0.150, 1.109e-8
-0.151, 1.103e-8
-0.152, 1.110e-8
-0.153, 1.102e-8
-0.154, 1.105e-8
-0.155, 1.105e-8
-0.156, 1.099e-8
-0.157, 1.107e-8
-0.158, 1.099e-8
-0.159, 1.102e-8
-0.160, 1.103e-8
-0.161, 1.097e-8
-0.162, 1.105e-8
-0.163, 1.097e-8
-0.164, 1.101e-8
-0.165, 1.102e-8
-0.166, 1.096e-8
-0.167, 1.104e-8
-0.168, 1.097e-8
-0.169, 1.101e-8
-0.170, 1.102e-8
-0.171, 1.096e-8
-0.172, 1.105e-8
-0.173, 1.098e-8
-0.174, 1.102e-8
-0.175, 1.104e-8
-0.176, 1.098e-8
-0.177, 1.107e-8
-0.178, 1.101e-8
-0.179, 1.105e-8
-0.180, 1.107e-8
-0.181, 1.102e-8
-0.182, 1.111e-8
-0.183, 1.105e-8
-0.184, 1.109e-8
-0.185, 1.111e-8
-0.186, 1.107e-8
-0.187, 1.116e-8
-0.188, 1.110e-8
-0.189, 1.114e-8
-0.190, 1.117e-8
-0.191, 1.113e-8
-0.192, 1.122e-8
-0.193, 1.117e-8
-0.194, 1.122e-8
-0.195, 1.125e-8
-0.196, 1.121e-8
-0.197, 1.130e-8
-0.198, 1.125e-8
-0.199, 1.131e-8
