Mar. 16, 2023   09:44:10
Cyclic Voltammetry
File: c:/users/oliverrz/desktop/electrolab/data/2023_03_16\fcmeoh_macros_750_um\electrode2_cv_50mvs_750_um.bin
Data Source:  Experiment
Instrument Model:  CHI760E
Header: CV
Note: 

Init E (V) = -0.2
High E (V) = 0.3
Low E (V) = -0.2
Final E (V) = -0.2
Init P/N = P
Scan Rate (V/s) = 0.05
Segment = 3
Sample Interval (V) = 0.001
Quiet Time (sec) = 2
Sensitivity (A/V) = 1e-7

Results:

Channel 1:
Segment 1:
Ep = 0.094V
ip = -3.562e-8A
Ah = -4.407e-8C

Segment 2:
Ep = 0.018V
ip = 3.530e-8A
Ah = 4.582e-8C

Segment 3:

Potential/V, Current/A

-0.200, 6.232e-9
-0.199, 5.715e-9
-0.198, 5.540e-9
-0.197, 5.429e-9
-0.196, 5.333e-9
-0.195, 5.244e-9
-0.194, 5.159e-9
-0.193, 5.079e-9
-0.192, 4.999e-9
-0.191, 4.920e-9
-0.190, 4.851e-9
-0.189, 4.778e-9
-0.188, 4.706e-9
-0.187, 4.640e-9
-0.186, 4.565e-9
-0.185, 4.500e-9
-0.184, 4.438e-9
-0.183, 4.374e-9
-0.182, 4.314e-9
-0.181, 4.250e-9
-0.180, 4.188e-9
-0.179, 4.130e-9
-0.178, 4.069e-9
-0.177, 4.010e-9
-0.176, 3.953e-9
-0.175, 3.895e-9
-0.174, 3.842e-9
-0.173, 3.787e-9
-0.172, 3.731e-9
-0.171, 3.678e-9
-0.170, 3.625e-9
-0.169, 3.577e-9
-0.168, 3.529e-9
-0.167, 3.474e-9
-0.166, 3.424e-9
-0.165, 3.377e-9
-0.164, 3.327e-9
-0.163, 3.284e-9
-0.162, 3.234e-9
-0.161, 3.184e-9
-0.160, 3.143e-9
-0.159, 3.097e-9
-0.158, 3.056e-9
-0.157, 3.010e-9
-0.156, 2.963e-9
-0.155, 2.925e-9
-0.154, 2.880e-9
-0.153, 2.837e-9
-0.152, 2.797e-9
-0.151, 2.754e-9
-0.150, 2.717e-9
-0.149, 2.678e-9
-0.148, 2.638e-9
-0.147, 2.604e-9
-0.146, 2.562e-9
-0.145, 2.527e-9
-0.144, 2.492e-9
-0.143, 2.453e-9
-0.142, 2.419e-9
-0.141, 2.379e-9
-0.140, 2.342e-9
-0.139, 2.314e-9
-0.138, 2.279e-9
-0.137, 2.247e-9
-0.136, 2.213e-9
-0.135, 2.177e-9
-0.134, 2.149e-9
-0.133, 2.113e-9
-0.132, 2.078e-9
-0.131, 2.050e-9
-0.130, 2.017e-9
-0.129, 1.988e-9
-0.128, 1.955e-9
-0.127, 1.922e-9
-0.126, 1.893e-9
-0.125, 1.863e-9
-0.124, 1.830e-9
-0.123, 1.805e-9
-0.122, 1.773e-9
-0.121, 1.744e-9
-0.120, 1.722e-9
-0.119, 1.690e-9
-0.118, 1.666e-9
-0.117, 1.635e-9
-0.116, 1.602e-9
-0.115, 1.579e-9
-0.114, 1.550e-9
-0.113, 1.524e-9
-0.112, 1.498e-9
-0.111, 1.468e-9
-0.110, 1.446e-9
-0.109, 1.418e-9
-0.108, 1.391e-9
-0.107, 1.366e-9
-0.106, 1.336e-9
-0.105, 1.313e-9
-0.104, 1.289e-9
-0.103, 1.262e-9
-0.102, 1.234e-9
-0.101, 1.211e-9
-0.100, 1.186e-9
-0.099, 1.163e-9
-0.098, 1.135e-9
-0.097, 1.110e-9
-0.096, 1.085e-9
-0.095, 1.060e-9
-0.094, 1.036e-9
-0.093, 1.010e-9
-0.092, 9.830e-10
-0.091, 9.596e-10
-0.090, 9.319e-10
-0.089, 9.049e-10
-0.088, 8.824e-10
-0.087, 8.498e-10
-0.086, 8.255e-10
-0.085, 7.998e-10
-0.084, 7.749e-10
-0.083, 7.495e-10
-0.082, 7.201e-10
-0.081, 6.943e-10
-0.080, 6.695e-10
-0.079, 6.396e-10
-0.078, 6.120e-10
-0.077, 5.768e-10
-0.076, 5.432e-10
-0.075, 5.185e-10
-0.074, 4.893e-10
-0.073, 4.616e-10
-0.072, 4.336e-10
-0.071, 3.978e-10
-0.070, 3.729e-10
-0.069, 3.386e-10
-0.068, 3.054e-10
-0.067, 2.743e-10
-0.066, 2.384e-10
-0.065, 2.082e-10
-0.064, 1.714e-10
-0.063, 1.354e-10
-0.062, 9.985e-11
-0.061, 6.155e-11
-0.060, 2.729e-11
-0.059, -1.051e-11
-0.058, -4.891e-11
-0.057, -9.045e-11
-0.056, -1.308e-10
-0.055, -1.762e-10
-0.054, -2.143e-10
-0.053, -2.607e-10
-0.052, -3.100e-10
-0.051, -3.568e-10
-0.050, -4.074e-10
-0.049, -4.551e-10
-0.048, -5.020e-10
-0.047, -5.586e-10
-0.046, -6.104e-10
-0.045, -6.658e-10
-0.044, -7.242e-10
-0.043, -7.808e-10
-0.042, -8.451e-10
-0.041, -9.090e-10
-0.040, -9.694e-10
-0.039, -1.038e-9
-0.038, -1.105e-9
-0.037, -1.174e-9
-0.036, -1.250e-9
-0.035, -1.319e-9
-0.034, -1.401e-9
-0.033, -1.479e-9
-0.032, -1.563e-9
-0.031, -1.653e-9
-0.030, -1.736e-9
-0.029, -1.830e-9
-0.028, -1.924e-9
-0.027, -2.021e-9
-0.026, -2.128e-9
-0.025, -2.233e-9
-0.024, -2.337e-9
-0.023, -2.449e-9
-0.022, -2.561e-9
-0.021, -2.685e-9
-0.020, -2.806e-9
-0.019, -2.929e-9
-0.018, -3.066e-9
-0.017, -3.200e-9
-0.016, -3.344e-9
-0.015, -3.485e-9
-0.014, -3.627e-9
-0.013, -3.788e-9
-0.012, -3.952e-9
-0.011, -4.114e-9
-0.010, -4.285e-9
-0.009, -4.460e-9
-0.008, -4.642e-9
-0.007, -4.835e-9
-0.006, -5.023e-9
-0.005, -5.226e-9
-0.004, -5.434e-9
-0.003, -5.641e-9
-0.002, -5.867e-9
-0.001, -6.091e-9
-0.000, -6.371e-9
0.001, -6.616e-9
0.002, -6.842e-9
0.003, -7.099e-9
0.004, -7.368e-9
0.005, -7.633e-9
0.006, -7.916e-9
0.007, -8.197e-9
0.008, -8.491e-9
0.009, -8.805e-9
0.010, -9.104e-9
0.011, -9.428e-9
0.012, -9.757e-9
0.013, -1.009e-8
0.014, -1.045e-8
0.015, -1.080e-8
0.016, -1.116e-8
0.017, -1.153e-8
0.018, -1.190e-8
0.019, -1.229e-8
0.020, -1.269e-8
0.021, -1.309e-8
0.022, -1.351e-8
0.023, -1.393e-8
0.024, -1.435e-8
0.025, -1.480e-8
0.026, -1.525e-8
0.027, -1.571e-8
0.028, -1.617e-8
0.029, -1.663e-8
0.030, -1.711e-8
0.031, -1.758e-8
0.032, -1.806e-8
0.033, -1.857e-8
0.034, -1.906e-8
0.035, -1.955e-8
0.036, -2.006e-8
0.037, -2.056e-8
0.038, -2.109e-8
0.039, -2.161e-8
0.040, -2.213e-8
0.041, -2.266e-8
0.042, -2.317e-8
0.043, -2.371e-8
0.044, -2.423e-8
0.045, -2.475e-8
0.046, -2.528e-8
0.047, -2.580e-8
0.048, -2.632e-8
0.049, -2.685e-8
0.050, -2.734e-8
0.051, -2.786e-8
0.052, -2.838e-8
0.053, -2.887e-8
0.054, -2.937e-8
0.055, -2.984e-8
0.056, -3.032e-8
0.057, -3.080e-8
0.058, -3.124e-8
0.059, -3.171e-8
0.060, -3.217e-8
0.061, -3.257e-8
0.062, -3.301e-8
0.063, -3.341e-8
0.064, -3.382e-8
0.065, -3.420e-8
0.066, -3.456e-8
0.067, -3.493e-8
0.068, -3.528e-8
0.069, -3.560e-8
0.070, -3.593e-8
0.071, -3.622e-8
0.072, -3.651e-8
0.073, -3.680e-8
0.074, -3.705e-8
0.075, -3.730e-8
0.076, -3.754e-8
0.077, -3.776e-8
0.078, -3.798e-8
0.079, -3.815e-8
0.080, -3.833e-8
0.081, -3.850e-8
0.082, -3.863e-8
0.083, -3.877e-8
0.084, -3.890e-8
0.085, -3.900e-8
0.086, -3.910e-8
0.087, -3.918e-8
0.088, -3.925e-8
0.089, -3.931e-8
0.090, -3.936e-8
0.091, -3.940e-8
0.092, -3.942e-8
0.093, -3.943e-8
0.094, -3.945e-8
0.095, -3.944e-8
0.096, -3.942e-8
0.097, -3.940e-8
0.098, -3.936e-8
0.099, -3.933e-8
0.100, -3.928e-8
0.101, -3.921e-8
0.102, -3.916e-8
0.103, -3.910e-8
0.104, -3.902e-8
0.105, -3.894e-8
0.106, -3.884e-8
0.107, -3.875e-8
0.108, -3.866e-8
0.109, -3.855e-8
0.110, -3.845e-8
0.111, -3.833e-8
0.112, -3.821e-8
0.113, -3.810e-8
0.114, -3.798e-8
0.115, -3.786e-8
0.116, -3.774e-8
0.117, -3.761e-8
0.118, -3.749e-8
0.119, -3.736e-8
0.120, -3.722e-8
0.121, -3.709e-8
0.122, -3.695e-8
0.123, -3.683e-8
0.124, -3.669e-8
0.125, -3.655e-8
0.126, -3.642e-8
0.127, -3.628e-8
0.128, -3.615e-8
0.129, -3.601e-8
0.130, -3.587e-8
0.131, -3.573e-8
0.132, -3.559e-8
0.133, -3.546e-8
0.134, -3.533e-8
0.135, -3.518e-8
0.136, -3.505e-8
0.137, -3.492e-8
0.138, -3.479e-8
0.139, -3.466e-8
0.140, -3.453e-8
0.141, -3.440e-8
0.142, -3.427e-8
0.143, -3.415e-8
0.144, -3.402e-8
0.145, -3.390e-8
0.146, -3.377e-8
0.147, -3.365e-8
0.148, -3.354e-8
0.149, -3.341e-8
0.150, -3.329e-8
0.151, -3.317e-8
0.152, -3.306e-8
0.153, -3.295e-8
0.154, -3.283e-8
0.155, -3.272e-8
0.156, -3.261e-8
0.157, -3.250e-8
0.158, -3.240e-8
0.159, -3.230e-8
0.160, -3.219e-8
0.161, -3.209e-8
0.162, -3.199e-8
0.163, -3.189e-8
0.164, -3.180e-8
0.165, -3.170e-8
0.166, -3.160e-8
0.167, -3.151e-8
0.168, -3.142e-8
0.169, -3.133e-8
0.170, -3.124e-8
0.171, -3.115e-8
0.172, -3.106e-8
0.173, -3.097e-8
0.174, -3.089e-8
0.175, -3.080e-8
0.176, -3.072e-8
0.177, -3.064e-8
0.178, -3.056e-8
0.179, -3.049e-8
0.180, -3.041e-8
0.181, -3.033e-8
0.182, -3.026e-8
0.183, -3.019e-8
0.184, -3.012e-8
0.185, -3.005e-8
0.186, -2.998e-8
0.187, -2.992e-8
0.188, -2.985e-8
0.189, -2.978e-8
0.190, -2.972e-8
0.191, -2.966e-8
0.192, -2.959e-8
0.193, -2.953e-8
0.194, -2.947e-8
0.195, -2.940e-8
0.196, -2.935e-8
0.197, -2.929e-8
0.198, -2.924e-8
0.199, -2.918e-8
0.200, -2.912e-8
0.201, -2.907e-8
0.202, -2.902e-8
0.203, -2.897e-8
0.204, -2.892e-8
0.205, -2.888e-8
0.206, -2.883e-8
0.207, -2.878e-8
0.208, -2.873e-8
0.209, -2.869e-8
0.210, -2.864e-8
0.211, -2.859e-8
0.212, -2.855e-8
0.213, -2.850e-8
0.214, -2.847e-8
0.215, -2.842e-8
0.216, -2.838e-8
0.217, -2.834e-8
0.218, -2.830e-8
0.219, -2.827e-8
0.220, -2.823e-8
0.221, -2.819e-8
0.222, -2.815e-8
0.223, -2.812e-8
0.224, -2.808e-8
0.225, -2.805e-8
0.226, -2.801e-8
0.227, -2.798e-8
0.228, -2.795e-8
0.229, -2.792e-8
0.230, -2.789e-8
0.231, -2.786e-8
0.232, -2.782e-8
0.233, -2.780e-8
0.234, -2.777e-8
0.235, -2.774e-8
0.236, -2.772e-8
0.237, -2.769e-8
0.238, -2.766e-8
0.239, -2.764e-8
0.240, -2.761e-8
0.241, -2.759e-8
0.242, -2.756e-8
0.243, -2.755e-8
0.244, -2.753e-8
0.245, -2.750e-8
0.246, -2.748e-8
0.247, -2.746e-8
0.248, -2.744e-8
0.249, -2.742e-8
0.250, -2.740e-8
0.251, -2.738e-8
0.252, -2.737e-8
0.253, -2.735e-8
0.254, -2.733e-8
0.255, -2.731e-8
0.256, -2.730e-8
0.257, -2.728e-8
0.258, -2.727e-8
0.259, -2.725e-8
0.260, -2.724e-8
0.261, -2.722e-8
0.262, -2.721e-8
0.263, -2.720e-8
0.264, -2.718e-8
0.265, -2.717e-8
0.266, -2.716e-8
0.267, -2.714e-8
0.268, -2.713e-8
0.269, -2.712e-8
0.270, -2.711e-8
0.271, -2.710e-8
0.272, -2.709e-8
0.273, -2.709e-8
0.274, -2.708e-8
0.275, -2.707e-8
0.276, -2.706e-8
0.277, -2.705e-8
0.278, -2.705e-8
0.279, -2.704e-8
0.280, -2.704e-8
0.281, -2.704e-8
0.282, -2.703e-8
0.283, -2.703e-8
0.284, -2.703e-8
0.285, -2.702e-8
0.286, -2.702e-8
0.287, -2.701e-8
0.288, -2.700e-8
0.289, -2.701e-8
0.290, -2.700e-8
0.291, -2.700e-8
0.292, -2.700e-8
0.293, -2.700e-8
0.294, -2.700e-8
0.295, -2.701e-8
0.296, -2.700e-8
0.297, -2.701e-8
0.298, -2.700e-8
0.299, -2.700e-8
0.300, -2.664e-8
0.299, -2.561e-8
0.298, -2.528e-8
0.297, -2.511e-8
0.296, -2.498e-8
0.295, -2.485e-8
0.294, -2.475e-8
0.293, -2.465e-8
0.292, -2.456e-8
0.291, -2.448e-8
0.290, -2.440e-8
0.289, -2.432e-8
0.288, -2.425e-8
0.287, -2.418e-8
0.286, -2.412e-8
0.285, -2.405e-8
0.284, -2.399e-8
0.283, -2.393e-8
0.282, -2.387e-8
0.281, -2.381e-8
0.280, -2.376e-8
0.279, -2.371e-8
0.278, -2.366e-8
0.277, -2.361e-8
0.276, -2.357e-8
0.275, -2.352e-8
0.274, -2.347e-8
0.273, -2.343e-8
0.272, -2.339e-8
0.271, -2.334e-8
0.270, -2.330e-8
0.269, -2.326e-8
0.268, -2.321e-8
0.267, -2.318e-8
0.266, -2.314e-8
0.265, -2.310e-8
0.264, -2.306e-8
0.263, -2.302e-8
0.262, -2.299e-8
0.261, -2.294e-8
0.260, -2.291e-8
0.259, -2.288e-8
0.258, -2.284e-8
0.257, -2.281e-8
0.256, -2.278e-8
0.255, -2.275e-8
0.254, -2.272e-8
0.253, -2.268e-8
0.252, -2.266e-8
0.251, -2.263e-8
0.250, -2.259e-8
0.249, -2.257e-8
0.248, -2.253e-8
0.247, -2.250e-8
0.246, -2.247e-8
0.245, -2.244e-8
0.244, -2.241e-8
0.243, -2.238e-8
0.242, -2.235e-8
0.241, -2.233e-8
0.240, -2.230e-8
0.239, -2.227e-8
0.238, -2.224e-8
0.237, -2.221e-8
0.236, -2.218e-8
0.235, -2.215e-8
0.234, -2.213e-8
0.233, -2.210e-8
0.232, -2.208e-8
0.231, -2.205e-8
0.230, -2.202e-8
0.229, -2.200e-8
0.228, -2.197e-8
0.227, -2.195e-8
0.226, -2.192e-8
0.225, -2.189e-8
0.224, -2.187e-8
0.223, -2.184e-8
0.222, -2.182e-8
0.221, -2.179e-8
0.220, -2.177e-8
0.219, -2.174e-8
0.218, -2.171e-8
0.217, -2.169e-8
0.216, -2.167e-8
0.215, -2.164e-8
0.214, -2.161e-8
0.213, -2.159e-8
0.212, -2.156e-8
0.211, -2.154e-8
0.210, -2.151e-8
0.209, -2.148e-8
0.208, -2.146e-8
0.207, -2.143e-8
0.206, -2.140e-8
0.205, -2.137e-8
0.204, -2.134e-8
0.203, -2.132e-8
0.202, -2.129e-8
0.201, -2.126e-8
0.200, -2.123e-8
0.199, -2.120e-8
0.198, -2.118e-8
0.197, -2.115e-8
0.196, -2.111e-8
0.195, -2.108e-8
0.194, -2.105e-8
0.193, -2.102e-8
0.192, -2.099e-8
0.191, -2.096e-8
0.190, -2.093e-8
0.189, -2.089e-8
0.188, -2.086e-8
0.187, -2.084e-8
0.186, -2.080e-8
0.185, -2.076e-8
0.184, -2.073e-8
0.183, -2.069e-8
0.182, -2.066e-8
0.181, -2.062e-8
0.180, -2.058e-8
0.179, -2.054e-8
0.178, -2.050e-8
0.177, -2.047e-8
0.176, -2.042e-8
0.175, -2.037e-8
0.174, -2.033e-8
0.173, -2.029e-8
0.172, -2.024e-8
0.171, -2.020e-8
0.170, -2.015e-8
0.169, -2.011e-8
0.168, -2.006e-8
0.167, -2.001e-8
0.166, -1.996e-8
0.165, -1.990e-8
0.164, -1.985e-8
0.163, -1.979e-8
0.162, -1.973e-8
0.161, -1.967e-8
0.160, -1.961e-8
0.159, -1.955e-8
0.158, -1.948e-8
0.157, -1.942e-8
0.156, -1.935e-8
0.155, -1.927e-8
0.154, -1.920e-8
0.153, -1.914e-8
0.152, -1.906e-8
0.151, -1.898e-8
0.150, -1.890e-8
0.149, -1.882e-8
0.148, -1.873e-8
0.147, -1.864e-8
0.146, -1.855e-8
0.145, -1.845e-8
0.144, -1.835e-8
0.143, -1.825e-8
0.142, -1.816e-8
0.141, -1.805e-8
0.140, -1.793e-8
0.139, -1.783e-8
0.138, -1.770e-8
0.137, -1.759e-8
0.136, -1.746e-8
0.135, -1.733e-8
0.134, -1.721e-8
0.133, -1.707e-8
0.132, -1.693e-8
0.131, -1.678e-8
0.130, -1.663e-8
0.129, -1.648e-8
0.128, -1.632e-8
0.127, -1.615e-8
0.126, -1.599e-8
0.125, -1.582e-8
0.124, -1.564e-8
0.123, -1.546e-8
0.122, -1.527e-8
0.121, -1.507e-8
0.120, -1.486e-8
0.119, -1.466e-8
0.118, -1.445e-8
0.117, -1.423e-8
0.116, -1.400e-8
0.115, -1.377e-8
0.114, -1.353e-8
0.113, -1.330e-8
0.112, -1.305e-8
0.111, -1.279e-8
0.110, -1.253e-8
0.109, -1.225e-8
0.108, -1.197e-8
0.107, -1.169e-8
0.106, -1.138e-8
0.105, -1.109e-8
0.104, -1.077e-8
0.103, -1.046e-8
0.102, -1.012e-8
0.101, -9.789e-9
0.100, -9.456e-9
0.099, -9.109e-9
0.098, -8.749e-9
0.097, -8.394e-9
0.096, -8.017e-9
0.095, -7.632e-9
0.094, -7.249e-9
0.093, -6.854e-9
0.092, -6.448e-9
0.091, -6.041e-9
0.090, -5.614e-9
0.089, -5.196e-9
0.088, -4.762e-9
0.087, -4.323e-9
0.086, -3.887e-9
0.085, -3.435e-9
0.084, -2.983e-9
0.083, -2.523e-9
0.082, -2.048e-9
0.081, -1.590e-9
0.080, -1.107e-9
0.079, -6.262e-10
0.078, -1.444e-10
0.077, 3.571e-10
0.076, 8.616e-10
0.075, 1.354e-9
0.074, 1.853e-9
0.073, 2.332e-9
0.072, 2.836e-9
0.071, 3.341e-9
0.070, 3.831e-9
0.069, 4.339e-9
0.068, 4.824e-9
0.067, 5.318e-9
0.066, 5.832e-9
0.065, 6.311e-9
0.064, 6.811e-9
0.063, 7.297e-9
0.062, 7.767e-9
0.061, 8.251e-9
0.060, 8.712e-9
0.059, 9.187e-9
0.058, 9.646e-9
0.057, 1.008e-8
0.056, 1.053e-8
0.055, 1.097e-8
0.054, 1.138e-8
0.053, 1.180e-8
0.052, 1.220e-8
0.051, 1.260e-8
0.050, 1.300e-8
0.049, 1.335e-8
0.048, 1.371e-8
0.047, 1.406e-8
0.046, 1.439e-8
0.045, 1.472e-8
0.044, 1.502e-8
0.043, 1.532e-8
0.042, 1.563e-8
0.041, 1.588e-8
0.040, 1.616e-8
0.039, 1.642e-8
0.038, 1.665e-8
0.037, 1.689e-8
0.036, 1.709e-8
0.035, 1.728e-8
0.034, 1.747e-8
0.033, 1.763e-8
0.032, 1.779e-8
0.031, 1.794e-8
0.030, 1.807e-8
0.029, 1.820e-8
0.028, 1.829e-8
0.027, 1.840e-8
0.026, 1.850e-8
0.025, 1.858e-8
0.024, 1.864e-8
0.023, 1.870e-8
0.022, 1.873e-8
0.021, 1.877e-8
0.020, 1.879e-8
0.019, 1.880e-8
0.018, 1.881e-8
0.017, 1.880e-8
0.016, 1.879e-8
0.015, 1.878e-8
0.014, 1.875e-8
0.013, 1.872e-8
0.012, 1.868e-8
0.011, 1.863e-8
0.010, 1.858e-8
0.009, 1.852e-8
0.008, 1.846e-8
0.007, 1.839e-8
0.006, 1.831e-8
0.005, 1.824e-8
0.004, 1.815e-8
0.003, 1.806e-8
0.002, 1.798e-8
0.001, 1.788e-8
0.000, 1.783e-8
-0.001, 1.774e-8
-0.002, 1.761e-8
-0.003, 1.750e-8
-0.004, 1.739e-8
-0.005, 1.727e-8
-0.006, 1.717e-8
-0.007, 1.704e-8
-0.008, 1.693e-8
-0.009, 1.682e-8
-0.010, 1.670e-8
-0.011, 1.658e-8
-0.012, 1.646e-8
-0.013, 1.634e-8
-0.014, 1.622e-8
-0.015, 1.609e-8
-0.016, 1.598e-8
-0.017, 1.585e-8
-0.018, 1.573e-8
-0.019, 1.562e-8
-0.020, 1.550e-8
-0.021, 1.538e-8
-0.022, 1.527e-8
-0.023, 1.514e-8
-0.024, 1.503e-8
-0.025, 1.491e-8
-0.026, 1.480e-8
-0.027, 1.469e-8
-0.028, 1.457e-8
-0.029, 1.446e-8
-0.030, 1.435e-8
-0.031, 1.424e-8
-0.032, 1.413e-8
-0.033, 1.403e-8
-0.034, 1.391e-8
-0.035, 1.381e-8
-0.036, 1.371e-8
-0.037, 1.360e-8
-0.038, 1.351e-8
-0.039, 1.340e-8
-0.040, 1.330e-8
-0.041, 1.321e-8
-0.042, 1.311e-8
-0.043, 1.301e-8
-0.044, 1.292e-8
-0.045, 1.283e-8
-0.046, 1.274e-8
-0.047, 1.264e-8
-0.048, 1.255e-8
-0.049, 1.247e-8
-0.050, 1.238e-8
-0.051, 1.231e-8
-0.052, 1.223e-8
-0.053, 1.214e-8
-0.054, 1.206e-8
-0.055, 1.198e-8
-0.056, 1.191e-8
-0.057, 1.183e-8
-0.058, 1.175e-8
-0.059, 1.168e-8
-0.060, 1.161e-8
-0.061, 1.154e-8
-0.062, 1.147e-8
-0.063, 1.139e-8
-0.064, 1.133e-8
-0.065, 1.127e-8
-0.066, 1.120e-8
-0.067, 1.114e-8
-0.068, 1.107e-8
-0.069, 1.101e-8
-0.070, 1.095e-8
-0.071, 1.089e-8
-0.072, 1.084e-8
-0.073, 1.078e-8
-0.074, 1.073e-8
-0.075, 1.068e-8
-0.076, 1.062e-8
-0.077, 1.057e-8
-0.078, 1.052e-8
-0.079, 1.047e-8
-0.080, 1.042e-8
-0.081, 1.038e-8
-0.082, 1.033e-8
-0.083, 1.028e-8
-0.084, 1.024e-8
-0.085, 1.020e-8
-0.086, 1.016e-8
-0.087, 1.011e-8
-0.088, 1.007e-8
-0.089, 1.004e-8
-0.090, 9.996e-9
-0.091, 9.959e-9
-0.092, 9.921e-9
-0.093, 9.881e-9
-0.094, 9.850e-9
-0.095, 9.817e-9
-0.096, 9.784e-9
-0.097, 9.753e-9
-0.098, 9.717e-9
-0.099, 9.687e-9
-0.100, 9.657e-9
-0.101, 9.630e-9
-0.102, 9.605e-9
-0.103, 9.577e-9
-0.104, 9.554e-9
-0.105, 9.532e-9
-0.106, 9.505e-9
-0.107, 9.481e-9
-0.108, 9.457e-9
-0.109, 9.434e-9
-0.110, 9.417e-9
-0.111, 9.394e-9
-0.112, 9.374e-9
-0.113, 9.356e-9
-0.114, 9.336e-9
-0.115, 9.324e-9
-0.116, 9.306e-9
-0.117, 9.287e-9
-0.118, 9.276e-9
-0.119, 9.260e-9
-0.120, 9.248e-9
-0.121, 9.236e-9
-0.122, 9.217e-9
-0.123, 9.209e-9
-0.124, 9.199e-9
-0.125, 9.188e-9
-0.126, 9.183e-9
-0.127, 9.171e-9
-0.128, 9.164e-9
-0.129, 9.162e-9
-0.130, 9.154e-9
-0.131, 9.150e-9
-0.132, 9.143e-9
-0.133, 9.138e-9
-0.134, 9.138e-9
-0.135, 9.134e-9
-0.136, 9.132e-9
-0.137, 9.133e-9
-0.138, 9.127e-9
-0.139, 9.130e-9
-0.140, 9.134e-9
-0.141, 9.137e-9
-0.142, 9.139e-9
-0.143, 9.137e-9
-0.144, 9.144e-9
-0.145, 9.152e-9
-0.146, 9.153e-9
-0.147, 9.160e-9
-0.148, 9.165e-9
-0.149, 9.173e-9
-0.150, 9.184e-9
-0.151, 9.191e-9
-0.152, 9.201e-9
-0.153, 9.213e-9
-0.154, 9.224e-9
-0.155, 9.238e-9
-0.156, 9.252e-9
-0.157, 9.263e-9
-0.158, 9.276e-9
-0.159, 9.289e-9
-0.160, 9.305e-9
-0.161, 9.323e-9
-0.162, 9.335e-9
-0.163, 9.355e-9
-0.164, 9.372e-9
-0.165, 9.391e-9
-0.166, 9.416e-9
-0.167, 9.431e-9
-0.168, 9.451e-9
-0.169, 9.477e-9
-0.170, 9.495e-9
-0.171, 9.523e-9
-0.172, 9.544e-9
-0.173, 9.565e-9
-0.174, 9.592e-9
-0.175, 9.615e-9
-0.176, 9.643e-9
-0.177, 9.672e-9
-0.178, 9.697e-9
-0.179, 9.728e-9
-0.180, 9.761e-9
-0.181, 9.790e-9
-0.182, 9.821e-9
-0.183, 9.850e-9
-0.184, 9.885e-9
-0.185, 9.920e-9
-0.186, 9.950e-9
-0.187, 9.987e-9
-0.188, 1.002e-8
-0.189, 1.006e-8
-0.190, 1.010e-8
-0.191, 1.013e-8
-0.192, 1.017e-8
-0.193, 1.021e-8
-0.194, 1.025e-8
-0.195, 1.029e-8
-0.196, 1.034e-8
-0.197, 1.038e-8
-0.198, 1.042e-8
-0.199, 1.046e-8
