Mar. 16, 2023   09:46:49
Cyclic Voltammetry
File: c:/users/oliverrz/desktop/electrolab/data/2023_03_16\fcmeoh_macros_750_um\electrode4_cv_50mvs_750_um.bin
Data Source:  Experiment
Instrument Model:  CHI760E
Header: CV
Note: 

Init E (V) = -0.2
High E (V) = 0.3
Low E (V) = -0.2
Final E (V) = -0.2
Init P/N = P
Scan Rate (V/s) = 0.05
Segment = 3
Sample Interval (V) = 0.001
Quiet Time (sec) = 2
Sensitivity (A/V) = 1e-7

Results:

Channel 1:
Segment 1:
Ep = 0.103V
ip = -3.439e-8A
Ah = -4.400e-8C

Segment 2:
Ep = 0.034V
ip = 3.495e-8A
Ah = 4.548e-8C

Segment 3:

Potential/V, Current/A

-0.200, 8.868e-9
-0.199, 8.333e-9
-0.198, 8.146e-9
-0.197, 8.014e-9
-0.196, 7.889e-9
-0.195, 7.775e-9
-0.194, 7.661e-9
-0.193, 7.554e-9
-0.192, 7.450e-9
-0.191, 7.345e-9
-0.190, 7.245e-9
-0.189, 7.148e-9
-0.188, 7.052e-9
-0.187, 6.959e-9
-0.186, 6.863e-9
-0.185, 6.769e-9
-0.184, 6.678e-9
-0.183, 6.588e-9
-0.182, 6.506e-9
-0.181, 6.422e-9
-0.180, 6.330e-9
-0.179, 6.245e-9
-0.178, 6.165e-9
-0.177, 6.085e-9
-0.176, 6.006e-9
-0.175, 5.924e-9
-0.174, 5.849e-9
-0.173, 5.773e-9
-0.172, 5.697e-9
-0.171, 5.626e-9
-0.170, 5.546e-9
-0.169, 5.472e-9
-0.168, 5.405e-9
-0.167, 5.334e-9
-0.166, 5.265e-9
-0.165, 5.192e-9
-0.164, 5.123e-9
-0.163, 5.061e-9
-0.162, 4.997e-9
-0.161, 4.930e-9
-0.160, 4.866e-9
-0.159, 4.800e-9
-0.158, 4.742e-9
-0.157, 4.681e-9
-0.156, 4.620e-9
-0.155, 4.557e-9
-0.154, 4.491e-9
-0.153, 4.438e-9
-0.152, 4.387e-9
-0.151, 4.329e-9
-0.150, 4.271e-9
-0.149, 4.214e-9
-0.148, 4.159e-9
-0.147, 4.113e-9
-0.146, 4.057e-9
-0.145, 3.999e-9
-0.144, 3.948e-9
-0.143, 3.895e-9
-0.142, 3.850e-9
-0.141, 3.797e-9
-0.140, 3.744e-9
-0.139, 3.694e-9
-0.138, 3.648e-9
-0.137, 3.603e-9
-0.136, 3.558e-9
-0.135, 3.505e-9
-0.134, 3.461e-9
-0.133, 3.415e-9
-0.132, 3.372e-9
-0.131, 3.331e-9
-0.130, 3.281e-9
-0.129, 3.234e-9
-0.128, 3.194e-9
-0.127, 3.148e-9
-0.126, 3.109e-9
-0.125, 3.064e-9
-0.124, 3.022e-9
-0.123, 2.986e-9
-0.122, 2.945e-9
-0.121, 2.906e-9
-0.120, 2.863e-9
-0.119, 2.820e-9
-0.118, 2.787e-9
-0.117, 2.748e-9
-0.116, 2.708e-9
-0.115, 2.668e-9
-0.114, 2.628e-9
-0.113, 2.596e-9
-0.112, 2.564e-9
-0.111, 2.522e-9
-0.110, 2.486e-9
-0.109, 2.448e-9
-0.108, 2.413e-9
-0.107, 2.382e-9
-0.106, 2.344e-9
-0.105, 2.308e-9
-0.104, 2.275e-9
-0.103, 2.239e-9
-0.102, 2.206e-9
-0.101, 2.174e-9
-0.100, 2.133e-9
-0.099, 2.102e-9
-0.098, 2.067e-9
-0.097, 2.037e-9
-0.096, 2.005e-9
-0.095, 1.966e-9
-0.094, 1.933e-9
-0.093, 1.903e-9
-0.092, 1.868e-9
-0.091, 1.839e-9
-0.090, 1.799e-9
-0.089, 1.766e-9
-0.088, 1.738e-9
-0.087, 1.705e-9
-0.086, 1.676e-9
-0.085, 1.637e-9
-0.084, 1.600e-9
-0.083, 1.571e-9
-0.082, 1.539e-9
-0.081, 1.506e-9
-0.080, 1.472e-9
-0.079, 1.434e-9
-0.078, 1.406e-9
-0.077, 1.370e-9
-0.076, 1.333e-9
-0.075, 1.299e-9
-0.074, 1.263e-9
-0.073, 1.233e-9
-0.072, 1.202e-9
-0.071, 1.165e-9
-0.070, 1.128e-9
-0.069, 1.088e-9
-0.068, 1.054e-9
-0.067, 1.024e-9
-0.066, 9.829e-10
-0.065, 9.434e-10
-0.064, 9.015e-10
-0.063, 8.622e-10
-0.062, 8.280e-10
-0.061, 7.880e-10
-0.060, 7.439e-10
-0.059, 7.055e-10
-0.058, 6.644e-10
-0.057, 6.222e-10
-0.056, 5.767e-10
-0.055, 5.239e-10
-0.054, 4.810e-10
-0.053, 4.391e-10
-0.052, 3.958e-10
-0.051, 3.436e-10
-0.050, 2.907e-10
-0.049, 2.426e-10
-0.048, 1.983e-10
-0.047, 1.441e-10
-0.046, 9.433e-11
-0.045, 3.713e-11
-0.044, -1.987e-11
-0.043, -7.076e-11
-0.042, -1.281e-10
-0.041, -1.872e-10
-0.040, -2.506e-10
-0.039, -3.164e-10
-0.038, -3.781e-10
-0.037, -4.424e-10
-0.036, -5.095e-10
-0.035, -5.785e-10
-0.034, -6.551e-10
-0.033, -7.252e-10
-0.032, -7.941e-10
-0.031, -8.776e-10
-0.030, -9.575e-10
-0.029, -1.040e-9
-0.028, -1.121e-9
-0.027, -1.197e-9
-0.026, -1.297e-9
-0.025, -1.393e-9
-0.024, -1.485e-9
-0.023, -1.583e-9
-0.022, -1.677e-9
-0.021, -1.783e-9
-0.020, -1.894e-9
-0.019, -2.001e-9
-0.018, -2.114e-9
-0.017, -2.228e-9
-0.016, -2.348e-9
-0.015, -2.475e-9
-0.014, -2.598e-9
-0.013, -2.731e-9
-0.012, -2.870e-9
-0.011, -3.004e-9
-0.010, -3.156e-9
-0.009, -3.305e-9
-0.008, -3.451e-9
-0.007, -3.603e-9
-0.006, -3.763e-9
-0.005, -3.935e-9
-0.004, -4.112e-9
-0.003, -4.283e-9
-0.002, -4.468e-9
-0.001, -4.657e-9
-0.000, -4.895e-9
0.001, -5.096e-9
0.002, -5.284e-9
0.003, -5.488e-9
0.004, -5.706e-9
0.005, -5.934e-9
0.006, -6.167e-9
0.007, -6.397e-9
0.008, -6.638e-9
0.009, -6.898e-9
0.010, -7.151e-9
0.011, -7.429e-9
0.012, -7.701e-9
0.013, -7.979e-9
0.014, -8.276e-9
0.015, -8.566e-9
0.016, -8.867e-9
0.017, -9.178e-9
0.018, -9.489e-9
0.019, -9.816e-9
0.020, -1.016e-8
0.021, -1.049e-8
0.022, -1.085e-8
0.023, -1.120e-8
0.024, -1.156e-8
0.025, -1.195e-8
0.026, -1.233e-8
0.027, -1.272e-8
0.028, -1.312e-8
0.029, -1.350e-8
0.030, -1.392e-8
0.031, -1.434e-8
0.032, -1.476e-8
0.033, -1.520e-8
0.034, -1.564e-8
0.035, -1.609e-8
0.036, -1.654e-8
0.037, -1.699e-8
0.038, -1.746e-8
0.039, -1.793e-8
0.040, -1.840e-8
0.041, -1.889e-8
0.042, -1.935e-8
0.043, -1.984e-8
0.044, -2.033e-8
0.045, -2.082e-8
0.046, -2.134e-8
0.047, -2.183e-8
0.048, -2.232e-8
0.049, -2.284e-8
0.050, -2.334e-8
0.051, -2.385e-8
0.052, -2.437e-8
0.053, -2.486e-8
0.054, -2.536e-8
0.055, -2.585e-8
0.056, -2.635e-8
0.057, -2.686e-8
0.058, -2.733e-8
0.059, -2.782e-8
0.060, -2.831e-8
0.061, -2.877e-8
0.062, -2.925e-8
0.063, -2.970e-8
0.064, -3.017e-8
0.065, -3.063e-8
0.066, -3.106e-8
0.067, -3.149e-8
0.068, -3.191e-8
0.069, -3.232e-8
0.070, -3.272e-8
0.071, -3.311e-8
0.072, -3.349e-8
0.073, -3.387e-8
0.074, -3.421e-8
0.075, -3.456e-8
0.076, -3.491e-8
0.077, -3.521e-8
0.078, -3.553e-8
0.079, -3.582e-8
0.080, -3.610e-8
0.081, -3.637e-8
0.082, -3.661e-8
0.083, -3.686e-8
0.084, -3.708e-8
0.085, -3.729e-8
0.086, -3.750e-8
0.087, -3.768e-8
0.088, -3.786e-8
0.089, -3.803e-8
0.090, -3.817e-8
0.091, -3.832e-8
0.092, -3.844e-8
0.093, -3.854e-8
0.094, -3.864e-8
0.095, -3.873e-8
0.096, -3.882e-8
0.097, -3.888e-8
0.098, -3.893e-8
0.099, -3.898e-8
0.100, -3.901e-8
0.101, -3.904e-8
0.102, -3.906e-8
0.103, -3.907e-8
0.104, -3.906e-8
0.105, -3.906e-8
0.106, -3.902e-8
0.107, -3.899e-8
0.108, -3.896e-8
0.109, -3.890e-8
0.110, -3.886e-8
0.111, -3.880e-8
0.112, -3.872e-8
0.113, -3.866e-8
0.114, -3.858e-8
0.115, -3.851e-8
0.116, -3.843e-8
0.117, -3.833e-8
0.118, -3.823e-8
0.119, -3.813e-8
0.120, -3.803e-8
0.121, -3.793e-8
0.122, -3.781e-8
0.123, -3.770e-8
0.124, -3.759e-8
0.125, -3.747e-8
0.126, -3.737e-8
0.127, -3.724e-8
0.128, -3.712e-8
0.129, -3.700e-8
0.130, -3.688e-8
0.131, -3.675e-8
0.132, -3.662e-8
0.133, -3.648e-8
0.134, -3.636e-8
0.135, -3.623e-8
0.136, -3.610e-8
0.137, -3.597e-8
0.138, -3.583e-8
0.139, -3.570e-8
0.140, -3.558e-8
0.141, -3.545e-8
0.142, -3.532e-8
0.143, -3.519e-8
0.144, -3.506e-8
0.145, -3.494e-8
0.146, -3.481e-8
0.147, -3.468e-8
0.148, -3.456e-8
0.149, -3.442e-8
0.150, -3.430e-8
0.151, -3.418e-8
0.152, -3.405e-8
0.153, -3.394e-8
0.154, -3.382e-8
0.155, -3.370e-8
0.156, -3.359e-8
0.157, -3.346e-8
0.158, -3.335e-8
0.159, -3.324e-8
0.160, -3.312e-8
0.161, -3.301e-8
0.162, -3.290e-8
0.163, -3.279e-8
0.164, -3.268e-8
0.165, -3.257e-8
0.166, -3.248e-8
0.167, -3.238e-8
0.168, -3.227e-8
0.169, -3.217e-8
0.170, -3.207e-8
0.171, -3.197e-8
0.172, -3.188e-8
0.173, -3.177e-8
0.174, -3.168e-8
0.175, -3.159e-8
0.176, -3.149e-8
0.177, -3.141e-8
0.178, -3.131e-8
0.179, -3.122e-8
0.180, -3.114e-8
0.181, -3.106e-8
0.182, -3.097e-8
0.183, -3.088e-8
0.184, -3.079e-8
0.185, -3.071e-8
0.186, -3.064e-8
0.187, -3.056e-8
0.188, -3.048e-8
0.189, -3.041e-8
0.190, -3.034e-8
0.191, -3.026e-8
0.192, -3.019e-8
0.193, -3.012e-8
0.194, -3.005e-8
0.195, -2.998e-8
0.196, -2.991e-8
0.197, -2.984e-8
0.198, -2.978e-8
0.199, -2.972e-8
0.200, -2.966e-8
0.201, -2.960e-8
0.202, -2.953e-8
0.203, -2.947e-8
0.204, -2.941e-8
0.205, -2.936e-8
0.206, -2.930e-8
0.207, -2.924e-8
0.208, -2.918e-8
0.209, -2.913e-8
0.210, -2.908e-8
0.211, -2.903e-8
0.212, -2.898e-8
0.213, -2.893e-8
0.214, -2.888e-8
0.215, -2.884e-8
0.216, -2.879e-8
0.217, -2.875e-8
0.218, -2.870e-8
0.219, -2.865e-8
0.220, -2.861e-8
0.221, -2.857e-8
0.222, -2.852e-8
0.223, -2.848e-8
0.224, -2.843e-8
0.225, -2.840e-8
0.226, -2.836e-8
0.227, -2.832e-8
0.228, -2.829e-8
0.229, -2.825e-8
0.230, -2.822e-8
0.231, -2.818e-8
0.232, -2.814e-8
0.233, -2.811e-8
0.234, -2.807e-8
0.235, -2.805e-8
0.236, -2.802e-8
0.237, -2.798e-8
0.238, -2.795e-8
0.239, -2.793e-8
0.240, -2.790e-8
0.241, -2.787e-8
0.242, -2.784e-8
0.243, -2.782e-8
0.244, -2.779e-8
0.245, -2.777e-8
0.246, -2.775e-8
0.247, -2.772e-8
0.248, -2.769e-8
0.249, -2.767e-8
0.250, -2.765e-8
0.251, -2.763e-8
0.252, -2.761e-8
0.253, -2.759e-8
0.254, -2.757e-8
0.255, -2.755e-8
0.256, -2.753e-8
0.257, -2.751e-8
0.258, -2.749e-8
0.259, -2.747e-8
0.260, -2.746e-8
0.261, -2.744e-8
0.262, -2.743e-8
0.263, -2.741e-8
0.264, -2.739e-8
0.265, -2.738e-8
0.266, -2.737e-8
0.267, -2.735e-8
0.268, -2.733e-8
0.269, -2.732e-8
0.270, -2.731e-8
0.271, -2.730e-8
0.272, -2.728e-8
0.273, -2.727e-8
0.274, -2.725e-8
0.275, -2.724e-8
0.276, -2.723e-8
0.277, -2.722e-8
0.278, -2.721e-8
0.279, -2.720e-8
0.280, -2.720e-8
0.281, -2.719e-8
0.282, -2.718e-8
0.283, -2.717e-8
0.284, -2.717e-8
0.285, -2.716e-8
0.286, -2.716e-8
0.287, -2.715e-8
0.288, -2.714e-8
0.289, -2.714e-8
0.290, -2.714e-8
0.291, -2.714e-8
0.292, -2.713e-8
0.293, -2.712e-8
0.294, -2.712e-8
0.295, -2.712e-8
0.296, -2.712e-8
0.297, -2.712e-8
0.298, -2.711e-8
0.299, -2.711e-8
0.300, -2.675e-8
0.299, -2.569e-8
0.298, -2.535e-8
0.297, -2.518e-8
0.296, -2.503e-8
0.295, -2.491e-8
0.294, -2.480e-8
0.293, -2.470e-8
0.292, -2.461e-8
0.291, -2.452e-8
0.290, -2.444e-8
0.289, -2.437e-8
0.288, -2.429e-8
0.287, -2.422e-8
0.286, -2.415e-8
0.285, -2.408e-8
0.284, -2.402e-8
0.283, -2.395e-8
0.282, -2.388e-8
0.281, -2.383e-8
0.280, -2.378e-8
0.279, -2.372e-8
0.278, -2.367e-8
0.277, -2.361e-8
0.276, -2.356e-8
0.275, -2.352e-8
0.274, -2.347e-8
0.273, -2.342e-8
0.272, -2.337e-8
0.271, -2.333e-8
0.270, -2.329e-8
0.269, -2.324e-8
0.268, -2.320e-8
0.267, -2.316e-8
0.266, -2.311e-8
0.265, -2.308e-8
0.264, -2.304e-8
0.263, -2.299e-8
0.262, -2.295e-8
0.261, -2.291e-8
0.260, -2.287e-8
0.259, -2.284e-8
0.258, -2.279e-8
0.257, -2.275e-8
0.256, -2.271e-8
0.255, -2.268e-8
0.254, -2.265e-8
0.253, -2.261e-8
0.252, -2.258e-8
0.251, -2.254e-8
0.250, -2.251e-8
0.249, -2.248e-8
0.248, -2.244e-8
0.247, -2.240e-8
0.246, -2.237e-8
0.245, -2.234e-8
0.244, -2.232e-8
0.243, -2.228e-8
0.242, -2.224e-8
0.241, -2.221e-8
0.240, -2.219e-8
0.239, -2.215e-8
0.238, -2.212e-8
0.237, -2.209e-8
0.236, -2.206e-8
0.235, -2.203e-8
0.234, -2.199e-8
0.233, -2.196e-8
0.232, -2.192e-8
0.231, -2.189e-8
0.230, -2.187e-8
0.229, -2.184e-8
0.228, -2.181e-8
0.227, -2.178e-8
0.226, -2.174e-8
0.225, -2.172e-8
0.224, -2.169e-8
0.223, -2.165e-8
0.222, -2.162e-8
0.221, -2.159e-8
0.220, -2.156e-8
0.219, -2.153e-8
0.218, -2.149e-8
0.217, -2.145e-8
0.216, -2.142e-8
0.215, -2.139e-8
0.214, -2.137e-8
0.213, -2.133e-8
0.212, -2.129e-8
0.211, -2.126e-8
0.210, -2.122e-8
0.209, -2.119e-8
0.208, -2.116e-8
0.207, -2.112e-8
0.206, -2.109e-8
0.205, -2.105e-8
0.204, -2.101e-8
0.203, -2.098e-8
0.202, -2.093e-8
0.201, -2.089e-8
0.200, -2.085e-8
0.199, -2.081e-8
0.198, -2.077e-8
0.197, -2.073e-8
0.196, -2.069e-8
0.195, -2.065e-8
0.194, -2.061e-8
0.193, -2.056e-8
0.192, -2.052e-8
0.191, -2.047e-8
0.190, -2.043e-8
0.189, -2.038e-8
0.188, -2.033e-8
0.187, -2.028e-8
0.186, -2.023e-8
0.185, -2.018e-8
0.184, -2.013e-8
0.183, -2.007e-8
0.182, -2.002e-8
0.181, -1.995e-8
0.180, -1.990e-8
0.179, -1.984e-8
0.178, -1.978e-8
0.177, -1.971e-8
0.176, -1.965e-8
0.175, -1.958e-8
0.174, -1.952e-8
0.173, -1.945e-8
0.172, -1.937e-8
0.171, -1.930e-8
0.170, -1.923e-8
0.169, -1.916e-8
0.168, -1.908e-8
0.167, -1.899e-8
0.166, -1.890e-8
0.165, -1.882e-8
0.164, -1.873e-8
0.163, -1.864e-8
0.162, -1.854e-8
0.161, -1.844e-8
0.160, -1.834e-8
0.159, -1.824e-8
0.158, -1.814e-8
0.157, -1.803e-8
0.156, -1.791e-8
0.155, -1.780e-8
0.154, -1.768e-8
0.153, -1.755e-8
0.152, -1.743e-8
0.151, -1.729e-8
0.150, -1.716e-8
0.149, -1.702e-8
0.148, -1.687e-8
0.147, -1.673e-8
0.146, -1.657e-8
0.145, -1.642e-8
0.144, -1.626e-8
0.143, -1.609e-8
0.142, -1.592e-8
0.141, -1.573e-8
0.140, -1.555e-8
0.139, -1.537e-8
0.138, -1.516e-8
0.137, -1.497e-8
0.136, -1.476e-8
0.135, -1.454e-8
0.134, -1.433e-8
0.133, -1.410e-8
0.132, -1.386e-8
0.131, -1.363e-8
0.130, -1.338e-8
0.129, -1.314e-8
0.128, -1.288e-8
0.127, -1.260e-8
0.126, -1.234e-8
0.125, -1.206e-8
0.124, -1.178e-8
0.123, -1.148e-8
0.122, -1.117e-8
0.121, -1.087e-8
0.120, -1.054e-8
0.119, -1.022e-8
0.118, -9.890e-9
0.117, -9.544e-9
0.116, -9.193e-9
0.115, -8.838e-9
0.114, -8.465e-9
0.113, -8.103e-9
0.112, -7.722e-9
0.111, -7.323e-9
0.110, -6.933e-9
0.109, -6.527e-9
0.108, -6.111e-9
0.107, -5.690e-9
0.106, -5.255e-9
0.105, -4.830e-9
0.104, -4.389e-9
0.103, -3.932e-9
0.102, -3.474e-9
0.101, -3.016e-9
0.100, -2.563e-9
0.099, -2.102e-9
0.098, -1.608e-9
0.097, -1.128e-9
0.096, -6.457e-10
0.095, -1.551e-10
0.094, 3.260e-10
0.093, 8.550e-10
0.092, 1.347e-9
0.091, 1.855e-9
0.090, 2.362e-9
0.089, 2.864e-9
0.088, 3.381e-9
0.087, 3.887e-9
0.086, 4.383e-9
0.085, 4.904e-9
0.084, 5.398e-9
0.083, 5.894e-9
0.082, 6.410e-9
0.081, 6.897e-9
0.080, 7.388e-9
0.079, 7.885e-9
0.078, 8.360e-9
0.077, 8.871e-9
0.076, 9.348e-9
0.075, 9.795e-9
0.074, 1.026e-8
0.073, 1.070e-8
0.072, 1.115e-8
0.071, 1.159e-8
0.070, 1.200e-8
0.069, 1.242e-8
0.068, 1.282e-8
0.067, 1.321e-8
0.066, 1.359e-8
0.065, 1.396e-8
0.064, 1.433e-8
0.063, 1.468e-8
0.062, 1.500e-8
0.061, 1.534e-8
0.060, 1.563e-8
0.059, 1.593e-8
0.058, 1.623e-8
0.057, 1.650e-8
0.056, 1.676e-8
0.055, 1.700e-8
0.054, 1.721e-8
0.053, 1.745e-8
0.052, 1.765e-8
0.051, 1.786e-8
0.050, 1.804e-8
0.049, 1.818e-8
0.048, 1.834e-8
0.047, 1.848e-8
0.046, 1.860e-8
0.045, 1.873e-8
0.044, 1.882e-8
0.043, 1.892e-8
0.042, 1.901e-8
0.041, 1.907e-8
0.040, 1.913e-8
0.039, 1.918e-8
0.038, 1.922e-8
0.037, 1.927e-8
0.036, 1.928e-8
0.035, 1.928e-8
0.034, 1.929e-8
0.033, 1.928e-8
0.032, 1.927e-8
0.031, 1.925e-8
0.030, 1.921e-8
0.029, 1.918e-8
0.028, 1.914e-8
0.027, 1.910e-8
0.026, 1.905e-8
0.025, 1.899e-8
0.024, 1.892e-8
0.023, 1.886e-8
0.022, 1.878e-8
0.021, 1.871e-8
0.020, 1.862e-8
0.019, 1.852e-8
0.018, 1.844e-8
0.017, 1.835e-8
0.016, 1.826e-8
0.015, 1.816e-8
0.014, 1.805e-8
0.013, 1.796e-8
0.012, 1.785e-8
0.011, 1.774e-8
0.010, 1.764e-8
0.009, 1.752e-8
0.008, 1.742e-8
0.007, 1.731e-8
0.006, 1.719e-8
0.005, 1.708e-8
0.004, 1.696e-8
0.003, 1.685e-8
0.002, 1.674e-8
0.001, 1.663e-8
0.000, 1.654e-8
-0.001, 1.643e-8
-0.002, 1.629e-8
-0.003, 1.618e-8
-0.004, 1.606e-8
-0.005, 1.594e-8
-0.006, 1.583e-8
-0.007, 1.572e-8
-0.008, 1.561e-8
-0.009, 1.550e-8
-0.010, 1.539e-8
-0.011, 1.528e-8
-0.012, 1.518e-8
-0.013, 1.507e-8
-0.014, 1.497e-8
-0.015, 1.486e-8
-0.016, 1.476e-8
-0.017, 1.466e-8
-0.018, 1.456e-8
-0.019, 1.447e-8
-0.020, 1.437e-8
-0.021, 1.426e-8
-0.022, 1.418e-8
-0.023, 1.408e-8
-0.024, 1.399e-8
-0.025, 1.390e-8
-0.026, 1.381e-8
-0.027, 1.372e-8
-0.028, 1.364e-8
-0.029, 1.355e-8
-0.030, 1.347e-8
-0.031, 1.338e-8
-0.032, 1.330e-8
-0.033, 1.323e-8
-0.034, 1.315e-8
-0.035, 1.307e-8
-0.036, 1.299e-8
-0.037, 1.292e-8
-0.038, 1.285e-8
-0.039, 1.278e-8
-0.040, 1.271e-8
-0.041, 1.263e-8
-0.042, 1.256e-8
-0.043, 1.250e-8
-0.044, 1.244e-8
-0.045, 1.237e-8
-0.046, 1.231e-8
-0.047, 1.226e-8
-0.048, 1.220e-8
-0.049, 1.215e-8
-0.050, 1.208e-8
-0.051, 1.203e-8
-0.052, 1.198e-8
-0.053, 1.192e-8
-0.054, 1.188e-8
-0.055, 1.182e-8
-0.056, 1.177e-8
-0.057, 1.173e-8
-0.058, 1.168e-8
-0.059, 1.163e-8
-0.060, 1.159e-8
-0.061, 1.154e-8
-0.062, 1.150e-8
-0.063, 1.146e-8
-0.064, 1.142e-8
-0.065, 1.138e-8
-0.066, 1.134e-8
-0.067, 1.131e-8
-0.068, 1.127e-8
-0.069, 1.124e-8
-0.070, 1.120e-8
-0.071, 1.117e-8
-0.072, 1.114e-8
-0.073, 1.111e-8
-0.074, 1.108e-8
-0.075, 1.105e-8
-0.076, 1.103e-8
-0.077, 1.100e-8
-0.078, 1.098e-8
-0.079, 1.095e-8
-0.080, 1.093e-8
-0.081, 1.091e-8
-0.082, 1.088e-8
-0.083, 1.087e-8
-0.084, 1.085e-8
-0.085, 1.083e-8
-0.086, 1.081e-8
-0.087, 1.080e-8
-0.088, 1.079e-8
-0.089, 1.078e-8
-0.090, 1.076e-8
-0.091, 1.074e-8
-0.092, 1.073e-8
-0.093, 1.072e-8
-0.094, 1.071e-8
-0.095, 1.070e-8
-0.096, 1.069e-8
-0.097, 1.069e-8
-0.098, 1.068e-8
-0.099, 1.068e-8
-0.100, 1.067e-8
-0.101, 1.067e-8
-0.102, 1.067e-8
-0.103, 1.067e-8
-0.104, 1.067e-8
-0.105, 1.067e-8
-0.106, 1.066e-8
-0.107, 1.067e-8
-0.108, 1.068e-8
-0.109, 1.068e-8
-0.110, 1.068e-8
-0.111, 1.068e-8
-0.112, 1.069e-8
-0.113, 1.070e-8
-0.114, 1.071e-8
-0.115, 1.072e-8
-0.116, 1.072e-8
-0.117, 1.073e-8
-0.118, 1.075e-8
-0.119, 1.076e-8
-0.120, 1.077e-8
-0.121, 1.079e-8
-0.122, 1.080e-8
-0.123, 1.082e-8
-0.124, 1.084e-8
-0.125, 1.085e-8
-0.126, 1.086e-8
-0.127, 1.088e-8
-0.128, 1.091e-8
-0.129, 1.093e-8
-0.130, 1.095e-8
-0.131, 1.097e-8
-0.132, 1.099e-8
-0.133, 1.102e-8
-0.134, 1.105e-8
-0.135, 1.107e-8
-0.136, 1.109e-8
-0.137, 1.112e-8
-0.138, 1.115e-8
-0.139, 1.118e-8
-0.140, 1.121e-8
-0.141, 1.124e-8
-0.142, 1.128e-8
-0.143, 1.131e-8
-0.144, 1.134e-8
-0.145, 1.137e-8
-0.146, 1.140e-8
-0.147, 1.145e-8
-0.148, 1.149e-8
-0.149, 1.152e-8
-0.150, 1.156e-8
-0.151, 1.160e-8
-0.152, 1.164e-8
-0.153, 1.169e-8
-0.154, 1.173e-8
-0.155, 1.177e-8
-0.156, 1.182e-8
-0.157, 1.186e-8
-0.158, 1.191e-8
-0.159, 1.196e-8
-0.160, 1.200e-8
-0.161, 1.205e-8
-0.162, 1.210e-8
-0.163, 1.216e-8
-0.164, 1.221e-8
-0.165, 1.226e-8
-0.166, 1.231e-8
-0.167, 1.236e-8
-0.168, 1.242e-8
-0.169, 1.248e-8
-0.170, 1.253e-8
-0.171, 1.259e-8
-0.172, 1.266e-8
-0.173, 1.272e-8
-0.174, 1.279e-8
-0.175, 1.284e-8
-0.176, 1.291e-8
-0.177, 1.298e-8
-0.178, 1.305e-8
-0.179, 1.311e-8
-0.180, 1.318e-8
-0.181, 1.325e-8
-0.182, 1.332e-8
-0.183, 1.339e-8
-0.184, 1.347e-8
-0.185, 1.354e-8
-0.186, 1.361e-8
-0.187, 1.369e-8
-0.188, 1.377e-8
-0.189, 1.385e-8
-0.190, 1.393e-8
-0.191, 1.400e-8
-0.192, 1.409e-8
-0.193, 1.418e-8
-0.194, 1.426e-8
-0.195, 1.434e-8
-0.196, 1.443e-8
-0.197, 1.451e-8
-0.198, 1.461e-8
-0.199, 1.469e-8
