Mar. 16, 2023   09:47:29
Cyclic Voltammetry
File: c:/users/oliverrz/desktop/electrolab/data/2023_03_16\fcmeoh_macros_750_um\electrode4_cv_200mvs_750_um.bin
Data Source:  Experiment
Instrument Model:  CHI760E
Header: CV
Note: 

Init E (V) = -0.2
High E (V) = 0.3
Low E (V) = -0.2
Final E (V) = -0.2
Init P/N = P
Scan Rate (V/s) = 0.2
Segment = 3
Sample Interval (V) = 0.001
Quiet Time (sec) = 2
Sensitivity (A/V) = 1e-7

Results:

Channel 1:
Segment 1:
Ep = 0.104V
ip = -5.252e-8A
Ah = -1.502e-8C

Segment 2:
Ep = 0.044V
ip = 5.789e-8A
Ah = 1.833e-8C

Segment 3:

Potential/V, Current/A

-0.200, 2.356e-8
-0.199, 2.162e-8
-0.198, 2.127e-8
-0.197, 2.095e-8
-0.196, 2.036e-8
-0.195, 2.012e-8
-0.194, 1.997e-8
-0.193, 1.948e-8
-0.192, 1.914e-8
-0.191, 1.907e-8
-0.190, 1.871e-8
-0.189, 1.830e-8
-0.188, 1.818e-8
-0.187, 1.799e-8
-0.186, 1.755e-8
-0.185, 1.733e-8
-0.184, 1.727e-8
-0.183, 1.687e-8
-0.182, 1.652e-8
-0.181, 1.655e-8
-0.180, 1.617e-8
-0.179, 1.581e-8
-0.178, 1.574e-8
-0.177, 1.555e-8
-0.176, 1.514e-8
-0.175, 1.498e-8
-0.174, 1.489e-8
-0.173, 1.454e-8
-0.172, 1.421e-8
-0.171, 1.424e-8
-0.170, 1.394e-8
-0.169, 1.355e-8
-0.168, 1.351e-8
-0.167, 1.335e-8
-0.166, 1.293e-8
-0.165, 1.280e-8
-0.164, 1.273e-8
-0.163, 1.240e-8
-0.162, 1.211e-8
-0.161, 1.210e-8
-0.160, 1.186e-8
-0.159, 1.148e-8
-0.158, 1.142e-8
-0.157, 1.131e-8
-0.156, 1.088e-8
-0.155, 1.077e-8
-0.154, 1.072e-8
-0.153, 1.035e-8
-0.152, 1.011e-8
-0.151, 1.013e-8
-0.150, 9.850e-9
-0.149, 9.524e-9
-0.148, 9.475e-9
-0.147, 9.374e-9
-0.146, 8.967e-9
-0.145, 8.833e-9
-0.144, 8.837e-9
-0.143, 8.482e-9
-0.142, 8.200e-9
-0.141, 8.263e-9
-0.140, 7.993e-9
-0.139, 7.661e-9
-0.138, 7.649e-9
-0.137, 7.514e-9
-0.136, 7.162e-9
-0.135, 7.034e-9
-0.134, 7.015e-9
-0.133, 6.714e-9
-0.132, 6.428e-9
-0.131, 6.511e-9
-0.130, 6.249e-9
-0.129, 5.912e-9
-0.128, 5.926e-9
-0.127, 5.807e-9
-0.126, 5.422e-9
-0.125, 5.365e-9
-0.124, 5.315e-9
-0.123, 5.034e-9
-0.122, 4.780e-9
-0.121, 4.846e-9
-0.120, 4.622e-9
-0.119, 4.301e-9
-0.118, 4.285e-9
-0.117, 4.215e-9
-0.116, 3.827e-9
-0.115, 3.753e-9
-0.114, 3.780e-9
-0.113, 3.428e-9
-0.112, 3.224e-9
-0.111, 3.301e-9
-0.110, 3.050e-9
-0.109, 2.777e-9
-0.108, 2.751e-9
-0.107, 2.693e-9
-0.106, 2.351e-9
-0.105, 2.252e-9
-0.104, 2.280e-9
-0.103, 1.962e-9
-0.102, 1.733e-9
-0.101, 1.845e-9
-0.100, 1.587e-9
-0.099, 1.312e-9
-0.098, 1.350e-9
-0.097, 1.234e-9
-0.096, 9.199e-10
-0.095, 8.569e-10
-0.094, 8.493e-10
-0.093, 5.945e-10
-0.092, 3.405e-10
-0.091, 4.559e-10
-0.090, 2.179e-10
-0.089, -7.815e-11
-0.088, -2.056e-11
-0.087, -9.154e-11
-0.086, -4.479e-10
-0.085, -4.967e-10
-0.084, -4.776e-10
-0.083, -7.535e-10
-0.082, -9.596e-10
-0.081, -8.799e-10
-0.080, -1.069e-9
-0.079, -1.364e-9
-0.078, -1.321e-9
-0.077, -1.392e-9
-0.076, -1.737e-9
-0.075, -1.772e-9
-0.074, -1.740e-9
-0.073, -2.047e-9
-0.072, -2.213e-9
-0.071, -2.117e-9
-0.070, -2.338e-9
-0.069, -2.601e-9
-0.068, -2.581e-9
-0.067, -2.616e-9
-0.066, -2.965e-9
-0.065, -3.034e-9
-0.064, -2.973e-9
-0.063, -3.267e-9
-0.062, -3.468e-9
-0.061, -3.336e-9
-0.060, -3.572e-9
-0.059, -3.821e-9
-0.058, -3.786e-9
-0.057, -3.889e-9
-0.056, -4.171e-9
-0.055, -4.230e-9
-0.054, -4.206e-9
-0.053, -4.495e-9
-0.052, -4.701e-9
-0.051, -4.597e-9
-0.050, -4.792e-9
-0.049, -5.106e-9
-0.048, -5.038e-9
-0.047, -5.111e-9
-0.046, -5.470e-9
-0.045, -5.488e-9
-0.044, -5.499e-9
-0.043, -5.768e-9
-0.042, -5.969e-9
-0.041, -5.906e-9
-0.040, -6.096e-9
-0.039, -6.401e-9
-0.038, -6.392e-9
-0.037, -6.438e-9
-0.036, -6.822e-9
-0.035, -6.870e-9
-0.034, -6.853e-9
-0.033, -7.187e-9
-0.032, -7.387e-9
-0.031, -7.316e-9
-0.030, -7.581e-9
-0.029, -7.849e-9
-0.028, -7.872e-9
-0.027, -7.972e-9
-0.026, -8.335e-9
-0.025, -8.458e-9
-0.024, -8.439e-9
-0.023, -8.785e-9
-0.022, -9.043e-9
-0.021, -8.961e-9
-0.020, -9.271e-9
-0.019, -9.575e-9
-0.018, -9.594e-9
-0.017, -9.790e-9
-0.016, -1.013e-8
-0.015, -1.028e-8
-0.014, -1.035e-8
-0.013, -1.071e-8
-0.012, -1.102e-8
-0.011, -1.100e-8
-0.010, -1.131e-8
-0.009, -1.172e-8
-0.008, -1.175e-8
-0.007, -1.198e-8
-0.006, -1.243e-8
-0.005, -1.259e-8
-0.004, -1.275e-8
-0.003, -1.314e-8
-0.002, -1.348e-8
-0.001, -1.358e-8
-0.000, -1.412e-8
0.001, -1.447e-8
0.002, -1.458e-8
0.003, -1.484e-8
0.004, -1.539e-8
0.005, -1.564e-8
0.006, -1.582e-8
0.007, -1.638e-8
0.008, -1.676e-8
0.009, -1.693e-8
0.010, -1.743e-8
0.011, -1.794e-8
0.012, -1.822e-8
0.013, -1.856e-8
0.014, -1.918e-8
0.015, -1.959e-8
0.016, -1.982e-8
0.017, -2.049e-8
0.018, -2.102e-8
0.019, -2.126e-8
0.020, -2.190e-8
0.021, -2.252e-8
0.022, -2.287e-8
0.023, -2.344e-8
0.024, -2.412e-8
0.025, -2.467e-8
0.026, -2.510e-8
0.027, -2.584e-8
0.028, -2.653e-8
0.029, -2.691e-8
0.030, -2.763e-8
0.031, -2.845e-8
0.032, -2.890e-8
0.033, -2.959e-8
0.034, -3.046e-8
0.035, -3.105e-8
0.036, -3.170e-8
0.037, -3.256e-8
0.038, -3.335e-8
0.039, -3.396e-8
0.040, -3.476e-8
0.041, -3.571e-8
0.042, -3.634e-8
0.043, -3.708e-8
0.044, -3.814e-8
0.045, -3.884e-8
0.046, -3.957e-8
0.047, -4.062e-8
0.048, -4.146e-8
0.049, -4.218e-8
0.050, -4.315e-8
0.051, -4.415e-8
0.052, -4.494e-8
0.053, -4.576e-8
0.054, -4.682e-8
0.055, -4.772e-8
0.056, -4.842e-8
0.057, -4.950e-8
0.058, -5.047e-8
0.059, -5.116e-8
0.060, -5.222e-8
0.061, -5.317e-8
0.062, -5.395e-8
0.063, -5.486e-8
0.064, -5.589e-8
0.065, -5.671e-8
0.066, -5.749e-8
0.067, -5.845e-8
0.068, -5.943e-8
0.069, -6.002e-8
0.070, -6.097e-8
0.071, -6.192e-8
0.072, -6.252e-8
0.073, -6.337e-8
0.074, -6.428e-8
0.075, -6.491e-8
0.076, -6.561e-8
0.077, -6.644e-8
0.078, -6.720e-8
0.079, -6.769e-8
0.080, -6.838e-8
0.081, -6.916e-8
0.082, -6.959e-8
0.083, -7.014e-8
0.084, -7.091e-8
0.085, -7.134e-8
0.086, -7.170e-8
0.087, -7.236e-8
0.088, -7.279e-8
0.089, -7.308e-8
0.090, -7.360e-8
0.091, -7.404e-8
0.092, -7.426e-8
0.093, -7.453e-8
0.094, -7.496e-8
0.095, -7.521e-8
0.096, -7.525e-8
0.097, -7.564e-8
0.098, -7.589e-8
0.099, -7.581e-8
0.100, -7.609e-8
0.101, -7.626e-8
0.102, -7.624e-8
0.103, -7.634e-8
0.104, -7.646e-8
0.105, -7.643e-8
0.106, -7.627e-8
0.107, -7.641e-8
0.108, -7.642e-8
0.109, -7.613e-8
0.110, -7.611e-8
0.111, -7.619e-8
0.112, -7.582e-8
0.113, -7.571e-8
0.114, -7.575e-8
0.115, -7.546e-8
0.116, -7.518e-8
0.117, -7.510e-8
0.118, -7.491e-8
0.119, -7.453e-8
0.120, -7.435e-8
0.121, -7.426e-8
0.122, -7.383e-8
0.123, -7.351e-8
0.124, -7.346e-8
0.125, -7.306e-8
0.126, -7.263e-8
0.127, -7.253e-8
0.128, -7.225e-8
0.129, -7.175e-8
0.130, -7.152e-8
0.131, -7.131e-8
0.132, -7.084e-8
0.133, -7.046e-8
0.134, -7.030e-8
0.135, -6.992e-8
0.136, -6.939e-8
0.137, -6.925e-8
0.138, -6.896e-8
0.139, -6.837e-8
0.140, -6.818e-8
0.141, -6.794e-8
0.142, -6.742e-8
0.143, -6.709e-8
0.144, -6.687e-8
0.145, -6.649e-8
0.146, -6.601e-8
0.147, -6.582e-8
0.148, -6.555e-8
0.149, -6.500e-8
0.150, -6.475e-8
0.151, -6.461e-8
0.152, -6.404e-8
0.153, -6.372e-8
0.154, -6.360e-8
0.155, -6.317e-8
0.156, -6.271e-8
0.157, -6.257e-8
0.158, -6.231e-8
0.159, -6.180e-8
0.160, -6.155e-8
0.161, -6.141e-8
0.162, -6.096e-8
0.163, -6.058e-8
0.164, -6.052e-8
0.165, -6.014e-8
0.166, -5.970e-8
0.167, -5.964e-8
0.168, -5.936e-8
0.169, -5.889e-8
0.170, -5.872e-8
0.171, -5.859e-8
0.172, -5.816e-8
0.173, -5.786e-8
0.174, -5.779e-8
0.175, -5.749e-8
0.176, -5.706e-8
0.177, -5.700e-8
0.178, -5.681e-8
0.179, -5.637e-8
0.180, -5.625e-8
0.181, -5.616e-8
0.182, -5.573e-8
0.183, -5.552e-8
0.184, -5.546e-8
0.185, -5.517e-8
0.186, -5.483e-8
0.187, -5.477e-8
0.188, -5.464e-8
0.189, -5.420e-8
0.190, -5.410e-8
0.191, -5.409e-8
0.192, -5.368e-8
0.193, -5.347e-8
0.194, -5.350e-8
0.195, -5.322e-8
0.196, -5.291e-8
0.197, -5.291e-8
0.198, -5.277e-8
0.199, -5.242e-8
0.200, -5.232e-8
0.201, -5.234e-8
0.202, -5.198e-8
0.203, -5.179e-8
0.204, -5.187e-8
0.205, -5.163e-8
0.206, -5.132e-8
0.207, -5.139e-8
0.208, -5.125e-8
0.209, -5.093e-8
0.210, -5.088e-8
0.211, -5.090e-8
0.212, -5.059e-8
0.213, -5.045e-8
0.214, -5.051e-8
0.215, -5.033e-8
0.216, -5.004e-8
0.217, -5.011e-8
0.218, -5.005e-8
0.219, -4.971e-8
0.220, -4.971e-8
0.221, -4.975e-8
0.222, -4.944e-8
0.223, -4.935e-8
0.224, -4.942e-8
0.225, -4.925e-8
0.226, -4.903e-8
0.227, -4.908e-8
0.228, -4.906e-8
0.229, -4.875e-8
0.230, -4.877e-8
0.231, -4.888e-8
0.232, -4.855e-8
0.233, -4.848e-8
0.234, -4.861e-8
0.235, -4.844e-8
0.236, -4.822e-8
0.237, -4.834e-8
0.238, -4.830e-8
0.239, -4.806e-8
0.240, -4.805e-8
0.241, -4.817e-8
0.242, -4.793e-8
0.243, -4.784e-8
0.244, -4.800e-8
0.245, -4.784e-8
0.246, -4.764e-8
0.247, -4.781e-8
0.248, -4.777e-8
0.249, -4.753e-8
0.250, -4.759e-8
0.251, -4.769e-8
0.252, -4.747e-8
0.253, -4.740e-8
0.254, -4.756e-8
0.255, -4.748e-8
0.256, -4.727e-8
0.257, -4.744e-8
0.258, -4.745e-8
0.259, -4.720e-8
0.260, -4.729e-8
0.261, -4.742e-8
0.262, -4.720e-8
0.263, -4.719e-8
0.264, -4.734e-8
0.265, -4.725e-8
0.266, -4.711e-8
0.267, -4.726e-8
0.268, -4.731e-8
0.269, -4.708e-8
0.270, -4.716e-8
0.271, -4.735e-8
0.272, -4.711e-8
0.273, -4.710e-8
0.274, -4.732e-8
0.275, -4.722e-8
0.276, -4.709e-8
0.277, -4.727e-8
0.278, -4.730e-8
0.279, -4.712e-8
0.280, -4.721e-8
0.281, -4.741e-8
0.282, -4.722e-8
0.283, -4.719e-8
0.284, -4.743e-8
0.285, -4.735e-8
0.286, -4.720e-8
0.287, -4.745e-8
0.288, -4.747e-8
0.289, -4.729e-8
0.290, -4.743e-8
0.291, -4.760e-8
0.292, -4.744e-8
0.293, -4.746e-8
0.294, -4.767e-8
0.295, -4.764e-8
0.296, -4.750e-8
0.297, -4.773e-8
0.298, -4.780e-8
0.299, -4.762e-8
0.300, -4.393e-8
0.299, -4.072e-8
0.298, -3.964e-8
0.297, -3.897e-8
0.296, -3.866e-8
0.295, -3.807e-8
0.294, -3.753e-8
0.293, -3.735e-8
0.292, -3.701e-8
0.291, -3.650e-8
0.290, -3.630e-8
0.289, -3.614e-8
0.288, -3.569e-8
0.287, -3.540e-8
0.286, -3.534e-8
0.285, -3.505e-8
0.284, -3.463e-8
0.283, -3.463e-8
0.282, -3.443e-8
0.281, -3.401e-8
0.280, -3.393e-8
0.279, -3.388e-8
0.278, -3.350e-8
0.277, -3.332e-8
0.276, -3.330e-8
0.275, -3.308e-8
0.274, -3.275e-8
0.273, -3.277e-8
0.272, -3.267e-8
0.271, -3.228e-8
0.270, -3.224e-8
0.269, -3.225e-8
0.268, -3.188e-8
0.267, -3.177e-8
0.266, -3.180e-8
0.265, -3.156e-8
0.264, -3.130e-8
0.263, -3.135e-8
0.262, -3.126e-8
0.261, -3.093e-8
0.260, -3.087e-8
0.259, -3.094e-8
0.258, -3.061e-8
0.257, -3.046e-8
0.256, -3.055e-8
0.255, -3.033e-8
0.254, -3.009e-8
0.253, -3.017e-8
0.252, -3.007e-8
0.251, -2.977e-8
0.250, -2.977e-8
0.249, -2.979e-8
0.248, -2.949e-8
0.247, -2.937e-8
0.246, -2.946e-8
0.245, -2.928e-8
0.244, -2.900e-8
0.243, -2.913e-8
0.242, -2.904e-8
0.241, -2.871e-8
0.240, -2.875e-8
0.239, -2.879e-8
0.238, -2.848e-8
0.237, -2.840e-8
0.236, -2.847e-8
0.235, -2.830e-8
0.234, -2.806e-8
0.233, -2.815e-8
0.232, -2.808e-8
0.231, -2.777e-8
0.230, -2.778e-8
0.229, -2.785e-8
0.228, -2.751e-8
0.227, -2.746e-8
0.226, -2.755e-8
0.225, -2.735e-8
0.224, -2.713e-8
0.223, -2.721e-8
0.222, -2.714e-8
0.221, -2.684e-8
0.220, -2.685e-8
0.219, -2.692e-8
0.218, -2.660e-8
0.217, -2.649e-8
0.216, -2.661e-8
0.215, -2.641e-8
0.214, -2.617e-8
0.213, -2.627e-8
0.212, -2.617e-8
0.211, -2.589e-8
0.210, -2.589e-8
0.209, -2.593e-8
0.208, -2.563e-8
0.207, -2.551e-8
0.206, -2.561e-8
0.205, -2.540e-8
0.204, -2.514e-8
0.203, -2.526e-8
0.202, -2.515e-8
0.201, -2.484e-8
0.200, -2.486e-8
0.199, -2.487e-8
0.198, -2.455e-8
0.197, -2.446e-8
0.196, -2.450e-8
0.195, -2.432e-8
0.194, -2.405e-8
0.193, -2.410e-8
0.192, -2.400e-8
0.191, -2.367e-8
0.190, -2.365e-8
0.189, -2.369e-8
0.188, -2.331e-8
0.187, -2.321e-8
0.186, -2.326e-8
0.185, -2.298e-8
0.184, -2.273e-8
0.183, -2.278e-8
0.182, -2.264e-8
0.181, -2.229e-8
0.180, -2.222e-8
0.179, -2.222e-8
0.178, -2.185e-8
0.177, -2.168e-8
0.176, -2.171e-8
0.175, -2.143e-8
0.174, -2.111e-8
0.173, -2.115e-8
0.172, -2.094e-8
0.171, -2.058e-8
0.170, -2.049e-8
0.169, -2.042e-8
0.168, -2.001e-8
0.167, -1.979e-8
0.166, -1.978e-8
0.165, -1.946e-8
0.164, -1.908e-8
0.163, -1.908e-8
0.162, -1.884e-8
0.161, -1.836e-8
0.160, -1.826e-8
0.159, -1.812e-8
0.158, -1.766e-8
0.157, -1.740e-8
0.156, -1.728e-8
0.155, -1.692e-8
0.154, -1.648e-8
0.153, -1.635e-8
0.152, -1.608e-8
0.151, -1.553e-8
0.150, -1.533e-8
0.149, -1.513e-8
0.148, -1.454e-8
0.147, -1.422e-8
0.146, -1.403e-8
0.145, -1.353e-8
0.144, -1.306e-8
0.143, -1.281e-8
0.142, -1.243e-8
0.141, -1.180e-8
0.140, -1.147e-8
0.139, -1.120e-8
0.138, -1.053e-8
0.137, -1.006e-8
0.136, -9.780e-9
0.135, -9.166e-9
0.134, -8.564e-9
0.133, -8.221e-9
0.132, -7.680e-9
0.131, -6.987e-9
0.130, -6.520e-9
0.129, -6.064e-9
0.128, -5.282e-9
0.127, -4.694e-9
0.126, -4.275e-9
0.125, -3.564e-9
0.124, -2.782e-9
0.123, -2.349e-9
0.122, -1.688e-9
0.121, -8.040e-10
0.120, -2.453e-10
0.119, 3.481e-10
0.118, 1.255e-9
0.117, 1.951e-9
0.116, 2.585e-9
0.115, 3.384e-9
0.114, 4.308e-9
0.113, 4.904e-9
0.112, 5.662e-9
0.111, 6.683e-9
0.110, 7.364e-9
0.109, 8.070e-9
0.108, 9.146e-9
0.107, 9.919e-9
0.106, 1.065e-8
0.105, 1.161e-8
0.104, 1.258e-8
0.103, 1.333e-8
0.102, 1.422e-8
0.101, 1.525e-8
0.100, 1.607e-8
0.099, 1.681e-8
0.098, 1.792e-8
0.097, 1.885e-8
0.096, 1.955e-8
0.095, 2.058e-8
0.094, 2.157e-8
0.093, 2.233e-8
0.092, 2.326e-8
0.091, 2.429e-8
0.090, 2.509e-8
0.089, 2.592e-8
0.088, 2.693e-8
0.087, 2.782e-8
0.086, 2.849e-8
0.085, 2.945e-8
0.084, 3.046e-8
0.083, 3.105e-8
0.082, 3.192e-8
0.081, 3.292e-8
0.080, 3.353e-8
0.079, 3.428e-8
0.078, 3.518e-8
0.077, 3.591e-8
0.076, 3.654e-8
0.075, 3.725e-8
0.074, 3.805e-8
0.073, 3.856e-8
0.072, 3.920e-8
0.071, 4.003e-8
0.070, 4.046e-8
0.069, 4.092e-8
0.068, 4.170e-8
0.067, 4.213e-8
0.066, 4.253e-8
0.065, 4.308e-8
0.064, 4.365e-8
0.063, 4.394e-8
0.062, 4.432e-8
0.061, 4.483e-8
0.060, 4.512e-8
0.059, 4.529e-8
0.058, 4.579e-8
0.057, 4.606e-8
0.056, 4.612e-8
0.055, 4.650e-8
0.054, 4.676e-8
0.053, 4.679e-8
0.052, 4.698e-8
0.051, 4.729e-8
0.050, 4.728e-8
0.049, 4.728e-8
0.048, 4.749e-8
0.047, 4.757e-8
0.046, 4.743e-8
0.045, 4.753e-8
0.044, 4.768e-8
0.043, 4.744e-8
0.042, 4.739e-8
0.041, 4.758e-8
0.040, 4.734e-8
0.039, 4.718e-8
0.038, 4.728e-8
0.037, 4.712e-8
0.036, 4.688e-8
0.035, 4.681e-8
0.034, 4.678e-8
0.033, 4.647e-8
0.032, 4.626e-8
0.031, 4.630e-8
0.030, 4.599e-8
0.029, 4.565e-8
0.028, 4.572e-8
0.027, 4.543e-8
0.026, 4.506e-8
0.025, 4.497e-8
0.024, 4.482e-8
0.023, 4.445e-8
0.022, 4.420e-8
0.021, 4.414e-8
0.020, 4.381e-8
0.019, 4.340e-8
0.018, 4.338e-8
0.017, 4.312e-8
0.016, 4.266e-8
0.015, 4.254e-8
0.014, 4.241e-8
0.013, 4.196e-8
0.012, 4.174e-8
0.011, 4.165e-8
0.010, 4.128e-8
0.009, 4.092e-8
0.008, 4.085e-8
0.007, 4.061e-8
0.006, 4.017e-8
0.005, 4.001e-8
0.004, 3.991e-8
0.003, 3.944e-8
0.002, 3.923e-8
0.001, 3.919e-8
0.000, 3.898e-8
-0.001, 3.850e-8
-0.002, 3.846e-8
-0.003, 3.821e-8
-0.004, 3.783e-8
-0.005, 3.768e-8
-0.006, 3.758e-8
-0.007, 3.720e-8
-0.008, 3.695e-8
-0.009, 3.696e-8
-0.010, 3.662e-8
-0.011, 3.629e-8
-0.012, 3.633e-8
-0.013, 3.609e-8
-0.014, 3.571e-8
-0.015, 3.567e-8
-0.016, 3.557e-8
-0.017, 3.522e-8
-0.018, 3.503e-8
-0.019, 3.505e-8
-0.020, 3.479e-8
-0.021, 3.446e-8
-0.022, 3.453e-8
-0.023, 3.436e-8
-0.024, 3.401e-8
-0.025, 3.401e-8
-0.026, 3.397e-8
-0.027, 3.361e-8
-0.028, 3.352e-8
-0.029, 3.355e-8
-0.030, 3.331e-8
-0.031, 3.305e-8
-0.032, 3.313e-8
-0.033, 3.301e-8
-0.034, 3.268e-8
-0.035, 3.269e-8
-0.036, 3.272e-8
-0.037, 3.239e-8
-0.038, 3.231e-8
-0.039, 3.243e-8
-0.040, 3.217e-8
-0.041, 3.196e-8
-0.042, 3.208e-8
-0.043, 3.197e-8
-0.044, 3.173e-8
-0.045, 3.173e-8
-0.046, 3.179e-8
-0.047, 3.152e-8
-0.048, 3.142e-8
-0.049, 3.160e-8
-0.050, 3.140e-8
-0.051, 3.120e-8
-0.052, 3.138e-8
-0.053, 3.127e-8
-0.054, 3.104e-8
-0.055, 3.114e-8
-0.056, 3.118e-8
-0.057, 3.094e-8
-0.058, 3.091e-8
-0.059, 3.106e-8
-0.060, 3.092e-8
-0.061, 3.073e-8
-0.062, 3.092e-8
-0.063, 3.089e-8
-0.064, 3.067e-8
-0.065, 3.077e-8
-0.066, 3.088e-8
-0.067, 3.063e-8
-0.068, 3.065e-8
-0.069, 3.082e-8
-0.070, 3.069e-8
-0.071, 3.056e-8
-0.072, 3.077e-8
-0.073, 3.076e-8
-0.074, 3.056e-8
-0.075, 3.068e-8
-0.076, 3.084e-8
-0.077, 3.063e-8
-0.078, 3.063e-8
-0.079, 3.088e-8
-0.080, 3.074e-8
-0.081, 3.065e-8
-0.082, 3.089e-8
-0.083, 3.088e-8
-0.084, 3.075e-8
-0.085, 3.087e-8
-0.086, 3.104e-8
-0.087, 3.087e-8
-0.088, 3.091e-8
-0.089, 3.117e-8
-0.090, 3.108e-8
-0.091, 3.099e-8
-0.092, 3.129e-8
-0.093, 3.126e-8
-0.094, 3.115e-8
-0.095, 3.135e-8
-0.096, 3.149e-8
-0.097, 3.137e-8
-0.098, 3.143e-8
-0.099, 3.169e-8
-0.100, 3.165e-8
-0.101, 3.158e-8
-0.102, 3.189e-8
-0.103, 3.194e-8
-0.104, 3.181e-8
-0.105, 3.204e-8
-0.106, 3.222e-8
-0.107, 3.210e-8
-0.108, 3.221e-8
-0.109, 3.248e-8
-0.110, 3.244e-8
-0.111, 3.244e-8
-0.112, 3.273e-8
-0.113, 3.282e-8
-0.114, 3.271e-8
-0.115, 3.295e-8
-0.116, 3.320e-8
-0.117, 3.306e-8
-0.118, 3.318e-8
-0.119, 3.351e-8
-0.120, 3.347e-8
-0.121, 3.348e-8
-0.122, 3.381e-8
-0.123, 3.388e-8
-0.124, 3.386e-8
-0.125, 3.406e-8
-0.126, 3.432e-8
-0.127, 3.427e-8
-0.128, 3.440e-8
-0.129, 3.474e-8
-0.130, 3.473e-8
-0.131, 3.473e-8
-0.132, 3.512e-8
-0.133, 3.520e-8
-0.134, 3.517e-8
-0.135, 3.546e-8
-0.136, 3.569e-8
-0.137, 3.565e-8
-0.138, 3.581e-8
-0.139, 3.615e-8
-0.140, 3.620e-8
-0.141, 3.622e-8
-0.142, 3.659e-8
-0.143, 3.673e-8
-0.144, 3.670e-8
-0.145, 3.701e-8
-0.146, 3.727e-8
-0.147, 3.723e-8
-0.148, 3.747e-8
-0.149, 3.778e-8
-0.150, 3.784e-8
-0.151, 3.791e-8
-0.152, 3.829e-8
-0.153, 3.846e-8
-0.154, 3.845e-8
-0.155, 3.875e-8
-0.156, 3.907e-8
-0.157, 3.904e-8
-0.158, 3.924e-8
-0.159, 3.965e-8
-0.160, 3.969e-8
-0.161, 3.977e-8
-0.162, 4.021e-8
-0.163, 4.035e-8
-0.164, 4.039e-8
-0.165, 4.070e-8
-0.166, 4.103e-8
-0.167, 4.105e-8
-0.168, 4.125e-8
-0.169, 4.167e-8
-0.170, 4.173e-8
-0.171, 4.181e-8
-0.172, 4.228e-8
-0.173, 4.243e-8
-0.174, 4.248e-8
-0.175, 4.284e-8
-0.176, 4.313e-8
-0.177, 4.320e-8
-0.178, 4.341e-8
-0.179, 4.383e-8
-0.180, 4.394e-8
-0.181, 4.401e-8
-0.182, 4.447e-8
-0.183, 4.470e-8
-0.184, 4.470e-8
-0.185, 4.509e-8
-0.186, 4.540e-8
-0.187, 4.544e-8
-0.188, 4.572e-8
-0.189, 4.611e-8
-0.190, 4.622e-8
-0.191, 4.636e-8
-0.192, 4.681e-8
-0.193, 4.701e-8
-0.194, 4.708e-8
-0.195, 4.742e-8
-0.196, 4.781e-8
-0.197, 4.782e-8
-0.198, 4.809e-8
-0.199, 4.855e-8
