Mar. 16, 2023   09:48:58
Cyclic Voltammetry
File: c:/users/oliverrz/desktop/electrolab/data/2023_03_16\fcmeoh_macros_750_um\electrode5_cv_250mvs_750_um.bin
Data Source:  Experiment
Instrument Model:  CHI760E
Header: CV
Note: 

Init E (V) = -0.2
High E (V) = 0.3
Low E (V) = -0.2
Final E (V) = -0.2
Init P/N = P
Scan Rate (V/s) = 0.25
Segment = 3
Sample Interval (V) = 0.001
Quiet Time (sec) = 2
Sensitivity (A/V) = 1e-7

Results:

Channel 1:
Segment 1:
Ep = 0.107V
ip = -7.329e-8A
Ah = -1.794e-8C

Segment 2:
Ep = 0.045V
ip = 7.007e-8A
Ah = 1.753e-8C

Segment 3:

Potential/V, Current/A

-0.200, 9.729e-9
-0.199, 7.975e-9
-0.198, 7.483e-9
-0.197, 7.083e-9
-0.196, 6.960e-9
-0.195, 6.929e-9
-0.194, 6.714e-9
-0.193, 6.314e-9
-0.192, 6.252e-9
-0.191, 6.314e-9
-0.190, 6.098e-9
-0.189, 5.852e-9
-0.188, 5.668e-9
-0.187, 5.791e-9
-0.186, 5.668e-9
-0.185, 5.360e-9
-0.184, 5.237e-9
-0.183, 5.298e-9
-0.182, 5.237e-9
-0.181, 4.991e-9
-0.180, 4.775e-9
-0.179, 4.868e-9
-0.178, 4.837e-9
-0.177, 4.591e-9
-0.176, 4.406e-9
-0.175, 4.375e-9
-0.174, 4.468e-9
-0.173, 4.283e-9
-0.172, 4.006e-9
-0.171, 4.037e-9
-0.170, 4.099e-9
-0.169, 3.914e-9
-0.168, 3.699e-9
-0.167, 3.606e-9
-0.166, 3.760e-9
-0.165, 3.606e-9
-0.164, 3.360e-9
-0.163, 3.299e-9
-0.162, 3.391e-9
-0.161, 3.299e-9
-0.160, 3.083e-9
-0.159, 2.929e-9
-0.158, 3.053e-9
-0.157, 3.053e-9
-0.156, 2.776e-9
-0.155, 2.622e-9
-0.154, 2.714e-9
-0.153, 2.714e-9
-0.152, 2.560e-9
-0.151, 2.345e-9
-0.150, 2.376e-9
-0.149, 2.468e-9
-0.148, 2.253e-9
-0.147, 2.068e-9
-0.146, 2.099e-9
-0.145, 2.160e-9
-0.144, 2.068e-9
-0.143, 1.791e-9
-0.142, 1.791e-9
-0.141, 1.945e-9
-0.140, 1.760e-9
-0.139, 1.607e-9
-0.138, 1.514e-9
-0.137, 1.637e-9
-0.136, 1.637e-9
-0.135, 1.330e-9
-0.134, 1.268e-9
-0.133, 1.391e-9
-0.132, 1.330e-9
-0.131, 1.176e-9
-0.130, 9.913e-10
-0.129, 1.114e-9
-0.128, 1.145e-9
-0.127, 9.298e-10
-0.126, 7.759e-10
-0.125, 8.375e-10
-0.124, 9.298e-10
-0.123, 7.759e-10
-0.122, 5.606e-10
-0.121, 5.606e-10
-0.120, 7.144e-10
-0.119, 5.913e-10
-0.118, 3.452e-10
-0.117, 3.452e-10
-0.116, 4.683e-10
-0.115, 3.760e-10
-0.114, 1.914e-10
-0.113, 9.911e-11
-0.112, 2.837e-10
-0.111, 2.222e-10
-0.110, -2.395e-11
-0.109, -5.472e-11
-0.108, 6.813e-12
-0.107, 3.758e-11
-0.106, -1.470e-10
-0.105, -3.316e-10
-0.104, -1.470e-10
-0.103, -1.778e-10
-0.102, -3.316e-10
-0.101, -4.854e-10
-0.100, -4.547e-10
-0.099, -3.008e-10
-0.098, -4.854e-10
-0.097, -7.008e-10
-0.096, -6.085e-10
-0.095, -5.470e-10
-0.094, -6.393e-10
-0.093, -8.546e-10
-0.092, -8.854e-10
-0.091, -7.008e-10
-0.090, -8.238e-10
-0.089, -1.039e-9
-0.088, -1.070e-9
-0.087, -9.161e-10
-0.086, -9.469e-10
-0.085, -1.193e-9
-0.084, -1.285e-9
-0.083, -1.131e-9
-0.082, -1.131e-9
-0.081, -1.347e-9
-0.080, -1.470e-9
-0.079, -1.347e-9
-0.078, -1.316e-9
-0.077, -1.501e-9
-0.076, -1.685e-9
-0.075, -1.593e-9
-0.074, -1.470e-9
-0.073, -1.685e-9
-0.072, -1.839e-9
-0.071, -1.808e-9
-0.070, -1.747e-9
-0.069, -1.808e-9
-0.068, -2.085e-9
-0.067, -2.054e-9
-0.066, -1.931e-9
-0.065, -2.054e-9
-0.064, -2.239e-9
-0.063, -2.331e-9
-0.062, -2.178e-9
-0.061, -2.208e-9
-0.060, -2.485e-9
-0.059, -2.547e-9
-0.058, -2.454e-9
-0.057, -2.454e-9
-0.056, -2.639e-9
-0.055, -2.854e-9
-0.054, -2.731e-9
-0.053, -2.670e-9
-0.052, -2.916e-9
-0.051, -3.070e-9
-0.050, -3.070e-9
-0.049, -2.977e-9
-0.048, -3.162e-9
-0.047, -3.377e-9
-0.046, -3.377e-9
-0.045, -3.285e-9
-0.044, -3.470e-9
-0.043, -3.685e-9
-0.042, -3.716e-9
-0.041, -3.623e-9
-0.040, -3.747e-9
-0.039, -4.023e-9
-0.038, -4.146e-9
-0.037, -3.993e-9
-0.036, -4.146e-9
-0.035, -4.423e-9
-0.034, -4.516e-9
-0.033, -4.485e-9
-0.032, -4.516e-9
-0.031, -4.823e-9
-0.030, -5.039e-9
-0.029, -4.946e-9
-0.028, -5.039e-9
-0.027, -5.254e-9
-0.026, -5.531e-9
-0.025, -5.592e-9
-0.024, -5.500e-9
-0.023, -5.808e-9
-0.022, -6.085e-9
-0.021, -6.146e-9
-0.020, -6.208e-9
-0.019, -6.392e-9
-0.018, -6.762e-9
-0.017, -6.915e-9
-0.016, -6.823e-9
-0.015, -7.131e-9
-0.014, -7.469e-9
-0.013, -7.684e-9
-0.012, -7.715e-9
-0.011, -7.869e-9
-0.010, -8.300e-9
-0.009, -8.577e-9
-0.008, -8.607e-9
-0.007, -8.823e-9
-0.006, -9.223e-9
-0.005, -9.592e-9
-0.004, -9.684e-9
-0.003, -9.838e-9
-0.002, -1.027e-8
-0.001, -1.070e-8
-0.000, -1.110e-8
0.001, -1.113e-8
0.002, -1.153e-8
0.003, -1.199e-8
0.004, -1.230e-8
0.005, -1.245e-8
0.006, -1.288e-8
0.007, -1.347e-8
0.008, -1.378e-8
0.009, -1.402e-8
0.010, -1.451e-8
0.011, -1.504e-8
0.012, -1.553e-8
0.013, -1.578e-8
0.014, -1.627e-8
0.015, -1.691e-8
0.016, -1.738e-8
0.017, -1.778e-8
0.018, -1.824e-8
0.019, -1.891e-8
0.020, -1.962e-8
0.021, -1.996e-8
0.022, -2.048e-8
0.023, -2.122e-8
0.024, -2.193e-8
0.025, -2.251e-8
0.026, -2.301e-8
0.027, -2.377e-8
0.028, -2.464e-8
0.029, -2.519e-8
0.030, -2.577e-8
0.031, -2.660e-8
0.032, -2.744e-8
0.033, -2.820e-8
0.034, -2.879e-8
0.035, -2.968e-8
0.036, -3.064e-8
0.037, -3.144e-8
0.038, -3.214e-8
0.039, -3.303e-8
0.040, -3.402e-8
0.041, -3.497e-8
0.042, -3.571e-8
0.043, -3.657e-8
0.044, -3.771e-8
0.045, -3.870e-8
0.046, -3.953e-8
0.047, -4.045e-8
0.048, -4.150e-8
0.049, -4.266e-8
0.050, -4.356e-8
0.051, -4.442e-8
0.052, -4.562e-8
0.053, -4.669e-8
0.054, -4.774e-8
0.055, -4.863e-8
0.056, -4.968e-8
0.057, -5.094e-8
0.058, -5.189e-8
0.059, -5.279e-8
0.060, -5.399e-8
0.061, -5.506e-8
0.062, -5.620e-8
0.063, -5.700e-8
0.064, -5.808e-8
0.065, -5.931e-8
0.066, -6.032e-8
0.067, -6.115e-8
0.068, -6.220e-8
0.069, -6.325e-8
0.070, -6.435e-8
0.071, -6.515e-8
0.072, -6.602e-8
0.073, -6.709e-8
0.074, -6.808e-8
0.075, -6.885e-8
0.076, -6.965e-8
0.077, -7.066e-8
0.078, -7.152e-8
0.079, -7.232e-8
0.080, -7.291e-8
0.081, -7.380e-8
0.082, -7.457e-8
0.083, -7.524e-8
0.084, -7.580e-8
0.085, -7.644e-8
0.086, -7.715e-8
0.087, -7.783e-8
0.088, -7.814e-8
0.089, -7.878e-8
0.090, -7.937e-8
0.091, -7.983e-8
0.092, -8.017e-8
0.093, -8.047e-8
0.094, -8.100e-8
0.095, -8.143e-8
0.096, -8.152e-8
0.097, -8.180e-8
0.098, -8.217e-8
0.099, -8.244e-8
0.100, -8.263e-8
0.101, -8.254e-8
0.102, -8.291e-8
0.103, -8.315e-8
0.104, -8.306e-8
0.105, -8.303e-8
0.106, -8.312e-8
0.107, -8.324e-8
0.108, -8.324e-8
0.109, -8.297e-8
0.110, -8.300e-8
0.111, -8.303e-8
0.112, -8.291e-8
0.113, -8.263e-8
0.114, -8.247e-8
0.115, -8.247e-8
0.116, -8.235e-8
0.117, -8.198e-8
0.118, -8.171e-8
0.119, -8.167e-8
0.120, -8.146e-8
0.121, -8.109e-8
0.122, -8.069e-8
0.123, -8.057e-8
0.124, -8.044e-8
0.125, -7.998e-8
0.126, -7.952e-8
0.127, -7.934e-8
0.128, -7.915e-8
0.129, -7.875e-8
0.130, -7.823e-8
0.131, -7.795e-8
0.132, -7.780e-8
0.133, -7.737e-8
0.134, -7.681e-8
0.135, -7.654e-8
0.136, -7.626e-8
0.137, -7.595e-8
0.138, -7.534e-8
0.139, -7.500e-8
0.140, -7.478e-8
0.141, -7.441e-8
0.142, -7.389e-8
0.143, -7.346e-8
0.144, -7.318e-8
0.145, -7.297e-8
0.146, -7.238e-8
0.147, -7.189e-8
0.148, -7.171e-8
0.149, -7.140e-8
0.150, -7.094e-8
0.151, -7.041e-8
0.152, -7.014e-8
0.153, -6.995e-8
0.154, -6.949e-8
0.155, -6.897e-8
0.156, -6.872e-8
0.157, -6.848e-8
0.158, -6.808e-8
0.159, -6.755e-8
0.160, -6.725e-8
0.161, -6.709e-8
0.162, -6.672e-8
0.163, -6.620e-8
0.164, -6.589e-8
0.165, -6.568e-8
0.166, -6.540e-8
0.167, -6.491e-8
0.168, -6.454e-8
0.169, -6.442e-8
0.170, -6.417e-8
0.171, -6.368e-8
0.172, -6.331e-8
0.173, -6.312e-8
0.174, -6.294e-8
0.175, -6.254e-8
0.176, -6.208e-8
0.177, -6.192e-8
0.178, -6.180e-8
0.179, -6.146e-8
0.180, -6.100e-8
0.181, -6.079e-8
0.182, -6.069e-8
0.183, -6.039e-8
0.184, -5.989e-8
0.185, -5.974e-8
0.186, -5.962e-8
0.187, -5.937e-8
0.188, -5.897e-8
0.189, -5.869e-8
0.190, -5.863e-8
0.191, -5.845e-8
0.192, -5.802e-8
0.193, -5.777e-8
0.194, -5.768e-8
0.195, -5.755e-8
0.196, -5.719e-8
0.197, -5.685e-8
0.198, -5.675e-8
0.199, -5.669e-8
0.200, -5.635e-8
0.201, -5.602e-8
0.202, -5.592e-8
0.203, -5.586e-8
0.204, -5.562e-8
0.205, -5.525e-8
0.206, -5.509e-8
0.207, -5.512e-8
0.208, -5.488e-8
0.209, -5.451e-8
0.210, -5.439e-8
0.211, -5.432e-8
0.212, -5.420e-8
0.213, -5.383e-8
0.214, -5.365e-8
0.215, -5.368e-8
0.216, -5.352e-8
0.217, -5.322e-8
0.218, -5.303e-8
0.219, -5.300e-8
0.220, -5.297e-8
0.221, -5.260e-8
0.222, -5.239e-8
0.223, -5.239e-8
0.224, -5.232e-8
0.225, -5.211e-8
0.226, -5.180e-8
0.227, -5.177e-8
0.228, -5.183e-8
0.229, -5.156e-8
0.230, -5.128e-8
0.231, -5.122e-8
0.232, -5.125e-8
0.233, -5.112e-8
0.234, -5.076e-8
0.235, -5.069e-8
0.236, -5.076e-8
0.237, -5.060e-8
0.238, -5.032e-8
0.239, -5.020e-8
0.240, -5.023e-8
0.241, -5.020e-8
0.242, -4.989e-8
0.243, -4.974e-8
0.244, -4.977e-8
0.245, -4.977e-8
0.246, -4.949e-8
0.247, -4.931e-8
0.248, -4.934e-8
0.249, -4.937e-8
0.250, -4.916e-8
0.251, -4.888e-8
0.252, -4.894e-8
0.253, -4.897e-8
0.254, -4.879e-8
0.255, -4.857e-8
0.256, -4.851e-8
0.257, -4.860e-8
0.258, -4.851e-8
0.259, -4.817e-8
0.260, -4.820e-8
0.261, -4.823e-8
0.262, -4.814e-8
0.263, -4.793e-8
0.264, -4.780e-8
0.265, -4.793e-8
0.266, -4.789e-8
0.267, -4.759e-8
0.268, -4.753e-8
0.269, -4.756e-8
0.270, -4.759e-8
0.271, -4.737e-8
0.272, -4.716e-8
0.273, -4.728e-8
0.274, -4.731e-8
0.275, -4.713e-8
0.276, -4.694e-8
0.277, -4.697e-8
0.278, -4.709e-8
0.279, -4.691e-8
0.280, -4.666e-8
0.281, -4.673e-8
0.282, -4.682e-8
0.283, -4.673e-8
0.284, -4.648e-8
0.285, -4.645e-8
0.286, -4.657e-8
0.287, -4.654e-8
0.288, -4.626e-8
0.289, -4.623e-8
0.290, -4.636e-8
0.291, -4.636e-8
0.292, -4.614e-8
0.293, -4.605e-8
0.294, -4.611e-8
0.295, -4.623e-8
0.296, -4.599e-8
0.297, -4.583e-8
0.298, -4.596e-8
0.299, -4.602e-8
0.300, -4.319e-8
0.299, -3.953e-8
0.298, -3.900e-8
0.297, -3.873e-8
0.296, -3.830e-8
0.295, -3.780e-8
0.294, -3.762e-8
0.293, -3.753e-8
0.292, -3.725e-8
0.291, -3.685e-8
0.290, -3.670e-8
0.289, -3.663e-8
0.288, -3.648e-8
0.287, -3.608e-8
0.286, -3.593e-8
0.285, -3.593e-8
0.284, -3.580e-8
0.283, -3.550e-8
0.282, -3.528e-8
0.281, -3.528e-8
0.280, -3.525e-8
0.279, -3.494e-8
0.278, -3.476e-8
0.277, -3.476e-8
0.276, -3.470e-8
0.275, -3.451e-8
0.274, -3.420e-8
0.273, -3.420e-8
0.272, -3.430e-8
0.271, -3.402e-8
0.270, -3.377e-8
0.269, -3.374e-8
0.268, -3.377e-8
0.267, -3.368e-8
0.266, -3.334e-8
0.265, -3.328e-8
0.264, -3.337e-8
0.263, -3.325e-8
0.262, -3.300e-8
0.261, -3.288e-8
0.260, -3.294e-8
0.259, -3.291e-8
0.258, -3.263e-8
0.257, -3.251e-8
0.256, -3.254e-8
0.255, -3.257e-8
0.254, -3.230e-8
0.253, -3.211e-8
0.252, -3.217e-8
0.251, -3.224e-8
0.250, -3.199e-8
0.249, -3.174e-8
0.248, -3.180e-8
0.247, -3.187e-8
0.246, -3.168e-8
0.245, -3.147e-8
0.244, -3.140e-8
0.243, -3.153e-8
0.242, -3.140e-8
0.241, -3.110e-8
0.240, -3.113e-8
0.239, -3.116e-8
0.238, -3.110e-8
0.237, -3.085e-8
0.236, -3.070e-8
0.235, -3.085e-8
0.234, -3.076e-8
0.233, -3.051e-8
0.232, -3.042e-8
0.231, -3.042e-8
0.230, -3.048e-8
0.229, -3.024e-8
0.228, -3.005e-8
0.227, -3.017e-8
0.226, -3.014e-8
0.225, -2.999e-8
0.224, -2.974e-8
0.223, -2.977e-8
0.222, -2.987e-8
0.221, -2.968e-8
0.220, -2.940e-8
0.219, -2.944e-8
0.218, -2.950e-8
0.217, -2.940e-8
0.216, -2.910e-8
0.215, -2.907e-8
0.214, -2.916e-8
0.213, -2.907e-8
0.212, -2.879e-8
0.211, -2.870e-8
0.210, -2.876e-8
0.209, -2.873e-8
0.208, -2.848e-8
0.207, -2.830e-8
0.206, -2.836e-8
0.205, -2.836e-8
0.204, -2.808e-8
0.203, -2.793e-8
0.202, -2.796e-8
0.201, -2.796e-8
0.200, -2.777e-8
0.199, -2.750e-8
0.198, -2.753e-8
0.197, -2.759e-8
0.196, -2.734e-8
0.195, -2.710e-8
0.194, -2.704e-8
0.193, -2.710e-8
0.192, -2.694e-8
0.191, -2.660e-8
0.190, -2.651e-8
0.189, -2.657e-8
0.188, -2.645e-8
0.187, -2.614e-8
0.186, -2.596e-8
0.185, -2.602e-8
0.184, -2.596e-8
0.183, -2.559e-8
0.182, -2.541e-8
0.181, -2.541e-8
0.180, -2.531e-8
0.179, -2.504e-8
0.178, -2.476e-8
0.177, -2.473e-8
0.176, -2.470e-8
0.175, -2.436e-8
0.174, -2.405e-8
0.173, -2.399e-8
0.172, -2.393e-8
0.171, -2.365e-8
0.170, -2.325e-8
0.169, -2.316e-8
0.168, -2.310e-8
0.167, -2.282e-8
0.166, -2.236e-8
0.165, -2.221e-8
0.164, -2.211e-8
0.163, -2.190e-8
0.162, -2.144e-8
0.161, -2.113e-8
0.160, -2.110e-8
0.159, -2.082e-8
0.158, -2.036e-8
0.157, -2.002e-8
0.156, -1.984e-8
0.155, -1.962e-8
0.154, -1.910e-8
0.153, -1.873e-8
0.152, -1.851e-8
0.151, -1.824e-8
0.150, -1.778e-8
0.149, -1.728e-8
0.148, -1.701e-8
0.147, -1.676e-8
0.146, -1.624e-8
0.145, -1.565e-8
0.144, -1.531e-8
0.143, -1.501e-8
0.142, -1.448e-8
0.141, -1.384e-8
0.140, -1.338e-8
0.139, -1.310e-8
0.138, -1.255e-8
0.137, -1.184e-8
0.136, -1.135e-8
0.135, -1.085e-8
0.134, -1.039e-8
0.133, -9.592e-9
0.132, -8.946e-9
0.131, -8.515e-9
0.130, -7.900e-9
0.129, -7.131e-9
0.128, -6.362e-9
0.127, -5.777e-9
0.126, -5.223e-9
0.125, -4.393e-9
0.124, -3.500e-9
0.123, -2.947e-9
0.122, -2.239e-9
0.121, -1.408e-9
0.120, -4.547e-10
0.119, 3.145e-10
0.118, 9.605e-10
0.117, 1.853e-9
0.116, 2.960e-9
0.115, 3.729e-9
0.114, 4.529e-9
0.113, 5.421e-9
0.112, 6.467e-9
0.111, 7.483e-9
0.110, 8.221e-9
0.109, 9.175e-9
0.108, 1.034e-8
0.107, 1.130e-8
0.106, 1.225e-8
0.105, 1.311e-8
0.104, 1.425e-8
0.103, 1.545e-8
0.102, 1.634e-8
0.101, 1.730e-8
0.100, 1.847e-8
0.099, 1.954e-8
0.098, 2.056e-8
0.097, 2.151e-8
0.096, 2.259e-8
0.095, 2.391e-8
0.094, 2.474e-8
0.093, 2.579e-8
0.092, 2.686e-8
0.091, 2.806e-8
0.090, 2.911e-8
0.089, 2.997e-8
0.088, 3.102e-8
0.087, 3.231e-8
0.086, 3.314e-8
0.085, 3.409e-8
0.084, 3.505e-8
0.083, 3.606e-8
0.082, 3.714e-8
0.081, 3.794e-8
0.080, 3.880e-8
0.079, 3.988e-8
0.078, 4.083e-8
0.077, 4.157e-8
0.076, 4.231e-8
0.075, 4.317e-8
0.074, 4.412e-8
0.073, 4.474e-8
0.072, 4.532e-8
0.071, 4.619e-8
0.070, 4.695e-8
0.069, 4.748e-8
0.068, 4.812e-8
0.067, 4.865e-8
0.066, 4.948e-8
0.065, 4.988e-8
0.064, 5.025e-8
0.063, 5.083e-8
0.062, 5.135e-8
0.061, 5.175e-8
0.060, 5.209e-8
0.059, 5.228e-8
0.058, 5.289e-8
0.057, 5.314e-8
0.056, 5.329e-8
0.055, 5.351e-8
0.054, 5.375e-8
0.053, 5.409e-8
0.052, 5.412e-8
0.051, 5.415e-8
0.050, 5.440e-8
0.049, 5.452e-8
0.048, 5.449e-8
0.047, 5.443e-8
0.046, 5.446e-8
0.045, 5.461e-8
0.044, 5.449e-8
0.043, 5.428e-8
0.042, 5.428e-8
0.041, 5.437e-8
0.040, 5.415e-8
0.039, 5.394e-8
0.038, 5.378e-8
0.037, 5.375e-8
0.036, 5.360e-8
0.035, 5.320e-8
0.034, 5.298e-8
0.033, 5.295e-8
0.032, 5.268e-8
0.031, 5.237e-8
0.030, 5.200e-8
0.029, 5.188e-8
0.028, 5.175e-8
0.027, 5.126e-8
0.026, 5.092e-8
0.025, 5.074e-8
0.024, 5.052e-8
0.023, 5.018e-8
0.022, 4.966e-8
0.021, 4.945e-8
0.020, 4.932e-8
0.019, 4.880e-8
0.018, 4.843e-8
0.017, 4.806e-8
0.016, 4.794e-8
0.015, 4.757e-8
0.014, 4.705e-8
0.013, 4.674e-8
0.012, 4.659e-8
0.011, 4.622e-8
0.010, 4.575e-8
0.009, 4.532e-8
0.008, 4.520e-8
0.007, 4.492e-8
0.006, 4.440e-8
0.005, 4.397e-8
0.004, 4.382e-8
0.003, 4.357e-8
0.002, 4.314e-8
0.001, 4.268e-8
0.000, 4.265e-8
-0.001, 4.234e-8
-0.002, 4.188e-8
-0.003, 4.142e-8
-0.004, 4.120e-8
-0.005, 4.102e-8
-0.006, 4.065e-8
-0.007, 4.022e-8
-0.008, 3.991e-8
-0.009, 3.985e-8
-0.010, 3.945e-8
-0.011, 3.902e-8
-0.012, 3.874e-8
-0.013, 3.865e-8
-0.014, 3.837e-8
-0.015, 3.794e-8
-0.016, 3.757e-8
-0.017, 3.754e-8
-0.018, 3.729e-8
-0.019, 3.689e-8
-0.020, 3.656e-8
-0.021, 3.643e-8
-0.022, 3.631e-8
-0.023, 3.594e-8
-0.024, 3.557e-8
-0.025, 3.545e-8
-0.026, 3.536e-8
-0.027, 3.502e-8
-0.028, 3.465e-8
-0.029, 3.449e-8
-0.030, 3.446e-8
-0.031, 3.419e-8
-0.032, 3.379e-8
-0.033, 3.363e-8
-0.034, 3.360e-8
-0.035, 3.339e-8
-0.036, 3.302e-8
-0.037, 3.280e-8
-0.038, 3.283e-8
-0.039, 3.262e-8
-0.040, 3.225e-8
-0.041, 3.206e-8
-0.042, 3.203e-8
-0.043, 3.194e-8
-0.044, 3.160e-8
-0.045, 3.133e-8
-0.046, 3.136e-8
-0.047, 3.129e-8
-0.048, 3.096e-8
-0.049, 3.071e-8
-0.050, 3.068e-8
-0.051, 3.068e-8
-0.052, 3.043e-8
-0.053, 3.010e-8
-0.054, 3.006e-8
-0.055, 3.010e-8
-0.056, 2.988e-8
-0.057, 2.960e-8
-0.058, 2.951e-8
-0.059, 2.954e-8
-0.060, 2.942e-8
-0.061, 2.908e-8
-0.062, 2.899e-8
-0.063, 2.911e-8
-0.064, 2.893e-8
-0.065, 2.871e-8
-0.066, 2.850e-8
-0.067, 2.859e-8
-0.068, 2.859e-8
-0.069, 2.825e-8
-0.070, 2.810e-8
-0.071, 2.816e-8
-0.072, 2.816e-8
-0.073, 2.797e-8
-0.074, 2.770e-8
-0.075, 2.776e-8
-0.076, 2.782e-8
-0.077, 2.763e-8
-0.078, 2.739e-8
-0.079, 2.736e-8
-0.080, 2.748e-8
-0.081, 2.733e-8
-0.082, 2.708e-8
-0.083, 2.702e-8
-0.084, 2.717e-8
-0.085, 2.705e-8
-0.086, 2.680e-8
-0.087, 2.674e-8
-0.088, 2.686e-8
-0.089, 2.680e-8
-0.090, 2.659e-8
-0.091, 2.646e-8
-0.092, 2.662e-8
-0.093, 2.659e-8
-0.094, 2.637e-8
-0.095, 2.625e-8
-0.096, 2.634e-8
-0.097, 2.643e-8
-0.098, 2.625e-8
-0.099, 2.603e-8
-0.100, 2.616e-8
-0.101, 2.622e-8
-0.102, 2.610e-8
-0.103, 2.594e-8
-0.104, 2.591e-8
-0.105, 2.613e-8
-0.106, 2.594e-8
-0.107, 2.576e-8
-0.108, 2.579e-8
-0.109, 2.591e-8
-0.110, 2.588e-8
-0.111, 2.566e-8
-0.112, 2.560e-8
-0.113, 2.585e-8
-0.114, 2.576e-8
-0.115, 2.563e-8
-0.116, 2.554e-8
-0.117, 2.570e-8
-0.118, 2.573e-8
-0.119, 2.557e-8
-0.120, 2.545e-8
-0.121, 2.563e-8
-0.122, 2.566e-8
-0.123, 2.554e-8
-0.124, 2.539e-8
-0.125, 2.551e-8
-0.126, 2.566e-8
-0.127, 2.557e-8
-0.128, 2.539e-8
-0.129, 2.548e-8
-0.130, 2.563e-8
-0.131, 2.554e-8
-0.132, 2.542e-8
-0.133, 2.545e-8
-0.134, 2.563e-8
-0.135, 2.560e-8
-0.136, 2.542e-8
-0.137, 2.548e-8
-0.138, 2.566e-8
-0.139, 2.563e-8
-0.140, 2.554e-8
-0.141, 2.545e-8
-0.142, 2.570e-8
-0.143, 2.576e-8
-0.144, 2.557e-8
-0.145, 2.557e-8
-0.146, 2.573e-8
-0.147, 2.582e-8
-0.148, 2.573e-8
-0.149, 2.557e-8
-0.150, 2.582e-8
-0.151, 2.594e-8
-0.152, 2.585e-8
-0.153, 2.576e-8
-0.154, 2.585e-8
-0.155, 2.606e-8
-0.156, 2.600e-8
-0.157, 2.585e-8
-0.158, 2.597e-8
-0.159, 2.619e-8
-0.160, 2.619e-8
-0.161, 2.606e-8
-0.162, 2.610e-8
-0.163, 2.634e-8
-0.164, 2.637e-8
-0.165, 2.625e-8
-0.166, 2.625e-8
-0.167, 2.650e-8
-0.168, 2.656e-8
-0.169, 2.650e-8
-0.170, 2.646e-8
-0.171, 2.665e-8
-0.172, 2.683e-8
-0.173, 2.668e-8
-0.174, 2.665e-8
-0.175, 2.686e-8
-0.176, 2.705e-8
-0.177, 2.702e-8
-0.178, 2.693e-8
-0.179, 2.708e-8
-0.180, 2.733e-8
-0.181, 2.730e-8
-0.182, 2.720e-8
-0.183, 2.733e-8
-0.184, 2.757e-8
-0.185, 2.763e-8
-0.186, 2.751e-8
-0.187, 2.757e-8
-0.188, 2.788e-8
-0.189, 2.791e-8
-0.190, 2.788e-8
-0.191, 2.791e-8
-0.192, 2.816e-8
-0.193, 2.834e-8
-0.194, 2.822e-8
-0.195, 2.825e-8
-0.196, 2.850e-8
-0.197, 2.865e-8
-0.198, 2.865e-8
-0.199, 2.859e-8
