Mar. 16, 2023   09:52:57
Cyclic Voltammetry
File: c:/users/oliverrz/desktop/electrolab/data/2023_03_16\fcmeoh_macros_750_um\electrode8_cv_250mvs_750_um.bin
Data Source:  Experiment
Instrument Model:  CHI760E
Header: CV
Note: 

Init E (V) = -0.2
High E (V) = 0.3
Low E (V) = -0.2
Final E (V) = -0.2
Init P/N = P
Scan Rate (V/s) = 0.25
Segment = 3
Sample Interval (V) = 0.001
Quiet Time (sec) = 2
Sensitivity (A/V) = 1e-7

Results:

Channel 1:
Segment 1:
Ep = 0.106V
ip = -7.640e-8A
Ah = -1.814e-8C

Segment 2:
Ep = 0.047V
ip = 7.063e-8A
Ah = 1.743e-8C

Segment 3:

Potential/V, Current/A

-0.200, 4.868e-9
-0.199, 3.483e-9
-0.198, 3.176e-9
-0.197, 3.268e-9
-0.196, 3.268e-9
-0.195, 3.083e-9
-0.194, 2.837e-9
-0.193, 2.868e-9
-0.192, 2.991e-9
-0.191, 2.806e-9
-0.190, 2.591e-9
-0.189, 2.591e-9
-0.188, 2.745e-9
-0.187, 2.622e-9
-0.186, 2.345e-9
-0.185, 2.314e-9
-0.184, 2.530e-9
-0.183, 2.437e-9
-0.182, 2.191e-9
-0.181, 2.099e-9
-0.180, 2.283e-9
-0.179, 2.283e-9
-0.178, 2.068e-9
-0.177, 1.914e-9
-0.176, 2.099e-9
-0.175, 2.130e-9
-0.174, 1.914e-9
-0.173, 1.760e-9
-0.172, 1.853e-9
-0.171, 1.976e-9
-0.170, 1.791e-9
-0.169, 1.576e-9
-0.168, 1.699e-9
-0.167, 1.822e-9
-0.166, 1.637e-9
-0.165, 1.453e-9
-0.164, 1.453e-9
-0.163, 1.668e-9
-0.162, 1.545e-9
-0.161, 1.268e-9
-0.160, 1.330e-9
-0.159, 1.484e-9
-0.158, 1.453e-9
-0.157, 1.237e-9
-0.156, 1.114e-9
-0.155, 1.360e-9
-0.154, 1.330e-9
-0.153, 1.084e-9
-0.152, 1.022e-9
-0.151, 1.114e-9
-0.150, 1.237e-9
-0.149, 1.022e-9
-0.148, 8.375e-10
-0.147, 1.022e-9
-0.146, 1.114e-9
-0.145, 9.298e-10
-0.144, 7.452e-10
-0.143, 8.375e-10
-0.142, 9.913e-10
-0.141, 8.375e-10
-0.140, 6.221e-10
-0.139, 6.836e-10
-0.138, 8.682e-10
-0.137, 7.452e-10
-0.136, 4.991e-10
-0.135, 5.298e-10
-0.134, 7.452e-10
-0.133, 6.836e-10
-0.132, 4.375e-10
-0.131, 3.760e-10
-0.130, 5.913e-10
-0.129, 5.913e-10
-0.128, 3.452e-10
-0.127, 2.529e-10
-0.126, 4.068e-10
-0.125, 5.298e-10
-0.124, 2.837e-10
-0.123, 1.606e-10
-0.122, 3.145e-10
-0.121, 3.760e-10
-0.120, 2.529e-10
-0.119, 3.758e-11
-0.118, 1.299e-10
-0.117, 3.145e-10
-0.116, 1.299e-10
-0.115, -2.395e-11
-0.114, 6.813e-12
-0.113, 1.914e-10
-0.112, 1.299e-10
-0.111, -1.470e-10
-0.110, -1.162e-10
-0.109, 9.911e-11
-0.108, 3.758e-11
-0.107, -1.778e-10
-0.106, -2.393e-10
-0.105, -5.472e-11
-0.104, -5.472e-11
-0.103, -2.701e-10
-0.102, -3.624e-10
-0.101, -1.778e-10
-0.100, -1.162e-10
-0.099, -3.316e-10
-0.098, -4.547e-10
-0.097, -3.316e-10
-0.096, -2.085e-10
-0.095, -3.931e-10
-0.094, -5.777e-10
-0.093, -4.547e-10
-0.092, -3.316e-10
-0.091, -4.854e-10
-0.090, -6.700e-10
-0.089, -6.393e-10
-0.088, -4.239e-10
-0.087, -5.470e-10
-0.086, -7.931e-10
-0.085, -7.623e-10
-0.084, -5.777e-10
-0.083, -6.085e-10
-0.082, -8.546e-10
-0.081, -9.469e-10
-0.080, -6.700e-10
-0.079, -7.315e-10
-0.078, -9.777e-10
-0.077, -1.039e-9
-0.076, -8.854e-10
-0.075, -7.931e-10
-0.074, -1.039e-9
-0.073, -1.193e-9
-0.072, -1.008e-9
-0.071, -9.777e-10
-0.070, -1.131e-9
-0.069, -1.347e-9
-0.068, -1.224e-9
-0.067, -1.070e-9
-0.066, -1.255e-9
-0.065, -1.470e-9
-0.064, -1.408e-9
-0.063, -1.255e-9
-0.062, -1.378e-9
-0.061, -1.624e-9
-0.060, -1.624e-9
-0.059, -1.439e-9
-0.058, -1.531e-9
-0.057, -1.778e-9
-0.056, -1.839e-9
-0.055, -1.655e-9
-0.054, -1.716e-9
-0.053, -1.931e-9
-0.052, -2.054e-9
-0.051, -1.931e-9
-0.050, -1.870e-9
-0.049, -2.178e-9
-0.048, -2.301e-9
-0.047, -2.178e-9
-0.046, -2.147e-9
-0.045, -2.331e-9
-0.044, -2.577e-9
-0.043, -2.485e-9
-0.042, -2.393e-9
-0.041, -2.608e-9
-0.040, -2.824e-9
-0.039, -2.854e-9
-0.038, -2.731e-9
-0.037, -2.854e-9
-0.036, -3.224e-9
-0.035, -3.193e-9
-0.034, -3.100e-9
-0.033, -3.224e-9
-0.032, -3.500e-9
-0.031, -3.654e-9
-0.030, -3.531e-9
-0.029, -3.593e-9
-0.028, -3.931e-9
-0.027, -4.085e-9
-0.026, -4.023e-9
-0.025, -4.054e-9
-0.024, -4.362e-9
-0.023, -4.639e-9
-0.022, -4.577e-9
-0.021, -4.608e-9
-0.020, -4.885e-9
-0.019, -5.192e-9
-0.018, -5.223e-9
-0.017, -5.192e-9
-0.016, -5.500e-9
-0.015, -5.869e-9
-0.014, -5.931e-9
-0.013, -5.900e-9
-0.012, -6.208e-9
-0.011, -6.608e-9
-0.010, -6.762e-9
-0.009, -6.762e-9
-0.008, -6.977e-9
-0.007, -7.438e-9
-0.006, -7.684e-9
-0.005, -7.684e-9
-0.004, -7.961e-9
-0.003, -8.392e-9
-0.002, -8.700e-9
-0.001, -8.823e-9
-0.000, -9.161e-9
0.001, -9.561e-9
0.002, -9.961e-9
0.003, -1.005e-8
0.004, -1.030e-8
0.005, -1.076e-8
0.006, -1.125e-8
0.007, -1.150e-8
0.008, -1.168e-8
0.009, -1.224e-8
0.010, -1.279e-8
0.011, -1.310e-8
0.012, -1.331e-8
0.013, -1.381e-8
0.014, -1.451e-8
0.015, -1.491e-8
0.016, -1.510e-8
0.017, -1.571e-8
0.018, -1.639e-8
0.019, -1.691e-8
0.020, -1.725e-8
0.021, -1.778e-8
0.022, -1.851e-8
0.023, -1.919e-8
0.024, -1.953e-8
0.025, -2.014e-8
0.026, -2.094e-8
0.027, -2.165e-8
0.028, -2.217e-8
0.029, -2.270e-8
0.030, -2.356e-8
0.031, -2.442e-8
0.032, -2.497e-8
0.033, -2.562e-8
0.034, -2.648e-8
0.035, -2.740e-8
0.036, -2.817e-8
0.037, -2.873e-8
0.038, -2.971e-8
0.039, -3.070e-8
0.040, -3.150e-8
0.041, -3.224e-8
0.042, -3.313e-8
0.043, -3.423e-8
0.044, -3.516e-8
0.045, -3.580e-8
0.046, -3.685e-8
0.047, -3.799e-8
0.048, -3.894e-8
0.049, -3.977e-8
0.050, -4.076e-8
0.051, -4.196e-8
0.052, -4.303e-8
0.053, -4.386e-8
0.054, -4.479e-8
0.055, -4.605e-8
0.056, -4.716e-8
0.057, -4.811e-8
0.058, -4.900e-8
0.059, -5.014e-8
0.060, -5.140e-8
0.061, -5.229e-8
0.062, -5.322e-8
0.063, -5.442e-8
0.064, -5.555e-8
0.065, -5.660e-8
0.066, -5.743e-8
0.067, -5.848e-8
0.068, -5.971e-8
0.069, -6.066e-8
0.070, -6.149e-8
0.071, -6.254e-8
0.072, -6.355e-8
0.073, -6.466e-8
0.074, -6.531e-8
0.075, -6.623e-8
0.076, -6.737e-8
0.077, -6.823e-8
0.078, -6.897e-8
0.079, -6.974e-8
0.080, -7.063e-8
0.081, -7.161e-8
0.082, -7.220e-8
0.083, -7.278e-8
0.084, -7.364e-8
0.085, -7.441e-8
0.086, -7.503e-8
0.087, -7.543e-8
0.088, -7.611e-8
0.089, -7.688e-8
0.090, -7.731e-8
0.091, -7.764e-8
0.092, -7.823e-8
0.093, -7.875e-8
0.094, -7.918e-8
0.095, -7.937e-8
0.096, -7.967e-8
0.097, -8.023e-8
0.098, -8.051e-8
0.099, -8.057e-8
0.100, -8.081e-8
0.101, -8.112e-8
0.102, -8.137e-8
0.103, -8.143e-8
0.104, -8.137e-8
0.105, -8.164e-8
0.106, -8.183e-8
0.107, -8.171e-8
0.108, -8.161e-8
0.109, -8.167e-8
0.110, -8.177e-8
0.111, -8.167e-8
0.112, -8.137e-8
0.113, -8.146e-8
0.114, -8.143e-8
0.115, -8.121e-8
0.116, -8.094e-8
0.117, -8.075e-8
0.118, -8.075e-8
0.119, -8.057e-8
0.120, -8.004e-8
0.121, -7.992e-8
0.122, -7.980e-8
0.123, -7.958e-8
0.124, -7.912e-8
0.125, -7.872e-8
0.126, -7.869e-8
0.127, -7.844e-8
0.128, -7.795e-8
0.129, -7.755e-8
0.130, -7.734e-8
0.131, -7.712e-8
0.132, -7.666e-8
0.133, -7.614e-8
0.134, -7.592e-8
0.135, -7.574e-8
0.136, -7.524e-8
0.137, -7.472e-8
0.138, -7.444e-8
0.139, -7.426e-8
0.140, -7.383e-8
0.141, -7.324e-8
0.142, -7.294e-8
0.143, -7.275e-8
0.144, -7.232e-8
0.145, -7.177e-8
0.146, -7.140e-8
0.147, -7.121e-8
0.148, -7.091e-8
0.149, -7.026e-8
0.150, -6.986e-8
0.151, -6.971e-8
0.152, -6.937e-8
0.153, -6.885e-8
0.154, -6.838e-8
0.155, -6.820e-8
0.156, -6.798e-8
0.157, -6.743e-8
0.158, -6.694e-8
0.159, -6.672e-8
0.160, -6.654e-8
0.161, -6.614e-8
0.162, -6.558e-8
0.163, -6.531e-8
0.164, -6.518e-8
0.165, -6.478e-8
0.166, -6.426e-8
0.167, -6.402e-8
0.168, -6.383e-8
0.169, -6.355e-8
0.170, -6.297e-8
0.171, -6.269e-8
0.172, -6.263e-8
0.173, -6.229e-8
0.174, -6.180e-8
0.175, -6.149e-8
0.176, -6.134e-8
0.177, -6.118e-8
0.178, -6.069e-8
0.179, -6.032e-8
0.180, -6.023e-8
0.181, -6.005e-8
0.182, -5.965e-8
0.183, -5.925e-8
0.184, -5.912e-8
0.185, -5.903e-8
0.186, -5.863e-8
0.187, -5.820e-8
0.188, -5.811e-8
0.189, -5.799e-8
0.190, -5.771e-8
0.191, -5.728e-8
0.192, -5.709e-8
0.193, -5.709e-8
0.194, -5.682e-8
0.195, -5.635e-8
0.196, -5.617e-8
0.197, -5.614e-8
0.198, -5.599e-8
0.199, -5.555e-8
0.200, -5.528e-8
0.201, -5.528e-8
0.202, -5.519e-8
0.203, -5.479e-8
0.204, -5.448e-8
0.205, -5.448e-8
0.206, -5.442e-8
0.207, -5.408e-8
0.208, -5.374e-8
0.209, -5.368e-8
0.210, -5.368e-8
0.211, -5.337e-8
0.212, -5.303e-8
0.213, -5.297e-8
0.214, -5.297e-8
0.215, -5.276e-8
0.216, -5.236e-8
0.217, -5.229e-8
0.218, -5.236e-8
0.219, -5.211e-8
0.220, -5.177e-8
0.221, -5.162e-8
0.222, -5.168e-8
0.223, -5.159e-8
0.224, -5.119e-8
0.225, -5.103e-8
0.226, -5.106e-8
0.227, -5.100e-8
0.228, -5.072e-8
0.229, -5.045e-8
0.230, -5.051e-8
0.231, -5.051e-8
0.232, -5.020e-8
0.233, -4.996e-8
0.234, -4.996e-8
0.235, -4.999e-8
0.236, -4.977e-8
0.237, -4.946e-8
0.238, -4.946e-8
0.239, -4.952e-8
0.240, -4.931e-8
0.241, -4.900e-8
0.242, -4.897e-8
0.243, -4.906e-8
0.244, -4.891e-8
0.245, -4.860e-8
0.246, -4.848e-8
0.247, -4.860e-8
0.248, -4.854e-8
0.249, -4.820e-8
0.250, -4.808e-8
0.251, -4.814e-8
0.252, -4.817e-8
0.253, -4.786e-8
0.254, -4.765e-8
0.255, -4.777e-8
0.256, -4.777e-8
0.257, -4.753e-8
0.258, -4.734e-8
0.259, -4.734e-8
0.260, -4.746e-8
0.261, -4.725e-8
0.262, -4.694e-8
0.263, -4.700e-8
0.264, -4.709e-8
0.265, -4.697e-8
0.266, -4.666e-8
0.267, -4.663e-8
0.268, -4.682e-8
0.269, -4.666e-8
0.270, -4.639e-8
0.271, -4.633e-8
0.272, -4.645e-8
0.273, -4.645e-8
0.274, -4.611e-8
0.275, -4.602e-8
0.276, -4.617e-8
0.277, -4.614e-8
0.278, -4.593e-8
0.279, -4.574e-8
0.280, -4.583e-8
0.281, -4.593e-8
0.282, -4.568e-8
0.283, -4.549e-8
0.284, -4.559e-8
0.285, -4.568e-8
0.286, -4.549e-8
0.287, -4.525e-8
0.288, -4.531e-8
0.289, -4.546e-8
0.290, -4.531e-8
0.291, -4.503e-8
0.292, -4.509e-8
0.293, -4.522e-8
0.294, -4.516e-8
0.295, -4.488e-8
0.296, -4.482e-8
0.297, -4.500e-8
0.298, -4.500e-8
0.299, -4.469e-8
0.300, -4.242e-8
0.299, -3.974e-8
0.298, -3.931e-8
0.297, -3.876e-8
0.296, -3.839e-8
0.295, -3.833e-8
0.294, -3.823e-8
0.293, -3.783e-8
0.292, -3.750e-8
0.291, -3.750e-8
0.290, -3.747e-8
0.289, -3.719e-8
0.288, -3.688e-8
0.287, -3.682e-8
0.286, -3.685e-8
0.285, -3.667e-8
0.284, -3.627e-8
0.283, -3.623e-8
0.282, -3.633e-8
0.281, -3.614e-8
0.280, -3.583e-8
0.279, -3.571e-8
0.278, -3.583e-8
0.277, -3.574e-8
0.276, -3.537e-8
0.275, -3.528e-8
0.274, -3.534e-8
0.273, -3.531e-8
0.272, -3.503e-8
0.271, -3.482e-8
0.270, -3.491e-8
0.269, -3.494e-8
0.268, -3.463e-8
0.267, -3.445e-8
0.266, -3.448e-8
0.265, -3.457e-8
0.264, -3.436e-8
0.263, -3.405e-8
0.262, -3.411e-8
0.261, -3.420e-8
0.260, -3.402e-8
0.259, -3.374e-8
0.258, -3.371e-8
0.257, -3.383e-8
0.256, -3.374e-8
0.255, -3.340e-8
0.254, -3.337e-8
0.253, -3.350e-8
0.252, -3.340e-8
0.251, -3.313e-8
0.250, -3.303e-8
0.249, -3.313e-8
0.248, -3.313e-8
0.247, -3.282e-8
0.246, -3.270e-8
0.245, -3.282e-8
0.244, -3.282e-8
0.243, -3.257e-8
0.242, -3.236e-8
0.241, -3.242e-8
0.240, -3.254e-8
0.239, -3.227e-8
0.238, -3.208e-8
0.237, -3.211e-8
0.236, -3.220e-8
0.235, -3.208e-8
0.234, -3.174e-8
0.233, -3.177e-8
0.232, -3.190e-8
0.231, -3.177e-8
0.230, -3.150e-8
0.229, -3.144e-8
0.228, -3.156e-8
0.227, -3.153e-8
0.226, -3.119e-8
0.225, -3.113e-8
0.224, -3.122e-8
0.223, -3.119e-8
0.222, -3.091e-8
0.221, -3.076e-8
0.220, -3.088e-8
0.219, -3.091e-8
0.218, -3.064e-8
0.217, -3.042e-8
0.216, -3.051e-8
0.215, -3.057e-8
0.214, -3.033e-8
0.213, -3.011e-8
0.212, -3.011e-8
0.211, -3.024e-8
0.210, -3.005e-8
0.209, -2.974e-8
0.208, -2.977e-8
0.207, -2.984e-8
0.206, -2.971e-8
0.205, -2.940e-8
0.204, -2.931e-8
0.203, -2.947e-8
0.202, -2.934e-8
0.201, -2.904e-8
0.200, -2.894e-8
0.199, -2.897e-8
0.198, -2.897e-8
0.197, -2.864e-8
0.196, -2.842e-8
0.195, -2.857e-8
0.194, -2.851e-8
0.193, -2.824e-8
0.192, -2.799e-8
0.191, -2.799e-8
0.190, -2.808e-8
0.189, -2.777e-8
0.188, -2.747e-8
0.187, -2.750e-8
0.186, -2.750e-8
0.185, -2.728e-8
0.184, -2.694e-8
0.183, -2.688e-8
0.182, -2.694e-8
0.181, -2.673e-8
0.180, -2.636e-8
0.179, -2.621e-8
0.178, -2.624e-8
0.177, -2.608e-8
0.176, -2.568e-8
0.175, -2.550e-8
0.174, -2.550e-8
0.173, -2.537e-8
0.172, -2.494e-8
0.171, -2.470e-8
0.170, -2.467e-8
0.169, -2.454e-8
0.168, -2.417e-8
0.167, -2.377e-8
0.166, -2.371e-8
0.165, -2.365e-8
0.164, -2.322e-8
0.163, -2.282e-8
0.162, -2.267e-8
0.161, -2.254e-8
0.160, -2.221e-8
0.159, -2.168e-8
0.158, -2.153e-8
0.157, -2.141e-8
0.156, -2.101e-8
0.155, -2.051e-8
0.154, -2.018e-8
0.153, -2.002e-8
0.152, -1.971e-8
0.151, -1.907e-8
0.150, -1.876e-8
0.149, -1.854e-8
0.148, -1.818e-8
0.147, -1.759e-8
0.146, -1.707e-8
0.145, -1.685e-8
0.144, -1.648e-8
0.143, -1.584e-8
0.142, -1.528e-8
0.141, -1.491e-8
0.140, -1.455e-8
0.139, -1.393e-8
0.138, -1.319e-8
0.137, -1.279e-8
0.136, -1.242e-8
0.135, -1.171e-8
0.134, -1.098e-8
0.133, -1.045e-8
0.132, -9.961e-9
0.131, -9.346e-9
0.130, -8.454e-9
0.129, -7.838e-9
0.128, -7.346e-9
0.127, -6.546e-9
0.126, -5.715e-9
0.125, -4.977e-9
0.124, -4.362e-9
0.123, -3.716e-9
0.122, -2.608e-9
0.121, -1.839e-9
0.120, -1.224e-9
0.119, -4.239e-10
0.118, 5.298e-10
0.117, 1.576e-9
0.116, 2.314e-9
0.115, 3.022e-9
0.114, 4.129e-9
0.113, 5.145e-9
0.112, 5.975e-9
0.111, 6.837e-9
0.110, 7.852e-9
0.109, 9.021e-9
0.108, 9.913e-9
0.107, 1.074e-8
0.106, 1.185e-8
0.105, 1.302e-8
0.104, 1.397e-8
0.103, 1.493e-8
0.102, 1.594e-8
0.101, 1.720e-8
0.100, 1.828e-8
0.099, 1.908e-8
0.098, 2.022e-8
0.097, 2.139e-8
0.096, 2.247e-8
0.095, 2.345e-8
0.094, 2.440e-8
0.093, 2.557e-8
0.092, 2.680e-8
0.091, 2.763e-8
0.090, 2.862e-8
0.089, 2.979e-8
0.088, 3.089e-8
0.087, 3.182e-8
0.086, 3.265e-8
0.085, 3.376e-8
0.084, 3.493e-8
0.083, 3.560e-8
0.082, 3.656e-8
0.081, 3.748e-8
0.080, 3.852e-8
0.079, 3.945e-8
0.078, 4.006e-8
0.077, 4.099e-8
0.076, 4.200e-8
0.075, 4.268e-8
0.074, 4.335e-8
0.073, 4.400e-8
0.072, 4.486e-8
0.071, 4.563e-8
0.070, 4.603e-8
0.069, 4.665e-8
0.068, 4.742e-8
0.067, 4.800e-8
0.066, 4.843e-8
0.065, 4.883e-8
0.064, 4.938e-8
0.063, 5.003e-8
0.062, 5.025e-8
0.061, 5.052e-8
0.060, 5.098e-8
0.059, 5.142e-8
0.058, 5.163e-8
0.057, 5.172e-8
0.056, 5.197e-8
0.055, 5.243e-8
0.054, 5.246e-8
0.053, 5.249e-8
0.052, 5.265e-8
0.051, 5.295e-8
0.050, 5.302e-8
0.049, 5.286e-8
0.048, 5.283e-8
0.047, 5.311e-8
0.046, 5.302e-8
0.045, 5.280e-8
0.044, 5.268e-8
0.043, 5.271e-8
0.042, 5.274e-8
0.041, 5.243e-8
0.040, 5.215e-8
0.039, 5.222e-8
0.038, 5.209e-8
0.037, 5.178e-8
0.036, 5.148e-8
0.035, 5.126e-8
0.034, 5.126e-8
0.033, 5.089e-8
0.032, 5.046e-8
0.031, 5.028e-8
0.030, 5.018e-8
0.029, 4.982e-8
0.028, 4.935e-8
0.027, 4.905e-8
0.026, 4.898e-8
0.025, 4.865e-8
0.024, 4.809e-8
0.023, 4.775e-8
0.022, 4.760e-8
0.021, 4.732e-8
0.020, 4.680e-8
0.019, 4.634e-8
0.018, 4.619e-8
0.017, 4.597e-8
0.016, 4.539e-8
0.015, 4.499e-8
0.014, 4.474e-8
0.013, 4.452e-8
0.012, 4.403e-8
0.011, 4.351e-8
0.010, 4.332e-8
0.009, 4.311e-8
0.008, 4.262e-8
0.007, 4.215e-8
0.006, 4.182e-8
0.005, 4.169e-8
0.004, 4.129e-8
0.003, 4.071e-8
0.002, 4.043e-8
0.001, 4.028e-8
0.000, 4.009e-8
-0.001, 3.945e-8
-0.002, 3.905e-8
-0.003, 3.892e-8
-0.004, 3.865e-8
-0.005, 3.812e-8
-0.006, 3.772e-8
-0.007, 3.757e-8
-0.008, 3.736e-8
-0.009, 3.689e-8
-0.010, 3.646e-8
-0.011, 3.631e-8
-0.012, 3.616e-8
-0.013, 3.573e-8
-0.014, 3.526e-8
-0.015, 3.508e-8
-0.016, 3.499e-8
-0.017, 3.459e-8
-0.018, 3.416e-8
-0.019, 3.391e-8
-0.020, 3.388e-8
-0.021, 3.351e-8
-0.022, 3.305e-8
-0.023, 3.283e-8
-0.024, 3.280e-8
-0.025, 3.253e-8
-0.026, 3.209e-8
-0.027, 3.179e-8
-0.028, 3.179e-8
-0.029, 3.154e-8
-0.030, 3.114e-8
-0.031, 3.080e-8
-0.032, 3.077e-8
-0.033, 3.068e-8
-0.034, 3.025e-8
-0.035, 2.991e-8
-0.036, 2.988e-8
-0.037, 2.979e-8
-0.038, 2.948e-8
-0.039, 2.908e-8
-0.040, 2.902e-8
-0.041, 2.902e-8
-0.042, 2.868e-8
-0.043, 2.831e-8
-0.044, 2.819e-8
-0.045, 2.822e-8
-0.046, 2.800e-8
-0.047, 2.757e-8
-0.048, 2.745e-8
-0.049, 2.751e-8
-0.050, 2.733e-8
-0.051, 2.693e-8
-0.052, 2.674e-8
-0.053, 2.680e-8
-0.054, 2.668e-8
-0.055, 2.631e-8
-0.056, 2.606e-8
-0.057, 2.616e-8
-0.058, 2.606e-8
-0.059, 2.576e-8
-0.060, 2.548e-8
-0.061, 2.551e-8
-0.062, 2.551e-8
-0.063, 2.523e-8
-0.064, 2.493e-8
-0.065, 2.496e-8
-0.066, 2.496e-8
-0.067, 2.471e-8
-0.068, 2.440e-8
-0.069, 2.434e-8
-0.070, 2.447e-8
-0.071, 2.428e-8
-0.072, 2.391e-8
-0.073, 2.385e-8
-0.074, 2.394e-8
-0.075, 2.382e-8
-0.076, 2.351e-8
-0.077, 2.336e-8
-0.078, 2.348e-8
-0.079, 2.339e-8
-0.080, 2.308e-8
-0.081, 2.293e-8
-0.082, 2.299e-8
-0.083, 2.302e-8
-0.084, 2.271e-8
-0.085, 2.250e-8
-0.086, 2.259e-8
-0.087, 2.262e-8
-0.088, 2.237e-8
-0.089, 2.213e-8
-0.090, 2.219e-8
-0.091, 2.225e-8
-0.092, 2.207e-8
-0.093, 2.179e-8
-0.094, 2.179e-8
-0.095, 2.194e-8
-0.096, 2.176e-8
-0.097, 2.148e-8
-0.098, 2.145e-8
-0.099, 2.157e-8
-0.100, 2.151e-8
-0.101, 2.117e-8
-0.102, 2.111e-8
-0.103, 2.127e-8
-0.104, 2.120e-8
-0.105, 2.096e-8
-0.106, 2.080e-8
-0.107, 2.093e-8
-0.108, 2.099e-8
-0.109, 2.068e-8
-0.110, 2.056e-8
-0.111, 2.065e-8
-0.112, 2.071e-8
-0.113, 2.053e-8
-0.114, 2.028e-8
-0.115, 2.037e-8
-0.116, 2.050e-8
-0.117, 2.028e-8
-0.118, 2.007e-8
-0.119, 2.010e-8
-0.120, 2.025e-8
-0.121, 2.013e-8
-0.122, 1.985e-8
-0.123, 1.988e-8
-0.124, 2.003e-8
-0.125, 1.994e-8
-0.126, 1.973e-8
-0.127, 1.963e-8
-0.128, 1.985e-8
-0.129, 1.982e-8
-0.130, 1.957e-8
-0.131, 1.945e-8
-0.132, 1.960e-8
-0.133, 1.967e-8
-0.134, 1.945e-8
-0.135, 1.927e-8
-0.136, 1.942e-8
-0.137, 1.951e-8
-0.138, 1.933e-8
-0.139, 1.911e-8
-0.140, 1.927e-8
-0.141, 1.939e-8
-0.142, 1.923e-8
-0.143, 1.902e-8
-0.144, 1.905e-8
-0.145, 1.927e-8
-0.146, 1.911e-8
-0.147, 1.890e-8
-0.148, 1.893e-8
-0.149, 1.911e-8
-0.150, 1.905e-8
-0.151, 1.884e-8
-0.152, 1.877e-8
-0.153, 1.902e-8
-0.154, 1.899e-8
-0.155, 1.874e-8
-0.156, 1.868e-8
-0.157, 1.884e-8
-0.158, 1.893e-8
-0.159, 1.871e-8
-0.160, 1.856e-8
-0.161, 1.877e-8
-0.162, 1.884e-8
-0.163, 1.868e-8
-0.164, 1.853e-8
-0.165, 1.862e-8
-0.166, 1.880e-8
-0.167, 1.865e-8
-0.168, 1.847e-8
-0.169, 1.856e-8
-0.170, 1.874e-8
-0.171, 1.865e-8
-0.172, 1.844e-8
-0.173, 1.847e-8
-0.174, 1.868e-8
-0.175, 1.865e-8
-0.176, 1.840e-8
-0.177, 1.840e-8
-0.178, 1.862e-8
-0.179, 1.865e-8
-0.180, 1.847e-8
-0.181, 1.837e-8
-0.182, 1.859e-8
-0.183, 1.865e-8
-0.184, 1.847e-8
-0.185, 1.837e-8
-0.186, 1.853e-8
-0.187, 1.868e-8
-0.188, 1.853e-8
-0.189, 1.834e-8
-0.190, 1.853e-8
-0.191, 1.868e-8
-0.192, 1.856e-8
-0.193, 1.840e-8
-0.194, 1.850e-8
-0.195, 1.868e-8
-0.196, 1.865e-8
-0.197, 1.844e-8
-0.198, 1.850e-8
-0.199, 1.874e-8
