Mar. 16, 2023   09:52:36
Cyclic Voltammetry
File: c:/users/oliverrz/desktop/electrolab/data/2023_03_16\fcmeoh_macros_750_um\electrode8_cv_150mvs_750_um.bin
Data Source:  Experiment
Instrument Model:  CHI760E
Header: CV
Note: 

Init E (V) = -0.2
High E (V) = 0.3
Low E (V) = -0.2
Final E (V) = -0.2
Init P/N = P
Scan Rate (V/s) = 0.15
Segment = 3
Sample Interval (V) = 0.001
Quiet Time (sec) = 2
Sensitivity (A/V) = 1e-7

Results:

Channel 1:
Segment 1:
Ep = 0.111V
ip = -5.959e-8A
Ah = -2.530e-8C

Segment 2:
Ep = 0.050V
ip = 5.561e-8A
Ah = 2.193e-8C

Segment 3:

Potential/V, Current/A

-0.200, 4.703e-9
-0.199, 3.982e-9
-0.198, 4.002e-9
-0.197, 3.933e-9
-0.196, 3.709e-9
-0.195, 3.868e-9
-0.194, 3.601e-9
-0.193, 3.665e-9
-0.192, 3.612e-9
-0.191, 3.420e-9
-0.190, 3.594e-9
-0.189, 3.320e-9
-0.188, 3.413e-9
-0.187, 3.360e-9
-0.186, 3.173e-9
-0.185, 3.349e-9
-0.184, 3.094e-9
-0.183, 3.182e-9
-0.182, 3.131e-9
-0.181, 2.961e-9
-0.180, 3.129e-9
-0.179, 2.868e-9
-0.178, 2.978e-9
-0.177, 2.914e-9
-0.176, 2.757e-9
-0.175, 2.944e-9
-0.174, 2.662e-9
-0.173, 2.789e-9
-0.172, 2.737e-9
-0.171, 2.548e-9
-0.170, 2.765e-9
-0.169, 2.493e-9
-0.168, 2.594e-9
-0.167, 2.562e-9
-0.166, 2.382e-9
-0.165, 2.580e-9
-0.164, 2.321e-9
-0.163, 2.429e-9
-0.162, 2.394e-9
-0.161, 2.213e-9
-0.160, 2.424e-9
-0.159, 2.161e-9
-0.158, 2.268e-9
-0.157, 2.245e-9
-0.156, 2.053e-9
-0.155, 2.262e-9
-0.154, 2.007e-9
-0.153, 2.104e-9
-0.152, 2.093e-9
-0.151, 1.922e-9
-0.150, 2.102e-9
-0.149, 1.869e-9
-0.148, 1.981e-9
-0.147, 1.930e-9
-0.146, 1.781e-9
-0.145, 1.969e-9
-0.144, 1.721e-9
-0.143, 1.846e-9
-0.142, 1.799e-9
-0.141, 1.631e-9
-0.140, 1.847e-9
-0.139, 1.583e-9
-0.138, 1.715e-9
-0.137, 1.669e-9
-0.136, 1.519e-9
-0.135, 1.715e-9
-0.134, 1.459e-9
-0.133, 1.590e-9
-0.132, 1.549e-9
-0.131, 1.388e-9
-0.130, 1.601e-9
-0.129, 1.329e-9
-0.128, 1.462e-9
-0.127, 1.437e-9
-0.126, 1.257e-9
-0.125, 1.482e-9
-0.124, 1.222e-9
-0.123, 1.335e-9
-0.122, 1.329e-9
-0.121, 1.145e-9
-0.120, 1.359e-9
-0.119, 1.118e-9
-0.118, 1.224e-9
-0.117, 1.201e-9
-0.116, 1.045e-9
-0.115, 1.246e-9
-0.114, 9.957e-10
-0.113, 1.122e-9
-0.112, 1.102e-9
-0.111, 9.268e-10
-0.110, 1.144e-9
-0.109, 8.948e-10
-0.108, 1.003e-9
-0.107, 9.937e-10
-0.106, 8.251e-10
-0.105, 1.017e-9
-0.104, 7.953e-10
-0.103, 8.982e-10
-0.102, 8.607e-10
-0.101, 7.190e-10
-0.100, 9.255e-10
-0.099, 6.544e-10
-0.098, 8.030e-10
-0.097, 7.587e-10
-0.096, 5.992e-10
-0.095, 8.203e-10
-0.094, 5.472e-10
-0.093, 6.763e-10
-0.092, 6.532e-10
-0.091, 4.891e-10
-0.090, 6.900e-10
-0.089, 4.401e-10
-0.088, 5.671e-10
-0.087, 5.280e-10
-0.086, 3.630e-10
-0.085, 5.822e-10
-0.084, 3.165e-10
-0.083, 4.461e-10
-0.082, 4.163e-10
-0.081, 2.295e-10
-0.080, 4.734e-10
-0.079, 1.971e-10
-0.078, 3.059e-10
-0.077, 2.882e-10
-0.076, 1.142e-10
-0.075, 3.197e-10
-0.074, 7.577e-11
-0.073, 1.744e-10
-0.072, 1.441e-10
-0.071, -5.045e-13
-0.070, 1.738e-10
-0.069, -7.789e-11
-0.068, 4.340e-11
-0.067, 5.302e-13
-0.066, -1.647e-10
-0.065, 3.401e-11
-0.064, -2.360e-10
-0.063, -1.212e-10
-0.062, -1.576e-10
-0.061, -3.298e-10
-0.060, -1.444e-10
-0.059, -3.930e-10
-0.058, -2.942e-10
-0.057, -3.531e-10
-0.056, -5.059e-10
-0.055, -3.245e-10
-0.054, -6.085e-10
-0.053, -4.796e-10
-0.052, -5.489e-10
-0.051, -7.398e-10
-0.050, -5.349e-10
-0.049, -8.242e-10
-0.048, -7.148e-10
-0.047, -7.621e-10
-0.046, -9.768e-10
-0.045, -7.833e-10
-0.044, -1.061e-9
-0.043, -9.804e-10
-0.042, -1.041e-9
-0.041, -1.239e-9
-0.040, -1.065e-9
-0.039, -1.360e-9
-0.038, -1.280e-9
-0.037, -1.347e-9
-0.036, -1.562e-9
-0.035, -1.385e-9
-0.034, -1.691e-9
-0.033, -1.637e-9
-0.032, -1.697e-9
-0.031, -1.925e-9
-0.030, -1.791e-9
-0.029, -2.078e-9
-0.028, -2.042e-9
-0.027, -2.140e-9
-0.026, -2.350e-9
-0.025, -2.247e-9
-0.024, -2.554e-9
-0.023, -2.500e-9
-0.022, -2.640e-9
-0.021, -2.871e-9
-0.020, -2.754e-9
-0.019, -3.112e-9
-0.018, -3.081e-9
-0.017, -3.220e-9
-0.016, -3.474e-9
-0.015, -3.392e-9
-0.014, -3.746e-9
-0.013, -3.747e-9
-0.012, -3.907e-9
-0.011, -4.190e-9
-0.010, -4.118e-9
-0.009, -4.525e-9
-0.008, -4.520e-9
-0.007, -4.718e-9
-0.006, -5.050e-9
-0.005, -4.989e-9
-0.004, -5.419e-9
-0.003, -5.464e-9
-0.002, -5.675e-9
-0.001, -6.051e-9
-0.000, -6.129e-9
0.001, -6.510e-9
0.002, -6.619e-9
0.003, -6.840e-9
0.004, -7.233e-9
0.005, -7.282e-9
0.006, -7.756e-9
0.007, -7.906e-9
0.008, -8.195e-9
0.009, -8.627e-9
0.010, -8.709e-9
0.011, -9.230e-9
0.012, -9.437e-9
0.013, -9.765e-9
0.014, -1.024e-8
0.015, -1.040e-8
0.016, -1.094e-8
0.017, -1.120e-8
0.018, -1.161e-8
0.019, -1.210e-8
0.020, -1.233e-8
0.021, -1.295e-8
0.022, -1.324e-8
0.023, -1.373e-8
0.024, -1.427e-8
0.025, -1.455e-8
0.026, -1.527e-8
0.027, -1.561e-8
0.028, -1.615e-8
0.029, -1.679e-8
0.030, -1.710e-8
0.031, -1.788e-8
0.032, -1.827e-8
0.033, -1.889e-8
0.034, -1.960e-8
0.035, -1.996e-8
0.036, -2.080e-8
0.037, -2.128e-8
0.038, -2.196e-8
0.039, -2.274e-8
0.040, -2.316e-8
0.041, -2.407e-8
0.042, -2.464e-8
0.043, -2.533e-8
0.044, -2.620e-8
0.045, -2.667e-8
0.046, -2.762e-8
0.047, -2.828e-8
0.048, -2.900e-8
0.049, -2.988e-8
0.050, -3.050e-8
0.051, -3.147e-8
0.052, -3.215e-8
0.053, -3.296e-8
0.054, -3.383e-8
0.055, -3.450e-8
0.056, -3.546e-8
0.057, -3.618e-8
0.058, -3.702e-8
0.059, -3.795e-8
0.060, -3.859e-8
0.061, -3.958e-8
0.062, -4.027e-8
0.063, -4.117e-8
0.064, -4.206e-8
0.065, -4.271e-8
0.066, -4.372e-8
0.067, -4.437e-8
0.068, -4.524e-8
0.069, -4.611e-8
0.070, -4.668e-8
0.071, -4.770e-8
0.072, -4.831e-8
0.073, -4.910e-8
0.074, -4.995e-8
0.075, -5.046e-8
0.076, -5.138e-8
0.077, -5.198e-8
0.078, -5.267e-8
0.079, -5.346e-8
0.080, -5.387e-8
0.081, -5.471e-8
0.082, -5.521e-8
0.083, -5.582e-8
0.084, -5.649e-8
0.085, -5.682e-8
0.086, -5.755e-8
0.087, -5.797e-8
0.088, -5.841e-8
0.089, -5.902e-8
0.090, -5.927e-8
0.091, -5.983e-8
0.092, -6.013e-8
0.093, -6.050e-8
0.094, -6.093e-8
0.095, -6.111e-8
0.096, -6.156e-8
0.097, -6.170e-8
0.098, -6.201e-8
0.099, -6.229e-8
0.100, -6.232e-8
0.101, -6.269e-8
0.102, -6.275e-8
0.103, -6.294e-8
0.104, -6.313e-8
0.105, -6.302e-8
0.106, -6.330e-8
0.107, -6.321e-8
0.108, -6.328e-8
0.109, -6.338e-8
0.110, -6.319e-8
0.111, -6.340e-8
0.112, -6.318e-8
0.113, -6.318e-8
0.114, -6.323e-8
0.115, -6.291e-8
0.116, -6.305e-8
0.117, -6.278e-8
0.118, -6.267e-8
0.119, -6.269e-8
0.120, -6.228e-8
0.121, -6.233e-8
0.122, -6.205e-8
0.123, -6.186e-8
0.124, -6.180e-8
0.125, -6.138e-8
0.126, -6.138e-8
0.127, -6.105e-8
0.128, -6.084e-8
0.129, -6.072e-8
0.130, -6.029e-8
0.131, -6.024e-8
0.132, -5.988e-8
0.133, -5.963e-8
0.134, -5.950e-8
0.135, -5.904e-8
0.136, -5.897e-8
0.137, -5.859e-8
0.138, -5.834e-8
0.139, -5.817e-8
0.140, -5.771e-8
0.141, -5.766e-8
0.142, -5.722e-8
0.143, -5.700e-8
0.144, -5.682e-8
0.145, -5.632e-8
0.146, -5.629e-8
0.147, -5.585e-8
0.148, -5.560e-8
0.149, -5.545e-8
0.150, -5.495e-8
0.151, -5.491e-8
0.152, -5.448e-8
0.153, -5.424e-8
0.154, -5.410e-8
0.155, -5.361e-8
0.156, -5.358e-8
0.157, -5.315e-8
0.158, -5.290e-8
0.159, -5.280e-8
0.160, -5.229e-8
0.161, -5.228e-8
0.162, -5.188e-8
0.163, -5.164e-8
0.164, -5.153e-8
0.165, -5.106e-8
0.166, -5.103e-8
0.167, -5.068e-8
0.168, -5.044e-8
0.169, -5.032e-8
0.170, -4.989e-8
0.171, -4.988e-8
0.172, -4.951e-8
0.173, -4.931e-8
0.174, -4.921e-8
0.175, -4.877e-8
0.176, -4.878e-8
0.177, -4.843e-8
0.178, -4.822e-8
0.179, -4.816e-8
0.180, -4.774e-8
0.181, -4.775e-8
0.182, -4.741e-8
0.183, -4.724e-8
0.184, -4.716e-8
0.185, -4.675e-8
0.186, -4.680e-8
0.187, -4.644e-8
0.188, -4.629e-8
0.189, -4.624e-8
0.190, -4.582e-8
0.191, -4.590e-8
0.192, -4.557e-8
0.193, -4.540e-8
0.194, -4.539e-8
0.195, -4.499e-8
0.196, -4.505e-8
0.197, -4.475e-8
0.198, -4.460e-8
0.199, -4.458e-8
0.200, -4.419e-8
0.201, -4.427e-8
0.202, -4.399e-8
0.203, -4.385e-8
0.204, -4.385e-8
0.205, -4.347e-8
0.206, -4.357e-8
0.207, -4.329e-8
0.208, -4.315e-8
0.209, -4.316e-8
0.210, -4.281e-8
0.211, -4.288e-8
0.212, -4.264e-8
0.213, -4.252e-8
0.214, -4.251e-8
0.215, -4.219e-8
0.216, -4.228e-8
0.217, -4.201e-8
0.218, -4.193e-8
0.219, -4.194e-8
0.220, -4.159e-8
0.221, -4.172e-8
0.222, -4.146e-8
0.223, -4.136e-8
0.224, -4.139e-8
0.225, -4.105e-8
0.226, -4.119e-8
0.227, -4.093e-8
0.228, -4.085e-8
0.229, -4.087e-8
0.230, -4.056e-8
0.231, -4.070e-8
0.232, -4.044e-8
0.233, -4.036e-8
0.234, -4.042e-8
0.235, -4.007e-8
0.236, -4.024e-8
0.237, -4.000e-8
0.238, -3.991e-8
0.239, -3.998e-8
0.240, -3.966e-8
0.241, -3.979e-8
0.242, -3.959e-8
0.243, -3.952e-8
0.244, -3.956e-8
0.245, -3.926e-8
0.246, -3.942e-8
0.247, -3.919e-8
0.248, -3.912e-8
0.249, -3.920e-8
0.250, -3.889e-8
0.251, -3.905e-8
0.252, -3.884e-8
0.253, -3.878e-8
0.254, -3.884e-8
0.255, -3.856e-8
0.256, -3.871e-8
0.257, -3.850e-8
0.258, -3.845e-8
0.259, -3.850e-8
0.260, -3.824e-8
0.261, -3.840e-8
0.262, -3.817e-8
0.263, -3.816e-8
0.264, -3.822e-8
0.265, -3.793e-8
0.266, -3.813e-8
0.267, -3.791e-8
0.268, -3.788e-8
0.269, -3.797e-8
0.270, -3.768e-8
0.271, -3.785e-8
0.272, -3.765e-8
0.273, -3.762e-8
0.274, -3.769e-8
0.275, -3.742e-8
0.276, -3.762e-8
0.277, -3.742e-8
0.278, -3.739e-8
0.279, -3.750e-8
0.280, -3.719e-8
0.281, -3.740e-8
0.282, -3.723e-8
0.283, -3.716e-8
0.284, -3.728e-8
0.285, -3.701e-8
0.286, -3.719e-8
0.287, -3.702e-8
0.288, -3.699e-8
0.289, -3.709e-8
0.290, -3.684e-8
0.291, -3.702e-8
0.292, -3.684e-8
0.293, -3.682e-8
0.294, -3.692e-8
0.295, -3.667e-8
0.296, -3.687e-8
0.297, -3.669e-8
0.298, -3.667e-8
0.299, -3.678e-8
0.300, -3.448e-8
0.299, -3.347e-8
0.298, -3.304e-8
0.297, -3.281e-8
0.296, -3.276e-8
0.295, -3.237e-8
0.294, -3.245e-8
0.293, -3.215e-8
0.292, -3.202e-8
0.291, -3.205e-8
0.290, -3.167e-8
0.289, -3.179e-8
0.288, -3.154e-8
0.287, -3.143e-8
0.286, -3.147e-8
0.285, -3.114e-8
0.284, -3.125e-8
0.283, -3.103e-8
0.282, -3.094e-8
0.281, -3.097e-8
0.280, -3.068e-8
0.279, -3.082e-8
0.278, -3.058e-8
0.277, -3.053e-8
0.276, -3.056e-8
0.275, -3.025e-8
0.274, -3.041e-8
0.273, -3.017e-8
0.272, -3.011e-8
0.271, -3.017e-8
0.270, -2.987e-8
0.269, -3.002e-8
0.268, -2.980e-8
0.267, -2.975e-8
0.266, -2.981e-8
0.265, -2.952e-8
0.264, -2.968e-8
0.263, -2.945e-8
0.262, -2.941e-8
0.261, -2.948e-8
0.260, -2.916e-8
0.259, -2.936e-8
0.258, -2.914e-8
0.257, -2.907e-8
0.256, -2.916e-8
0.255, -2.887e-8
0.254, -2.903e-8
0.253, -2.884e-8
0.252, -2.877e-8
0.251, -2.885e-8
0.250, -2.858e-8
0.249, -2.873e-8
0.248, -2.852e-8
0.247, -2.849e-8
0.246, -2.856e-8
0.245, -2.827e-8
0.244, -2.843e-8
0.243, -2.824e-8
0.242, -2.820e-8
0.241, -2.827e-8
0.240, -2.800e-8
0.239, -2.815e-8
0.238, -2.796e-8
0.237, -2.792e-8
0.236, -2.797e-8
0.235, -2.771e-8
0.234, -2.788e-8
0.233, -2.765e-8
0.232, -2.763e-8
0.231, -2.770e-8
0.230, -2.740e-8
0.229, -2.760e-8
0.228, -2.737e-8
0.227, -2.733e-8
0.226, -2.741e-8
0.225, -2.711e-8
0.224, -2.729e-8
0.223, -2.709e-8
0.222, -2.704e-8
0.221, -2.711e-8
0.220, -2.682e-8
0.219, -2.700e-8
0.218, -2.678e-8
0.217, -2.673e-8
0.216, -2.680e-8
0.215, -2.651e-8
0.214, -2.668e-8
0.213, -2.647e-8
0.212, -2.640e-8
0.211, -2.649e-8
0.210, -2.618e-8
0.209, -2.633e-8
0.208, -2.612e-8
0.207, -2.607e-8
0.206, -2.611e-8
0.205, -2.582e-8
0.204, -2.597e-8
0.203, -2.575e-8
0.202, -2.571e-8
0.201, -2.574e-8
0.200, -2.545e-8
0.199, -2.559e-8
0.198, -2.535e-8
0.197, -2.529e-8
0.196, -2.532e-8
0.195, -2.503e-8
0.194, -2.516e-8
0.193, -2.492e-8
0.192, -2.485e-8
0.191, -2.488e-8
0.190, -2.455e-8
0.189, -2.469e-8
0.188, -2.441e-8
0.187, -2.434e-8
0.186, -2.437e-8
0.185, -2.401e-8
0.184, -2.415e-8
0.183, -2.388e-8
0.182, -2.376e-8
0.181, -2.378e-8
0.180, -2.342e-8
0.179, -2.353e-8
0.178, -2.325e-8
0.177, -2.311e-8
0.176, -2.312e-8
0.175, -2.274e-8
0.174, -2.282e-8
0.173, -2.253e-8
0.172, -2.237e-8
0.171, -2.235e-8
0.170, -2.196e-8
0.169, -2.201e-8
0.168, -2.169e-8
0.167, -2.152e-8
0.166, -2.146e-8
0.165, -2.106e-8
0.164, -2.107e-8
0.163, -2.075e-8
0.162, -2.055e-8
0.161, -2.044e-8
0.160, -2.002e-8
0.159, -2.000e-8
0.158, -1.962e-8
0.157, -1.941e-8
0.156, -1.925e-8
0.155, -1.881e-8
0.154, -1.875e-8
0.153, -1.832e-8
0.152, -1.807e-8
0.151, -1.790e-8
0.150, -1.739e-8
0.149, -1.730e-8
0.148, -1.682e-8
0.147, -1.655e-8
0.146, -1.632e-8
0.145, -1.574e-8
0.144, -1.563e-8
0.143, -1.509e-8
0.142, -1.475e-8
0.141, -1.448e-8
0.140, -1.384e-8
0.139, -1.368e-8
0.138, -1.311e-8
0.137, -1.269e-8
0.136, -1.238e-8
0.135, -1.170e-8
0.134, -1.145e-8
0.133, -1.084e-8
0.132, -1.034e-8
0.131, -9.976e-9
0.130, -9.237e-9
0.129, -8.916e-9
0.128, -8.222e-9
0.127, -7.688e-9
0.126, -7.245e-9
0.125, -6.458e-9
0.124, -6.032e-9
0.123, -5.327e-9
0.122, -4.731e-9
0.121, -4.189e-9
0.120, -3.354e-9
0.119, -2.885e-9
0.118, -2.092e-9
0.117, -1.460e-9
0.116, -8.170e-10
0.115, 6.284e-11
0.114, 5.882e-10
0.113, 1.459e-9
0.112, 2.137e-9
0.111, 2.832e-9
0.110, 3.766e-9
0.109, 4.339e-9
0.108, 5.271e-9
0.107, 5.997e-9
0.106, 6.699e-9
0.105, 7.694e-9
0.104, 8.306e-9
0.103, 9.298e-9
0.102, 1.009e-8
0.101, 1.077e-8
0.100, 1.184e-8
0.099, 1.238e-8
0.098, 1.339e-8
0.097, 1.420e-8
0.096, 1.489e-8
0.095, 1.595e-8
0.094, 1.657e-8
0.093, 1.753e-8
0.092, 1.833e-8
0.091, 1.903e-8
0.090, 2.003e-8
0.089, 2.065e-8
0.088, 2.155e-8
0.087, 2.233e-8
0.086, 2.298e-8
0.085, 2.391e-8
0.084, 2.450e-8
0.083, 2.534e-8
0.082, 2.605e-8
0.081, 2.667e-8
0.080, 2.752e-8
0.079, 2.804e-8
0.078, 2.878e-8
0.077, 2.940e-8
0.076, 3.000e-8
0.075, 3.068e-8
0.074, 3.111e-8
0.073, 3.181e-8
0.072, 3.230e-8
0.071, 3.277e-8
0.070, 3.339e-8
0.069, 3.368e-8
0.068, 3.430e-8
0.067, 3.462e-8
0.066, 3.496e-8
0.065, 3.554e-8
0.064, 3.570e-8
0.063, 3.619e-8
0.062, 3.643e-8
0.061, 3.664e-8
0.060, 3.710e-8
0.059, 3.711e-8
0.058, 3.749e-8
0.057, 3.763e-8
0.056, 3.771e-8
0.055, 3.807e-8
0.054, 3.798e-8
0.053, 3.823e-8
0.052, 3.832e-8
0.051, 3.825e-8
0.050, 3.853e-8
0.049, 3.837e-8
0.048, 3.848e-8
0.047, 3.848e-8
0.046, 3.832e-8
0.045, 3.848e-8
0.044, 3.828e-8
0.043, 3.830e-8
0.042, 3.820e-8
0.041, 3.802e-8
0.040, 3.810e-8
0.039, 3.779e-8
0.038, 3.779e-8
0.037, 3.760e-8
0.036, 3.738e-8
0.035, 3.737e-8
0.034, 3.700e-8
0.033, 3.697e-8
0.032, 3.674e-8
0.031, 3.645e-8
0.030, 3.644e-8
0.029, 3.601e-8
0.028, 3.597e-8
0.027, 3.569e-8
0.026, 3.537e-8
0.025, 3.536e-8
0.024, 3.488e-8
0.023, 3.480e-8
0.022, 3.452e-8
0.021, 3.415e-8
0.020, 3.414e-8
0.019, 3.363e-8
0.018, 3.353e-8
0.017, 3.327e-8
0.016, 3.287e-8
0.015, 3.285e-8
0.014, 3.236e-8
0.013, 3.225e-8
0.012, 3.198e-8
0.011, 3.157e-8
0.010, 3.154e-8
0.009, 3.107e-8
0.008, 3.095e-8
0.007, 3.067e-8
0.006, 3.030e-8
0.005, 3.025e-8
0.004, 2.979e-8
0.003, 2.967e-8
0.002, 2.940e-8
0.001, 2.904e-8
0.000, 2.910e-8
-0.001, 2.857e-8
-0.002, 2.848e-8
-0.003, 2.820e-8
-0.004, 2.786e-8
-0.005, 2.782e-8
-0.006, 2.735e-8
-0.007, 2.731e-8
-0.008, 2.703e-8
-0.009, 2.669e-8
-0.010, 2.669e-8
-0.011, 2.623e-8
-0.012, 2.619e-8
-0.013, 2.594e-8
-0.014, 2.560e-8
-0.015, 2.562e-8
-0.016, 2.517e-8
-0.017, 2.514e-8
-0.018, 2.491e-8
-0.019, 2.458e-8
-0.020, 2.461e-8
-0.021, 2.417e-8
-0.022, 2.414e-8
-0.023, 2.394e-8
-0.024, 2.362e-8
-0.025, 2.367e-8
-0.026, 2.325e-8
-0.027, 2.323e-8
-0.028, 2.304e-8
-0.029, 2.273e-8
-0.030, 2.279e-8
-0.031, 2.241e-8
-0.032, 2.238e-8
-0.033, 2.220e-8
-0.034, 2.193e-8
-0.035, 2.198e-8
-0.036, 2.161e-8
-0.037, 2.161e-8
-0.038, 2.143e-8
-0.039, 2.118e-8
-0.040, 2.123e-8
-0.041, 2.086e-8
-0.042, 2.089e-8
-0.043, 2.071e-8
-0.044, 2.047e-8
-0.045, 2.054e-8
-0.046, 2.018e-8
-0.047, 2.023e-8
-0.048, 2.006e-8
-0.049, 1.983e-8
-0.050, 1.992e-8
-0.051, 1.957e-8
-0.052, 1.962e-8
-0.053, 1.945e-8
-0.054, 1.922e-8
-0.055, 1.935e-8
-0.056, 1.898e-8
-0.057, 1.904e-8
-0.058, 1.891e-8
-0.059, 1.867e-8
-0.060, 1.881e-8
-0.061, 1.846e-8
-0.062, 1.852e-8
-0.063, 1.840e-8
-0.064, 1.818e-8
-0.065, 1.830e-8
-0.066, 1.797e-8
-0.067, 1.804e-8
-0.068, 1.793e-8
-0.069, 1.770e-8
-0.070, 1.785e-8
-0.071, 1.753e-8
-0.072, 1.760e-8
-0.073, 1.749e-8
-0.074, 1.729e-8
-0.075, 1.742e-8
-0.076, 1.713e-8
-0.077, 1.719e-8
-0.078, 1.709e-8
-0.079, 1.691e-8
-0.080, 1.703e-8
-0.081, 1.673e-8
-0.082, 1.683e-8
-0.083, 1.672e-8
-0.084, 1.655e-8
-0.085, 1.668e-8
-0.086, 1.638e-8
-0.087, 1.649e-8
-0.088, 1.639e-8
-0.089, 1.620e-8
-0.090, 1.636e-8
-0.091, 1.606e-8
-0.092, 1.617e-8
-0.093, 1.607e-8
-0.094, 1.590e-8
-0.095, 1.606e-8
-0.096, 1.576e-8
-0.097, 1.588e-8
-0.098, 1.579e-8
-0.099, 1.561e-8
-0.100, 1.580e-8
-0.101, 1.549e-8
-0.102, 1.561e-8
-0.103, 1.555e-8
-0.104, 1.536e-8
-0.105, 1.554e-8
-0.106, 1.527e-8
-0.107, 1.537e-8
-0.108, 1.531e-8
-0.109, 1.514e-8
-0.110, 1.531e-8
-0.111, 1.504e-8
-0.112, 1.516e-8
-0.113, 1.508e-8
-0.114, 1.493e-8
-0.115, 1.511e-8
-0.116, 1.485e-8
-0.117, 1.495e-8
-0.118, 1.490e-8
-0.119, 1.474e-8
-0.120, 1.492e-8
-0.121, 1.466e-8
-0.122, 1.479e-8
-0.123, 1.471e-8
-0.124, 1.459e-8
-0.125, 1.475e-8
-0.126, 1.449e-8
-0.127, 1.464e-8
-0.128, 1.457e-8
-0.129, 1.442e-8
-0.130, 1.462e-8
-0.131, 1.435e-8
-0.132, 1.450e-8
-0.133, 1.444e-8
-0.134, 1.429e-8
-0.135, 1.449e-8
-0.136, 1.423e-8
-0.137, 1.436e-8
-0.138, 1.432e-8
-0.139, 1.418e-8
-0.140, 1.438e-8
-0.141, 1.411e-8
-0.142, 1.427e-8
-0.143, 1.421e-8
-0.144, 1.407e-8
-0.145, 1.428e-8
-0.146, 1.402e-8
-0.147, 1.417e-8
-0.148, 1.414e-8
-0.149, 1.398e-8
-0.150, 1.419e-8
-0.151, 1.396e-8
-0.152, 1.409e-8
-0.153, 1.405e-8
-0.154, 1.394e-8
-0.155, 1.412e-8
-0.156, 1.389e-8
-0.157, 1.404e-8
-0.158, 1.398e-8
-0.159, 1.388e-8
-0.160, 1.408e-8
-0.161, 1.383e-8
-0.162, 1.400e-8
-0.163, 1.396e-8
-0.164, 1.384e-8
-0.165, 1.404e-8
-0.166, 1.381e-8
-0.167, 1.397e-8
-0.168, 1.392e-8
-0.169, 1.382e-8
-0.170, 1.402e-8
-0.171, 1.378e-8
-0.172, 1.397e-8
-0.173, 1.390e-8
-0.174, 1.380e-8
-0.175, 1.404e-8
-0.176, 1.378e-8
-0.177, 1.396e-8
-0.178, 1.393e-8
-0.179, 1.381e-8
-0.180, 1.404e-8
-0.181, 1.381e-8
-0.182, 1.397e-8
-0.183, 1.395e-8
-0.184, 1.384e-8
-0.185, 1.406e-8
-0.186, 1.383e-8
-0.187, 1.401e-8
-0.188, 1.399e-8
-0.189, 1.387e-8
-0.190, 1.411e-8
-0.191, 1.388e-8
-0.192, 1.406e-8
-0.193, 1.405e-8
-0.194, 1.394e-8
-0.195, 1.415e-8
-0.196, 1.397e-8
-0.197, 1.413e-8
-0.198, 1.410e-8
-0.199, 1.403e-8
