Mar. 16, 2023   09:52:08
Cyclic Voltammetry
File: c:/users/oliverrz/desktop/electrolab/data/2023_03_16\fcmeoh_macros_750_um\electrode8_cv_50mvs_750_um.bin
Data Source:  Experiment
Instrument Model:  CHI760E
Header: CV
Note: 

Init E (V) = -0.2
High E (V) = 0.3
Low E (V) = -0.2
Final E (V) = -0.2
Init P/N = P
Scan Rate (V/s) = 0.05
Segment = 3
Sample Interval (V) = 0.001
Quiet Time (sec) = 2
Sensitivity (A/V) = 1e-7

Results:

Channel 1:
Segment 1:
Ep = 0.115V
ip = -3.662e-8A
Ah = -4.761e-8C

Segment 2:
Ep = 0.042V
ip = 3.443e-8A
Ah = 4.516e-8C

Segment 3:

Potential/V, Current/A

-0.200, 3.695e-9
-0.199, 3.349e-9
-0.198, 3.256e-9
-0.197, 3.207e-9
-0.196, 3.153e-9
-0.195, 3.107e-9
-0.194, 3.055e-9
-0.193, 3.011e-9
-0.192, 2.973e-9
-0.191, 2.934e-9
-0.190, 2.897e-9
-0.189, 2.855e-9
-0.188, 2.812e-9
-0.187, 2.783e-9
-0.186, 2.747e-9
-0.185, 2.711e-9
-0.184, 2.673e-9
-0.183, 2.635e-9
-0.182, 2.610e-9
-0.181, 2.577e-9
-0.180, 2.541e-9
-0.179, 2.511e-9
-0.178, 2.476e-9
-0.177, 2.446e-9
-0.176, 2.419e-9
-0.175, 2.389e-9
-0.174, 2.359e-9
-0.173, 2.326e-9
-0.172, 2.296e-9
-0.171, 2.272e-9
-0.170, 2.244e-9
-0.169, 2.212e-9
-0.168, 2.184e-9
-0.167, 2.159e-9
-0.166, 2.138e-9
-0.165, 2.106e-9
-0.164, 2.073e-9
-0.163, 2.048e-9
-0.162, 2.024e-9
-0.161, 2.004e-9
-0.160, 1.979e-9
-0.159, 1.949e-9
-0.158, 1.926e-9
-0.157, 1.904e-9
-0.156, 1.880e-9
-0.155, 1.859e-9
-0.154, 1.829e-9
-0.153, 1.804e-9
-0.152, 1.787e-9
-0.151, 1.769e-9
-0.150, 1.750e-9
-0.149, 1.722e-9
-0.148, 1.699e-9
-0.147, 1.683e-9
-0.146, 1.661e-9
-0.145, 1.640e-9
-0.144, 1.616e-9
-0.143, 1.594e-9
-0.142, 1.578e-9
-0.141, 1.560e-9
-0.140, 1.538e-9
-0.139, 1.519e-9
-0.138, 1.499e-9
-0.137, 1.483e-9
-0.136, 1.468e-9
-0.135, 1.445e-9
-0.134, 1.425e-9
-0.133, 1.405e-9
-0.132, 1.390e-9
-0.131, 1.375e-9
-0.130, 1.356e-9
-0.129, 1.334e-9
-0.128, 1.316e-9
-0.127, 1.301e-9
-0.126, 1.289e-9
-0.125, 1.273e-9
-0.124, 1.253e-9
-0.123, 1.237e-9
-0.122, 1.224e-9
-0.121, 1.210e-9
-0.120, 1.196e-9
-0.119, 1.175e-9
-0.118, 1.159e-9
-0.117, 1.146e-9
-0.116, 1.132e-9
-0.115, 1.115e-9
-0.114, 1.095e-9
-0.113, 1.079e-9
-0.112, 1.069e-9
-0.111, 1.054e-9
-0.110, 1.041e-9
-0.109, 1.022e-9
-0.108, 1.004e-9
-0.107, 9.951e-10
-0.106, 9.820e-10
-0.105, 9.657e-10
-0.104, 9.490e-10
-0.103, 9.313e-10
-0.102, 9.181e-10
-0.101, 9.077e-10
-0.100, 8.903e-10
-0.099, 8.753e-10
-0.098, 8.576e-10
-0.097, 8.471e-10
-0.096, 8.356e-10
-0.095, 8.189e-10
-0.094, 8.005e-10
-0.093, 7.859e-10
-0.092, 7.726e-10
-0.091, 7.637e-10
-0.090, 7.455e-10
-0.089, 7.292e-10
-0.088, 7.139e-10
-0.087, 7.021e-10
-0.086, 6.926e-10
-0.085, 6.746e-10
-0.084, 6.554e-10
-0.083, 6.417e-10
-0.082, 6.256e-10
-0.081, 6.121e-10
-0.080, 5.963e-10
-0.079, 5.737e-10
-0.078, 5.551e-10
-0.077, 5.420e-10
-0.076, 5.257e-10
-0.075, 5.112e-10
-0.074, 4.891e-10
-0.073, 4.742e-10
-0.072, 4.625e-10
-0.071, 4.436e-10
-0.070, 4.282e-10
-0.069, 4.069e-10
-0.068, 3.855e-10
-0.067, 3.723e-10
-0.066, 3.542e-10
-0.065, 3.344e-10
-0.064, 3.091e-10
-0.063, 2.892e-10
-0.062, 2.737e-10
-0.061, 2.578e-10
-0.060, 2.346e-10
-0.059, 2.112e-10
-0.058, 1.874e-10
-0.057, 1.683e-10
-0.056, 1.470e-10
-0.055, 1.216e-10
-0.054, 9.502e-11
-0.053, 7.002e-11
-0.052, 4.718e-11
-0.051, 2.335e-11
-0.050, -3.623e-12
-0.049, -3.375e-11
-0.048, -5.964e-11
-0.047, -8.661e-11
-0.046, -1.123e-10
-0.045, -1.440e-10
-0.044, -1.809e-10
-0.043, -2.096e-10
-0.042, -2.419e-10
-0.041, -2.712e-10
-0.040, -3.089e-10
-0.039, -3.495e-10
-0.038, -3.846e-10
-0.037, -4.214e-10
-0.036, -4.605e-10
-0.035, -4.979e-10
-0.034, -5.457e-10
-0.033, -5.884e-10
-0.032, -6.291e-10
-0.031, -6.750e-10
-0.030, -7.204e-10
-0.029, -7.735e-10
-0.028, -8.273e-10
-0.027, -8.729e-10
-0.026, -9.296e-10
-0.025, -9.849e-10
-0.024, -1.043e-9
-0.023, -1.106e-9
-0.022, -1.158e-9
-0.021, -1.221e-9
-0.020, -1.288e-9
-0.019, -1.357e-9
-0.018, -1.428e-9
-0.017, -1.499e-9
-0.016, -1.570e-9
-0.015, -1.650e-9
-0.014, -1.731e-9
-0.013, -1.819e-9
-0.012, -1.903e-9
-0.011, -1.986e-9
-0.010, -2.081e-9
-0.009, -2.179e-9
-0.008, -2.275e-9
-0.007, -2.373e-9
-0.006, -2.472e-9
-0.005, -2.583e-9
-0.004, -2.701e-9
-0.003, -2.813e-9
-0.002, -2.932e-9
-0.001, -3.052e-9
-0.000, -3.213e-9
0.001, -3.352e-9
0.002, -3.468e-9
0.003, -3.599e-9
0.004, -3.747e-9
0.005, -3.891e-9
0.006, -4.055e-9
0.007, -4.211e-9
0.008, -4.374e-9
0.009, -4.551e-9
0.010, -4.722e-9
0.011, -4.904e-9
0.012, -5.099e-9
0.013, -5.288e-9
0.014, -5.489e-9
0.015, -5.692e-9
0.016, -5.909e-9
0.017, -6.133e-9
0.018, -6.349e-9
0.019, -6.584e-9
0.020, -6.825e-9
0.021, -7.071e-9
0.022, -7.337e-9
0.023, -7.589e-9
0.024, -7.858e-9
0.025, -8.144e-9
0.026, -8.426e-9
0.027, -8.723e-9
0.028, -9.019e-9
0.029, -9.317e-9
0.030, -9.633e-9
0.031, -9.957e-9
0.032, -1.029e-8
0.033, -1.063e-8
0.034, -1.096e-8
0.035, -1.132e-8
0.036, -1.169e-8
0.037, -1.205e-8
0.038, -1.244e-8
0.039, -1.282e-8
0.040, -1.321e-8
0.041, -1.362e-8
0.042, -1.402e-8
0.043, -1.444e-8
0.044, -1.486e-8
0.045, -1.529e-8
0.046, -1.574e-8
0.047, -1.619e-8
0.048, -1.663e-8
0.049, -1.709e-8
0.050, -1.754e-8
0.051, -1.804e-8
0.052, -1.851e-8
0.053, -1.898e-8
0.054, -1.946e-8
0.055, -1.994e-8
0.056, -2.044e-8
0.057, -2.094e-8
0.058, -2.142e-8
0.059, -2.193e-8
0.060, -2.243e-8
0.061, -2.293e-8
0.062, -2.344e-8
0.063, -2.394e-8
0.064, -2.445e-8
0.065, -2.496e-8
0.066, -2.545e-8
0.067, -2.595e-8
0.068, -2.645e-8
0.069, -2.692e-8
0.070, -2.743e-8
0.071, -2.791e-8
0.072, -2.839e-8
0.073, -2.887e-8
0.074, -2.931e-8
0.075, -2.979e-8
0.076, -3.025e-8
0.077, -3.070e-8
0.078, -3.114e-8
0.079, -3.156e-8
0.080, -3.198e-8
0.081, -3.240e-8
0.082, -3.278e-8
0.083, -3.316e-8
0.084, -3.354e-8
0.085, -3.389e-8
0.086, -3.426e-8
0.087, -3.459e-8
0.088, -3.491e-8
0.089, -3.523e-8
0.090, -3.553e-8
0.091, -3.582e-8
0.092, -3.610e-8
0.093, -3.634e-8
0.094, -3.660e-8
0.095, -3.683e-8
0.096, -3.705e-8
0.097, -3.726e-8
0.098, -3.745e-8
0.099, -3.763e-8
0.100, -3.779e-8
0.101, -3.795e-8
0.102, -3.810e-8
0.103, -3.824e-8
0.104, -3.835e-8
0.105, -3.846e-8
0.106, -3.854e-8
0.107, -3.863e-8
0.108, -3.870e-8
0.109, -3.874e-8
0.110, -3.881e-8
0.111, -3.884e-8
0.112, -3.887e-8
0.113, -3.889e-8
0.114, -3.888e-8
0.115, -3.889e-8
0.116, -3.888e-8
0.117, -3.886e-8
0.118, -3.883e-8
0.119, -3.879e-8
0.120, -3.874e-8
0.121, -3.869e-8
0.122, -3.863e-8
0.123, -3.858e-8
0.124, -3.851e-8
0.125, -3.843e-8
0.126, -3.836e-8
0.127, -3.828e-8
0.128, -3.819e-8
0.129, -3.809e-8
0.130, -3.799e-8
0.131, -3.789e-8
0.132, -3.778e-8
0.133, -3.767e-8
0.134, -3.756e-8
0.135, -3.744e-8
0.136, -3.734e-8
0.137, -3.722e-8
0.138, -3.709e-8
0.139, -3.697e-8
0.140, -3.685e-8
0.141, -3.673e-8
0.142, -3.660e-8
0.143, -3.647e-8
0.144, -3.634e-8
0.145, -3.621e-8
0.146, -3.608e-8
0.147, -3.596e-8
0.148, -3.582e-8
0.149, -3.569e-8
0.150, -3.556e-8
0.151, -3.544e-8
0.152, -3.530e-8
0.153, -3.518e-8
0.154, -3.505e-8
0.155, -3.492e-8
0.156, -3.480e-8
0.157, -3.467e-8
0.158, -3.454e-8
0.159, -3.441e-8
0.160, -3.429e-8
0.161, -3.417e-8
0.162, -3.404e-8
0.163, -3.392e-8
0.164, -3.380e-8
0.165, -3.368e-8
0.166, -3.357e-8
0.167, -3.345e-8
0.168, -3.333e-8
0.169, -3.322e-8
0.170, -3.310e-8
0.171, -3.299e-8
0.172, -3.288e-8
0.173, -3.277e-8
0.174, -3.266e-8
0.175, -3.255e-8
0.176, -3.246e-8
0.177, -3.236e-8
0.178, -3.225e-8
0.179, -3.214e-8
0.180, -3.205e-8
0.181, -3.195e-8
0.182, -3.186e-8
0.183, -3.175e-8
0.184, -3.165e-8
0.185, -3.156e-8
0.186, -3.147e-8
0.187, -3.138e-8
0.188, -3.129e-8
0.189, -3.120e-8
0.190, -3.112e-8
0.191, -3.103e-8
0.192, -3.095e-8
0.193, -3.086e-8
0.194, -3.077e-8
0.195, -3.069e-8
0.196, -3.062e-8
0.197, -3.054e-8
0.198, -3.046e-8
0.199, -3.038e-8
0.200, -3.031e-8
0.201, -3.024e-8
0.202, -3.017e-8
0.203, -3.010e-8
0.204, -3.002e-8
0.205, -2.995e-8
0.206, -2.989e-8
0.207, -2.983e-8
0.208, -2.976e-8
0.209, -2.969e-8
0.210, -2.963e-8
0.211, -2.957e-8
0.212, -2.951e-8
0.213, -2.945e-8
0.214, -2.938e-8
0.215, -2.932e-8
0.216, -2.927e-8
0.217, -2.921e-8
0.218, -2.915e-8
0.219, -2.910e-8
0.220, -2.905e-8
0.221, -2.899e-8
0.222, -2.894e-8
0.223, -2.889e-8
0.224, -2.884e-8
0.225, -2.880e-8
0.226, -2.875e-8
0.227, -2.871e-8
0.228, -2.865e-8
0.229, -2.860e-8
0.230, -2.856e-8
0.231, -2.852e-8
0.232, -2.848e-8
0.233, -2.843e-8
0.234, -2.839e-8
0.235, -2.835e-8
0.236, -2.831e-8
0.237, -2.827e-8
0.238, -2.823e-8
0.239, -2.819e-8
0.240, -2.815e-8
0.241, -2.812e-8
0.242, -2.808e-8
0.243, -2.804e-8
0.244, -2.801e-8
0.245, -2.797e-8
0.246, -2.794e-8
0.247, -2.790e-8
0.248, -2.787e-8
0.249, -2.784e-8
0.250, -2.780e-8
0.251, -2.778e-8
0.252, -2.775e-8
0.253, -2.772e-8
0.254, -2.768e-8
0.255, -2.766e-8
0.256, -2.764e-8
0.257, -2.761e-8
0.258, -2.757e-8
0.259, -2.754e-8
0.260, -2.752e-8
0.261, -2.750e-8
0.262, -2.748e-8
0.263, -2.745e-8
0.264, -2.743e-8
0.265, -2.740e-8
0.266, -2.738e-8
0.267, -2.736e-8
0.268, -2.734e-8
0.269, -2.731e-8
0.270, -2.730e-8
0.271, -2.728e-8
0.272, -2.726e-8
0.273, -2.723e-8
0.274, -2.721e-8
0.275, -2.719e-8
0.276, -2.718e-8
0.277, -2.716e-8
0.278, -2.714e-8
0.279, -2.712e-8
0.280, -2.710e-8
0.281, -2.709e-8
0.282, -2.708e-8
0.283, -2.706e-8
0.284, -2.705e-8
0.285, -2.703e-8
0.286, -2.702e-8
0.287, -2.700e-8
0.288, -2.698e-8
0.289, -2.697e-8
0.290, -2.696e-8
0.291, -2.695e-8
0.292, -2.694e-8
0.293, -2.692e-8
0.294, -2.691e-8
0.295, -2.690e-8
0.296, -2.689e-8
0.297, -2.689e-8
0.298, -2.687e-8
0.299, -2.686e-8
0.300, -2.657e-8
0.299, -2.576e-8
0.298, -2.551e-8
0.297, -2.537e-8
0.296, -2.525e-8
0.295, -2.515e-8
0.294, -2.507e-8
0.293, -2.498e-8
0.292, -2.490e-8
0.291, -2.483e-8
0.290, -2.476e-8
0.289, -2.469e-8
0.288, -2.463e-8
0.287, -2.455e-8
0.286, -2.449e-8
0.285, -2.443e-8
0.284, -2.438e-8
0.283, -2.432e-8
0.282, -2.426e-8
0.281, -2.421e-8
0.280, -2.416e-8
0.279, -2.411e-8
0.278, -2.407e-8
0.277, -2.402e-8
0.276, -2.397e-8
0.275, -2.392e-8
0.274, -2.388e-8
0.273, -2.384e-8
0.272, -2.379e-8
0.271, -2.375e-8
0.270, -2.371e-8
0.269, -2.368e-8
0.268, -2.364e-8
0.267, -2.359e-8
0.266, -2.355e-8
0.265, -2.351e-8
0.264, -2.348e-8
0.263, -2.343e-8
0.262, -2.339e-8
0.261, -2.335e-8
0.260, -2.332e-8
0.259, -2.329e-8
0.258, -2.326e-8
0.257, -2.322e-8
0.256, -2.319e-8
0.255, -2.315e-8
0.254, -2.312e-8
0.253, -2.309e-8
0.252, -2.305e-8
0.251, -2.301e-8
0.250, -2.297e-8
0.249, -2.294e-8
0.248, -2.291e-8
0.247, -2.287e-8
0.246, -2.284e-8
0.245, -2.280e-8
0.244, -2.278e-8
0.243, -2.275e-8
0.242, -2.271e-8
0.241, -2.267e-8
0.240, -2.264e-8
0.239, -2.262e-8
0.238, -2.259e-8
0.237, -2.255e-8
0.236, -2.252e-8
0.235, -2.249e-8
0.234, -2.246e-8
0.233, -2.243e-8
0.232, -2.240e-8
0.231, -2.236e-8
0.230, -2.233e-8
0.229, -2.230e-8
0.228, -2.226e-8
0.227, -2.223e-8
0.226, -2.219e-8
0.225, -2.216e-8
0.224, -2.213e-8
0.223, -2.210e-8
0.222, -2.206e-8
0.221, -2.203e-8
0.220, -2.199e-8
0.219, -2.196e-8
0.218, -2.192e-8
0.217, -2.188e-8
0.216, -2.184e-8
0.215, -2.181e-8
0.214, -2.178e-8
0.213, -2.174e-8
0.212, -2.170e-8
0.211, -2.166e-8
0.210, -2.162e-8
0.209, -2.159e-8
0.208, -2.155e-8
0.207, -2.151e-8
0.206, -2.147e-8
0.205, -2.143e-8
0.204, -2.139e-8
0.203, -2.134e-8
0.202, -2.130e-8
0.201, -2.125e-8
0.200, -2.121e-8
0.199, -2.116e-8
0.198, -2.111e-8
0.197, -2.106e-8
0.196, -2.102e-8
0.195, -2.097e-8
0.194, -2.092e-8
0.193, -2.087e-8
0.192, -2.081e-8
0.191, -2.075e-8
0.190, -2.070e-8
0.189, -2.065e-8
0.188, -2.059e-8
0.187, -2.053e-8
0.186, -2.046e-8
0.185, -2.040e-8
0.184, -2.034e-8
0.183, -2.027e-8
0.182, -2.020e-8
0.181, -2.012e-8
0.180, -2.005e-8
0.179, -1.998e-8
0.178, -1.990e-8
0.177, -1.982e-8
0.176, -1.974e-8
0.175, -1.965e-8
0.174, -1.957e-8
0.173, -1.948e-8
0.172, -1.939e-8
0.171, -1.929e-8
0.170, -1.920e-8
0.169, -1.912e-8
0.168, -1.901e-8
0.167, -1.890e-8
0.166, -1.879e-8
0.165, -1.868e-8
0.164, -1.857e-8
0.163, -1.846e-8
0.162, -1.833e-8
0.161, -1.821e-8
0.160, -1.808e-8
0.159, -1.795e-8
0.158, -1.782e-8
0.157, -1.766e-8
0.156, -1.752e-8
0.155, -1.737e-8
0.154, -1.721e-8
0.153, -1.705e-8
0.152, -1.688e-8
0.151, -1.672e-8
0.150, -1.655e-8
0.149, -1.637e-8
0.148, -1.618e-8
0.147, -1.599e-8
0.146, -1.579e-8
0.145, -1.559e-8
0.144, -1.538e-8
0.143, -1.516e-8
0.142, -1.494e-8
0.141, -1.471e-8
0.140, -1.447e-8
0.139, -1.424e-8
0.138, -1.399e-8
0.137, -1.374e-8
0.136, -1.347e-8
0.135, -1.320e-8
0.134, -1.294e-8
0.133, -1.265e-8
0.132, -1.236e-8
0.131, -1.206e-8
0.130, -1.175e-8
0.129, -1.145e-8
0.128, -1.112e-8
0.127, -1.079e-8
0.126, -1.046e-8
0.125, -1.011e-8
0.124, -9.766e-9
0.123, -9.407e-9
0.122, -9.035e-9
0.121, -8.671e-9
0.120, -8.285e-9
0.119, -7.895e-9
0.118, -7.503e-9
0.117, -7.080e-9
0.116, -6.668e-9
0.115, -6.246e-9
0.114, -5.816e-9
0.113, -5.398e-9
0.112, -4.950e-9
0.111, -4.506e-9
0.110, -4.054e-9
0.109, -3.592e-9
0.108, -3.140e-9
0.107, -2.665e-9
0.106, -2.183e-9
0.105, -1.714e-9
0.104, -1.226e-9
0.103, -7.398e-10
0.102, -2.316e-10
0.101, 2.659e-10
0.100, 7.623e-10
0.099, 1.257e-9
0.098, 1.761e-9
0.097, 2.261e-9
0.096, 2.762e-9
0.095, 3.269e-9
0.094, 3.757e-9
0.093, 4.269e-9
0.092, 4.759e-9
0.091, 5.260e-9
0.090, 5.765e-9
0.089, 6.251e-9
0.088, 6.742e-9
0.087, 7.231e-9
0.086, 7.699e-9
0.085, 8.179e-9
0.084, 8.643e-9
0.083, 9.094e-9
0.082, 9.566e-9
0.081, 9.997e-9
0.080, 1.043e-8
0.079, 1.085e-8
0.078, 1.127e-8
0.077, 1.169e-8
0.076, 1.209e-8
0.075, 1.246e-8
0.074, 1.283e-8
0.073, 1.318e-8
0.072, 1.354e-8
0.071, 1.388e-8
0.070, 1.420e-8
0.069, 1.452e-8
0.068, 1.481e-8
0.067, 1.510e-8
0.066, 1.539e-8
0.065, 1.564e-8
0.064, 1.590e-8
0.063, 1.613e-8
0.062, 1.635e-8
0.061, 1.659e-8
0.060, 1.677e-8
0.059, 1.694e-8
0.058, 1.712e-8
0.057, 1.726e-8
0.056, 1.743e-8
0.055, 1.757e-8
0.054, 1.767e-8
0.053, 1.779e-8
0.052, 1.788e-8
0.051, 1.798e-8
0.050, 1.805e-8
0.049, 1.811e-8
0.048, 1.816e-8
0.047, 1.820e-8
0.046, 1.823e-8
0.045, 1.826e-8
0.044, 1.826e-8
0.043, 1.827e-8
0.042, 1.828e-8
0.041, 1.825e-8
0.040, 1.824e-8
0.039, 1.821e-8
0.038, 1.817e-8
0.037, 1.814e-8
0.036, 1.809e-8
0.035, 1.803e-8
0.034, 1.797e-8
0.033, 1.790e-8
0.032, 1.783e-8
0.031, 1.776e-8
0.030, 1.767e-8
0.029, 1.759e-8
0.028, 1.750e-8
0.027, 1.741e-8
0.026, 1.732e-8
0.025, 1.722e-8
0.024, 1.711e-8
0.023, 1.701e-8
0.022, 1.690e-8
0.021, 1.679e-8
0.020, 1.668e-8
0.019, 1.656e-8
0.018, 1.645e-8
0.017, 1.633e-8
0.016, 1.621e-8
0.015, 1.609e-8
0.014, 1.596e-8
0.013, 1.585e-8
0.012, 1.573e-8
0.011, 1.561e-8
0.010, 1.548e-8
0.009, 1.536e-8
0.008, 1.524e-8
0.007, 1.512e-8
0.006, 1.499e-8
0.005, 1.487e-8
0.004, 1.475e-8
0.003, 1.463e-8
0.002, 1.451e-8
0.001, 1.439e-8
0.000, 1.430e-8
-0.001, 1.418e-8
-0.002, 1.405e-8
-0.003, 1.394e-8
-0.004, 1.382e-8
-0.005, 1.370e-8
-0.006, 1.358e-8
-0.007, 1.347e-8
-0.008, 1.336e-8
-0.009, 1.326e-8
-0.010, 1.314e-8
-0.011, 1.303e-8
-0.012, 1.292e-8
-0.013, 1.282e-8
-0.014, 1.272e-8
-0.015, 1.261e-8
-0.016, 1.250e-8
-0.017, 1.240e-8
-0.018, 1.231e-8
-0.019, 1.222e-8
-0.020, 1.212e-8
-0.021, 1.202e-8
-0.022, 1.192e-8
-0.023, 1.183e-8
-0.024, 1.174e-8
-0.025, 1.165e-8
-0.026, 1.156e-8
-0.027, 1.147e-8
-0.028, 1.139e-8
-0.029, 1.130e-8
-0.030, 1.121e-8
-0.031, 1.113e-8
-0.032, 1.105e-8
-0.033, 1.097e-8
-0.034, 1.089e-8
-0.035, 1.082e-8
-0.036, 1.073e-8
-0.037, 1.066e-8
-0.038, 1.059e-8
-0.039, 1.052e-8
-0.040, 1.044e-8
-0.041, 1.037e-8
-0.042, 1.030e-8
-0.043, 1.023e-8
-0.044, 1.016e-8
-0.045, 1.009e-8
-0.046, 1.003e-8
-0.047, 9.961e-9
-0.048, 9.901e-9
-0.049, 9.842e-9
-0.050, 9.777e-9
-0.051, 9.716e-9
-0.052, 9.658e-9
-0.053, 9.601e-9
-0.054, 9.549e-9
-0.055, 9.489e-9
-0.056, 9.431e-9
-0.057, 9.377e-9
-0.058, 9.326e-9
-0.059, 9.276e-9
-0.060, 9.221e-9
-0.061, 9.166e-9
-0.062, 9.119e-9
-0.063, 9.071e-9
-0.064, 9.026e-9
-0.065, 8.979e-9
-0.066, 8.926e-9
-0.067, 8.884e-9
-0.068, 8.842e-9
-0.069, 8.797e-9
-0.070, 8.753e-9
-0.071, 8.706e-9
-0.072, 8.665e-9
-0.073, 8.627e-9
-0.074, 8.585e-9
-0.075, 8.544e-9
-0.076, 8.500e-9
-0.077, 8.461e-9
-0.078, 8.427e-9
-0.079, 8.387e-9
-0.080, 8.350e-9
-0.081, 8.313e-9
-0.082, 8.278e-9
-0.083, 8.249e-9
-0.084, 8.218e-9
-0.085, 8.184e-9
-0.086, 8.149e-9
-0.087, 8.117e-9
-0.088, 8.090e-9
-0.089, 8.063e-9
-0.090, 8.030e-9
-0.091, 7.997e-9
-0.092, 7.969e-9
-0.093, 7.943e-9
-0.094, 7.919e-9
-0.095, 7.889e-9
-0.096, 7.859e-9
-0.097, 7.835e-9
-0.098, 7.811e-9
-0.099, 7.790e-9
-0.100, 7.764e-9
-0.101, 7.736e-9
-0.102, 7.718e-9
-0.103, 7.702e-9
-0.104, 7.678e-9
-0.105, 7.656e-9
-0.106, 7.631e-9
-0.107, 7.614e-9
-0.108, 7.595e-9
-0.109, 7.575e-9
-0.110, 7.555e-9
-0.111, 7.531e-9
-0.112, 7.515e-9
-0.113, 7.501e-9
-0.114, 7.484e-9
-0.115, 7.468e-9
-0.116, 7.448e-9
-0.117, 7.431e-9
-0.118, 7.420e-9
-0.119, 7.407e-9
-0.120, 7.391e-9
-0.121, 7.375e-9
-0.122, 7.360e-9
-0.123, 7.354e-9
-0.124, 7.343e-9
-0.125, 7.327e-9
-0.126, 7.314e-9
-0.127, 7.303e-9
-0.128, 7.297e-9
-0.129, 7.290e-9
-0.130, 7.273e-9
-0.131, 7.263e-9
-0.132, 7.255e-9
-0.133, 7.247e-9
-0.134, 7.243e-9
-0.135, 7.232e-9
-0.136, 7.221e-9
-0.137, 7.218e-9
-0.138, 7.212e-9
-0.139, 7.209e-9
-0.140, 7.201e-9
-0.141, 7.193e-9
-0.142, 7.192e-9
-0.143, 7.188e-9
-0.144, 7.186e-9
-0.145, 7.181e-9
-0.146, 7.172e-9
-0.147, 7.174e-9
-0.148, 7.173e-9
-0.149, 7.172e-9
-0.150, 7.171e-9
-0.151, 7.165e-9
-0.152, 7.167e-9
-0.153, 7.172e-9
-0.154, 7.177e-9
-0.155, 7.176e-9
-0.156, 7.179e-9
-0.157, 7.176e-9
-0.158, 7.179e-9
-0.159, 7.186e-9
-0.160, 7.188e-9
-0.161, 7.186e-9
-0.162, 7.189e-9
-0.163, 7.200e-9
-0.164, 7.201e-9
-0.165, 7.200e-9
-0.166, 7.206e-9
-0.167, 7.209e-9
-0.168, 7.223e-9
-0.169, 7.237e-9
-0.170, 7.234e-9
-0.171, 7.244e-9
-0.172, 7.255e-9
-0.173, 7.262e-9
-0.174, 7.273e-9
-0.175, 7.277e-9
-0.176, 7.281e-9
-0.177, 7.295e-9
-0.178, 7.305e-9
-0.179, 7.325e-9
-0.180, 7.332e-9
-0.181, 7.336e-9
-0.182, 7.354e-9
-0.183, 7.368e-9
-0.184, 7.385e-9
-0.185, 7.399e-9
-0.186, 7.406e-9
-0.187, 7.424e-9
-0.188, 7.443e-9
-0.189, 7.458e-9
-0.190, 7.475e-9
-0.191, 7.486e-9
-0.192, 7.507e-9
-0.193, 7.530e-9
-0.194, 7.546e-9
-0.195, 7.568e-9
-0.196, 7.586e-9
-0.197, 7.610e-9
-0.198, 7.636e-9
-0.199, 7.653e-9
