Mar. 16, 2023   09:49:57
Cyclic Voltammetry
File: c:/users/oliverrz/desktop/electrolab/data/2023_03_16\fcmeoh_macros_750_um\electrode6_cv_150mvs_750_um.bin
Data Source:  Experiment
Instrument Model:  CHI760E
Header: CV
Note: 

Init E (V) = -0.2
High E (V) = 0.3
Low E (V) = -0.2
Final E (V) = -0.2
Init P/N = P
Scan Rate (V/s) = 0.15
Segment = 3
Sample Interval (V) = 0.001
Quiet Time (sec) = 2
Sensitivity (A/V) = 1e-7

Results:

Channel 1:
Segment 1:
Ep = 0.108V
ip = -6.103e-8A
Ah = -2.487e-8C

Segment 2:
Ep = 0.048V
ip = 5.583e-8A
Ah = 2.295e-8C

Segment 3:

Potential/V, Current/A

-0.200, 2.827e-9
-0.199, 2.394e-9
-0.198, 2.518e-9
-0.197, 2.273e-9
-0.196, 2.390e-9
-0.195, 2.325e-9
-0.194, 2.188e-9
-0.193, 2.363e-9
-0.192, 2.121e-9
-0.191, 2.234e-9
-0.190, 2.197e-9
-0.189, 2.066e-9
-0.188, 2.233e-9
-0.187, 2.007e-9
-0.186, 2.134e-9
-0.185, 2.067e-9
-0.184, 1.966e-9
-0.183, 2.132e-9
-0.182, 1.890e-9
-0.181, 2.038e-9
-0.180, 1.976e-9
-0.179, 1.843e-9
-0.178, 2.042e-9
-0.177, 1.797e-9
-0.176, 1.930e-9
-0.175, 1.894e-9
-0.174, 1.755e-9
-0.173, 1.944e-9
-0.172, 1.723e-9
-0.171, 1.847e-9
-0.170, 1.798e-9
-0.169, 1.682e-9
-0.168, 1.865e-9
-0.167, 1.631e-9
-0.166, 1.762e-9
-0.165, 1.728e-9
-0.164, 1.589e-9
-0.163, 1.785e-9
-0.162, 1.560e-9
-0.161, 1.673e-9
-0.160, 1.656e-9
-0.159, 1.527e-9
-0.158, 1.696e-9
-0.157, 1.493e-9
-0.156, 1.614e-9
-0.155, 1.571e-9
-0.154, 1.459e-9
-0.153, 1.631e-9
-0.152, 1.409e-9
-0.151, 1.553e-9
-0.150, 1.502e-9
-0.149, 1.382e-9
-0.148, 1.573e-9
-0.147, 1.341e-9
-0.146, 1.476e-9
-0.145, 1.438e-9
-0.144, 1.326e-9
-0.143, 1.502e-9
-0.142, 1.284e-9
-0.141, 1.418e-9
-0.140, 1.371e-9
-0.139, 1.259e-9
-0.138, 1.450e-9
-0.137, 1.213e-9
-0.136, 1.355e-9
-0.135, 1.323e-9
-0.134, 1.188e-9
-0.133, 1.389e-9
-0.132, 1.164e-9
-0.131, 1.291e-9
-0.130, 1.260e-9
-0.129, 1.135e-9
-0.128, 1.320e-9
-0.127, 1.103e-9
-0.126, 1.231e-9
-0.125, 1.200e-9
-0.124, 1.078e-9
-0.123, 1.264e-9
-0.122, 1.044e-9
-0.121, 1.176e-9
-0.120, 1.147e-9
-0.119, 1.021e-9
-0.118, 1.203e-9
-0.117, 9.936e-10
-0.116, 1.115e-9
-0.115, 1.078e-9
-0.114, 9.646e-10
-0.113, 1.145e-9
-0.112, 9.289e-10
-0.111, 1.065e-9
-0.110, 1.013e-9
-0.109, 9.087e-10
-0.108, 1.090e-9
-0.107, 8.613e-10
-0.106, 1.005e-9
-0.105, 9.561e-10
-0.104, 8.450e-10
-0.103, 1.023e-9
-0.102, 7.952e-10
-0.101, 9.339e-10
-0.100, 9.007e-10
-0.099, 7.768e-10
-0.098, 9.665e-10
-0.097, 7.275e-10
-0.096, 8.798e-10
-0.095, 8.274e-10
-0.094, 7.030e-10
-0.093, 9.011e-10
-0.092, 6.642e-10
-0.091, 7.999e-10
-0.090, 7.626e-10
-0.089, 6.283e-10
-0.088, 8.208e-10
-0.087, 5.972e-10
-0.086, 7.192e-10
-0.085, 6.834e-10
-0.084, 5.586e-10
-0.083, 7.356e-10
-0.082, 5.115e-10
-0.081, 6.404e-10
-0.080, 5.982e-10
-0.079, 4.692e-10
-0.078, 6.511e-10
-0.077, 4.195e-10
-0.076, 5.461e-10
-0.075, 4.986e-10
-0.074, 3.747e-10
-0.073, 5.476e-10
-0.072, 3.247e-10
-0.071, 4.467e-10
-0.070, 3.872e-10
-0.069, 2.721e-10
-0.068, 4.370e-10
-0.067, 2.043e-10
-0.066, 3.352e-10
-0.065, 2.710e-10
-0.064, 1.407e-10
-0.063, 3.228e-10
-0.062, 7.008e-11
-0.061, 2.005e-10
-0.060, 1.433e-10
-0.059, 5.302e-13
-0.058, 1.758e-10
-0.057, -7.464e-11
-0.056, 4.961e-11
-0.055, -1.588e-11
-0.054, -1.613e-10
-0.053, 7.626e-12
-0.052, -2.517e-10
-0.051, -1.349e-10
-0.050, -2.012e-10
-0.049, -3.532e-10
-0.048, -1.864e-10
-0.047, -4.481e-10
-0.046, -3.534e-10
-0.045, -4.132e-10
-0.044, -5.738e-10
-0.043, -4.277e-10
-0.042, -6.789e-10
-0.041, -5.970e-10
-0.040, -6.743e-10
-0.039, -8.349e-10
-0.038, -7.058e-10
-0.037, -9.681e-10
-0.036, -8.801e-10
-0.035, -9.848e-10
-0.034, -1.143e-9
-0.033, -1.021e-9
-0.032, -1.295e-9
-0.031, -1.227e-9
-0.030, -1.339e-9
-0.029, -1.512e-9
-0.028, -1.405e-9
-0.027, -1.695e-9
-0.026, -1.639e-9
-0.025, -1.776e-9
-0.024, -1.954e-9
-0.023, -1.861e-9
-0.022, -2.181e-9
-0.021, -2.126e-9
-0.020, -2.272e-9
-0.019, -2.480e-9
-0.018, -2.404e-9
-0.017, -2.742e-9
-0.016, -2.706e-9
-0.015, -2.871e-9
-0.014, -3.117e-9
-0.013, -3.060e-9
-0.012, -3.407e-9
-0.011, -3.415e-9
-0.010, -3.588e-9
-0.009, -3.851e-9
-0.008, -3.816e-9
-0.007, -4.200e-9
-0.006, -4.230e-9
-0.005, -4.437e-9
-0.004, -4.744e-9
-0.003, -4.734e-9
-0.002, -5.139e-9
-0.001, -5.214e-9
-0.000, -5.536e-9
0.001, -5.817e-9
0.002, -5.860e-9
0.003, -6.275e-9
0.004, -6.400e-9
0.005, -6.676e-9
0.006, -7.035e-9
0.007, -7.132e-9
0.008, -7.608e-9
0.009, -7.749e-9
0.010, -8.114e-9
0.011, -8.502e-9
0.012, -8.643e-9
0.013, -9.170e-9
0.014, -9.373e-9
0.015, -9.759e-9
0.016, -1.021e-8
0.017, -1.040e-8
0.018, -1.099e-8
0.019, -1.123e-8
0.020, -1.169e-8
0.021, -1.218e-8
0.022, -1.244e-8
0.023, -1.310e-8
0.024, -1.337e-8
0.025, -1.392e-8
0.026, -1.449e-8
0.027, -1.480e-8
0.028, -1.551e-8
0.029, -1.589e-8
0.030, -1.645e-8
0.031, -1.711e-8
0.032, -1.746e-8
0.033, -1.823e-8
0.034, -1.869e-8
0.035, -1.931e-8
0.036, -2.003e-8
0.037, -2.047e-8
0.038, -2.130e-8
0.039, -2.183e-8
0.040, -2.249e-8
0.041, -2.328e-8
0.042, -2.381e-8
0.043, -2.467e-8
0.044, -2.529e-8
0.045, -2.602e-8
0.046, -2.683e-8
0.047, -2.745e-8
0.048, -2.833e-8
0.049, -2.900e-8
0.050, -2.983e-8
0.051, -3.066e-8
0.052, -3.134e-8
0.053, -3.229e-8
0.054, -3.295e-8
0.055, -3.384e-8
0.056, -3.468e-8
0.057, -3.536e-8
0.058, -3.634e-8
0.059, -3.704e-8
0.060, -3.792e-8
0.061, -3.880e-8
0.062, -3.947e-8
0.063, -4.050e-8
0.064, -4.118e-8
0.065, -4.205e-8
0.066, -4.294e-8
0.067, -4.358e-8
0.068, -4.456e-8
0.069, -4.520e-8
0.070, -4.603e-8
0.071, -4.695e-8
0.072, -4.750e-8
0.073, -4.844e-8
0.074, -4.906e-8
0.075, -4.980e-8
0.076, -5.063e-8
0.077, -5.116e-8
0.078, -5.199e-8
0.079, -5.259e-8
0.080, -5.320e-8
0.081, -5.393e-8
0.082, -5.441e-8
0.083, -5.512e-8
0.084, -5.560e-8
0.085, -5.616e-8
0.086, -5.675e-8
0.087, -5.716e-8
0.088, -5.773e-8
0.089, -5.812e-8
0.090, -5.860e-8
0.091, -5.904e-8
0.092, -5.931e-8
0.093, -5.981e-8
0.094, -6.002e-8
0.095, -6.043e-8
0.096, -6.071e-8
0.097, -6.086e-8
0.098, -6.130e-8
0.099, -6.136e-8
0.100, -6.163e-8
0.101, -6.186e-8
0.102, -6.188e-8
0.103, -6.221e-8
0.104, -6.215e-8
0.105, -6.230e-8
0.106, -6.245e-8
0.107, -6.230e-8
0.108, -6.256e-8
0.109, -6.240e-8
0.110, -6.244e-8
0.111, -6.252e-8
0.112, -6.226e-8
0.113, -6.240e-8
0.114, -6.220e-8
0.115, -6.216e-8
0.116, -6.215e-8
0.117, -6.183e-8
0.118, -6.187e-8
0.119, -6.163e-8
0.120, -6.147e-8
0.121, -6.142e-8
0.122, -6.108e-8
0.123, -6.104e-8
0.124, -6.075e-8
0.125, -6.054e-8
0.126, -6.041e-8
0.127, -6.006e-8
0.128, -5.999e-8
0.129, -5.962e-8
0.130, -5.945e-8
0.131, -5.925e-8
0.132, -5.884e-8
0.133, -5.877e-8
0.134, -5.837e-8
0.135, -5.816e-8
0.136, -5.797e-8
0.137, -5.752e-8
0.138, -5.745e-8
0.139, -5.702e-8
0.140, -5.679e-8
0.141, -5.660e-8
0.142, -5.615e-8
0.143, -5.607e-8
0.144, -5.563e-8
0.145, -5.540e-8
0.146, -5.521e-8
0.147, -5.474e-8
0.148, -5.466e-8
0.149, -5.424e-8
0.150, -5.398e-8
0.151, -5.383e-8
0.152, -5.333e-8
0.153, -5.327e-8
0.154, -5.288e-8
0.155, -5.262e-8
0.156, -5.246e-8
0.157, -5.200e-8
0.158, -5.193e-8
0.159, -5.154e-8
0.160, -5.129e-8
0.161, -5.113e-8
0.162, -5.070e-8
0.163, -5.064e-8
0.164, -5.025e-8
0.165, -5.003e-8
0.166, -4.990e-8
0.167, -4.946e-8
0.168, -4.941e-8
0.169, -4.904e-8
0.170, -4.883e-8
0.171, -4.869e-8
0.172, -4.829e-8
0.173, -4.826e-8
0.174, -4.788e-8
0.175, -4.772e-8
0.176, -4.758e-8
0.177, -4.717e-8
0.178, -4.718e-8
0.179, -4.681e-8
0.180, -4.664e-8
0.181, -4.654e-8
0.182, -4.613e-8
0.183, -4.615e-8
0.184, -4.580e-8
0.185, -4.564e-8
0.186, -4.556e-8
0.187, -4.517e-8
0.188, -4.520e-8
0.189, -4.487e-8
0.190, -4.472e-8
0.191, -4.466e-8
0.192, -4.428e-8
0.193, -4.432e-8
0.194, -4.400e-8
0.195, -4.386e-8
0.196, -4.380e-8
0.197, -4.344e-8
0.198, -4.349e-8
0.199, -4.320e-8
0.200, -4.305e-8
0.201, -4.301e-8
0.202, -4.268e-8
0.203, -4.272e-8
0.204, -4.244e-8
0.205, -4.233e-8
0.206, -4.228e-8
0.207, -4.196e-8
0.208, -4.202e-8
0.209, -4.172e-8
0.210, -4.164e-8
0.211, -4.160e-8
0.212, -4.127e-8
0.213, -4.137e-8
0.214, -4.109e-8
0.215, -4.100e-8
0.216, -4.097e-8
0.217, -4.067e-8
0.218, -4.075e-8
0.219, -4.048e-8
0.220, -4.040e-8
0.221, -4.039e-8
0.222, -4.007e-8
0.223, -4.019e-8
0.224, -3.992e-8
0.225, -3.984e-8
0.226, -3.986e-8
0.227, -3.954e-8
0.228, -3.965e-8
0.229, -3.941e-8
0.230, -3.933e-8
0.231, -3.935e-8
0.232, -3.906e-8
0.233, -3.916e-8
0.234, -3.893e-8
0.235, -3.886e-8
0.236, -3.887e-8
0.237, -3.858e-8
0.238, -3.871e-8
0.239, -3.847e-8
0.240, -3.841e-8
0.241, -3.843e-8
0.242, -3.815e-8
0.243, -3.827e-8
0.244, -3.805e-8
0.245, -3.799e-8
0.246, -3.801e-8
0.247, -3.776e-8
0.248, -3.786e-8
0.249, -3.765e-8
0.250, -3.762e-8
0.251, -3.763e-8
0.252, -3.737e-8
0.253, -3.752e-8
0.254, -3.728e-8
0.255, -3.726e-8
0.256, -3.729e-8
0.257, -3.702e-8
0.258, -3.717e-8
0.259, -3.695e-8
0.260, -3.691e-8
0.261, -3.696e-8
0.262, -3.670e-8
0.263, -3.684e-8
0.264, -3.663e-8
0.265, -3.661e-8
0.266, -3.664e-8
0.267, -3.639e-8
0.268, -3.655e-8
0.269, -3.634e-8
0.270, -3.631e-8
0.271, -3.637e-8
0.272, -3.609e-8
0.273, -3.626e-8
0.274, -3.607e-8
0.275, -3.603e-8
0.276, -3.609e-8
0.277, -3.585e-8
0.278, -3.599e-8
0.279, -3.581e-8
0.280, -3.579e-8
0.281, -3.583e-8
0.282, -3.561e-8
0.283, -3.577e-8
0.284, -3.557e-8
0.285, -3.556e-8
0.286, -3.561e-8
0.287, -3.537e-8
0.288, -3.553e-8
0.289, -3.535e-8
0.290, -3.533e-8
0.291, -3.539e-8
0.292, -3.517e-8
0.293, -3.532e-8
0.294, -3.514e-8
0.295, -3.514e-8
0.296, -3.518e-8
0.297, -3.497e-8
0.298, -3.515e-8
0.299, -3.495e-8
0.300, -3.353e-8
0.299, -3.281e-8
0.298, -3.238e-8
0.297, -3.243e-8
0.296, -3.214e-8
0.295, -3.202e-8
0.294, -3.200e-8
0.293, -3.170e-8
0.292, -3.178e-8
0.291, -3.155e-8
0.290, -3.148e-8
0.289, -3.146e-8
0.288, -3.119e-8
0.287, -3.131e-8
0.286, -3.106e-8
0.285, -3.102e-8
0.284, -3.103e-8
0.283, -3.074e-8
0.282, -3.089e-8
0.281, -3.065e-8
0.280, -3.061e-8
0.279, -3.064e-8
0.278, -3.037e-8
0.277, -3.050e-8
0.276, -3.029e-8
0.275, -3.026e-8
0.274, -3.028e-8
0.273, -3.002e-8
0.272, -3.018e-8
0.271, -2.995e-8
0.270, -2.992e-8
0.269, -2.997e-8
0.268, -2.969e-8
0.267, -2.986e-8
0.266, -2.965e-8
0.265, -2.960e-8
0.264, -2.966e-8
0.263, -2.940e-8
0.262, -2.954e-8
0.261, -2.935e-8
0.260, -2.932e-8
0.259, -2.937e-8
0.258, -2.913e-8
0.257, -2.927e-8
0.256, -2.907e-8
0.255, -2.905e-8
0.254, -2.910e-8
0.253, -2.884e-8
0.252, -2.900e-8
0.251, -2.881e-8
0.250, -2.877e-8
0.249, -2.882e-8
0.248, -2.858e-8
0.247, -2.872e-8
0.246, -2.853e-8
0.245, -2.851e-8
0.244, -2.855e-8
0.243, -2.831e-8
0.242, -2.848e-8
0.241, -2.825e-8
0.240, -2.825e-8
0.239, -2.829e-8
0.238, -2.804e-8
0.237, -2.821e-8
0.236, -2.800e-8
0.235, -2.797e-8
0.234, -2.803e-8
0.233, -2.778e-8
0.232, -2.793e-8
0.231, -2.773e-8
0.230, -2.771e-8
0.229, -2.776e-8
0.228, -2.751e-8
0.227, -2.768e-8
0.226, -2.746e-8
0.225, -2.744e-8
0.224, -2.750e-8
0.223, -2.723e-8
0.222, -2.739e-8
0.221, -2.719e-8
0.220, -2.715e-8
0.219, -2.721e-8
0.218, -2.696e-8
0.217, -2.709e-8
0.216, -2.690e-8
0.215, -2.687e-8
0.214, -2.690e-8
0.213, -2.664e-8
0.212, -2.679e-8
0.211, -2.658e-8
0.210, -2.655e-8
0.209, -2.658e-8
0.208, -2.632e-8
0.207, -2.647e-8
0.206, -2.625e-8
0.205, -2.620e-8
0.204, -2.623e-8
0.203, -2.598e-8
0.202, -2.611e-8
0.201, -2.588e-8
0.200, -2.585e-8
0.199, -2.586e-8
0.198, -2.559e-8
0.197, -2.573e-8
0.196, -2.547e-8
0.195, -2.544e-8
0.194, -2.545e-8
0.193, -2.515e-8
0.192, -2.529e-8
0.191, -2.504e-8
0.190, -2.497e-8
0.189, -2.498e-8
0.188, -2.469e-8
0.187, -2.479e-8
0.186, -2.455e-8
0.185, -2.446e-8
0.184, -2.445e-8
0.183, -2.415e-8
0.182, -2.423e-8
0.181, -2.397e-8
0.180, -2.386e-8
0.179, -2.385e-8
0.178, -2.351e-8
0.177, -2.359e-8
0.176, -2.332e-8
0.175, -2.319e-8
0.174, -2.315e-8
0.173, -2.282e-8
0.172, -2.284e-8
0.171, -2.255e-8
0.170, -2.242e-8
0.169, -2.232e-8
0.168, -2.198e-8
0.167, -2.200e-8
0.166, -2.166e-8
0.165, -2.152e-8
0.164, -2.142e-8
0.163, -2.102e-8
0.162, -2.101e-8
0.161, -2.067e-8
0.160, -2.047e-8
0.159, -2.034e-8
0.158, -1.992e-8
0.157, -1.987e-8
0.156, -1.947e-8
0.155, -1.926e-8
0.154, -1.908e-8
0.153, -1.861e-8
0.152, -1.856e-8
0.151, -1.810e-8
0.150, -1.784e-8
0.149, -1.765e-8
0.148, -1.711e-8
0.147, -1.702e-8
0.146, -1.653e-8
0.145, -1.620e-8
0.144, -1.596e-8
0.143, -1.539e-8
0.142, -1.521e-8
0.141, -1.467e-8
0.140, -1.429e-8
0.139, -1.399e-8
0.138, -1.338e-8
0.137, -1.314e-8
0.136, -1.256e-8
0.135, -1.213e-8
0.134, -1.177e-8
0.133, -1.110e-8
0.132, -1.077e-8
0.131, -1.017e-8
0.130, -9.652e-9
0.129, -9.203e-9
0.128, -8.498e-9
0.127, -8.101e-9
0.126, -7.409e-9
0.125, -6.877e-9
0.124, -6.321e-9
0.123, -5.572e-9
0.122, -5.145e-9
0.121, -4.345e-9
0.120, -3.745e-9
0.119, -3.173e-9
0.118, -2.329e-9
0.117, -1.829e-9
0.116, -9.705e-10
0.115, -3.224e-10
0.114, 3.209e-10
0.113, 1.241e-9
0.112, 1.788e-9
0.111, 2.675e-9
0.110, 3.396e-9
0.109, 4.081e-9
0.108, 5.045e-9
0.107, 5.628e-9
0.106, 6.548e-9
0.105, 7.359e-9
0.104, 8.049e-9
0.103, 9.073e-9
0.102, 9.723e-9
0.101, 1.064e-8
0.100, 1.147e-8
0.099, 1.216e-8
0.098, 1.316e-8
0.097, 1.385e-8
0.096, 1.473e-8
0.095, 1.555e-8
0.094, 1.631e-8
0.093, 1.729e-8
0.092, 1.798e-8
0.091, 1.886e-8
0.090, 1.966e-8
0.089, 2.039e-8
0.088, 2.128e-8
0.087, 2.194e-8
0.086, 2.279e-8
0.085, 2.351e-8
0.084, 2.423e-8
0.083, 2.502e-8
0.082, 2.564e-8
0.081, 2.648e-8
0.080, 2.707e-8
0.079, 2.769e-8
0.078, 2.848e-8
0.077, 2.896e-8
0.076, 2.973e-8
0.075, 3.021e-8
0.074, 3.073e-8
0.073, 3.145e-8
0.072, 3.178e-8
0.071, 3.244e-8
0.070, 3.285e-8
0.069, 3.326e-8
0.068, 3.388e-8
0.067, 3.406e-8
0.066, 3.464e-8
0.065, 3.497e-8
0.064, 3.520e-8
0.063, 3.571e-8
0.062, 3.583e-8
0.061, 3.621e-8
0.060, 3.647e-8
0.059, 3.657e-8
0.058, 3.694e-8
0.057, 3.699e-8
0.056, 3.725e-8
0.055, 3.737e-8
0.054, 3.740e-8
0.053, 3.767e-8
0.052, 3.760e-8
0.051, 3.777e-8
0.050, 3.777e-8
0.049, 3.772e-8
0.048, 3.788e-8
0.047, 3.770e-8
0.046, 3.780e-8
0.045, 3.769e-8
0.044, 3.759e-8
0.043, 3.764e-8
0.042, 3.740e-8
0.041, 3.742e-8
0.040, 3.725e-8
0.039, 3.707e-8
0.038, 3.709e-8
0.037, 3.675e-8
0.036, 3.674e-8
0.035, 3.650e-8
0.034, 3.624e-8
0.033, 3.625e-8
0.032, 3.584e-8
0.031, 3.579e-8
0.030, 3.554e-8
0.029, 3.522e-8
0.028, 3.520e-8
0.027, 3.475e-8
0.026, 3.468e-8
0.025, 3.441e-8
0.024, 3.405e-8
0.023, 3.401e-8
0.022, 3.354e-8
0.021, 3.343e-8
0.020, 3.317e-8
0.019, 3.277e-8
0.018, 3.271e-8
0.017, 3.227e-8
0.016, 3.212e-8
0.015, 3.185e-8
0.014, 3.147e-8
0.013, 3.139e-8
0.012, 3.095e-8
0.011, 3.080e-8
0.010, 3.050e-8
0.009, 3.016e-8
0.008, 3.007e-8
0.007, 2.962e-8
0.006, 2.949e-8
0.005, 2.919e-8
0.004, 2.886e-8
0.003, 2.878e-8
0.002, 2.833e-8
0.001, 2.822e-8
0.000, 2.802e-8
-0.001, 2.761e-8
-0.002, 2.755e-8
-0.003, 2.711e-8
-0.004, 2.700e-8
-0.005, 2.672e-8
-0.006, 2.639e-8
-0.007, 2.635e-8
-0.008, 2.590e-8
-0.009, 2.583e-8
-0.010, 2.556e-8
-0.011, 2.523e-8
-0.012, 2.522e-8
-0.013, 2.477e-8
-0.014, 2.470e-8
-0.015, 2.448e-8
-0.016, 2.412e-8
-0.017, 2.412e-8
-0.018, 2.372e-8
-0.019, 2.364e-8
-0.020, 2.343e-8
-0.021, 2.312e-8
-0.022, 2.311e-8
-0.023, 2.272e-8
-0.024, 2.267e-8
-0.025, 2.246e-8
-0.026, 2.217e-8
-0.027, 2.219e-8
-0.028, 2.180e-8
-0.029, 2.175e-8
-0.030, 2.157e-8
-0.031, 2.129e-8
-0.032, 2.130e-8
-0.033, 2.094e-8
-0.034, 2.091e-8
-0.035, 2.072e-8
-0.036, 2.047e-8
-0.037, 2.049e-8
-0.038, 2.013e-8
-0.039, 2.014e-8
-0.040, 1.995e-8
-0.041, 1.969e-8
-0.042, 1.975e-8
-0.043, 1.938e-8
-0.044, 1.940e-8
-0.045, 1.922e-8
-0.046, 1.898e-8
-0.047, 1.905e-8
-0.048, 1.870e-8
-0.049, 1.871e-8
-0.050, 1.856e-8
-0.051, 1.833e-8
-0.052, 1.840e-8
-0.053, 1.806e-8
-0.054, 1.809e-8
-0.055, 1.795e-8
-0.056, 1.770e-8
-0.057, 1.780e-8
-0.058, 1.747e-8
-0.059, 1.749e-8
-0.060, 1.738e-8
-0.061, 1.714e-8
-0.062, 1.722e-8
-0.063, 1.693e-8
-0.064, 1.695e-8
-0.065, 1.683e-8
-0.066, 1.662e-8
-0.067, 1.671e-8
-0.068, 1.640e-8
-0.069, 1.645e-8
-0.070, 1.632e-8
-0.071, 1.611e-8
-0.072, 1.623e-8
-0.073, 1.592e-8
-0.074, 1.597e-8
-0.075, 1.587e-8
-0.076, 1.567e-8
-0.077, 1.577e-8
-0.078, 1.548e-8
-0.079, 1.554e-8
-0.080, 1.542e-8
-0.081, 1.524e-8
-0.082, 1.536e-8
-0.083, 1.505e-8
-0.084, 1.514e-8
-0.085, 1.503e-8
-0.086, 1.483e-8
-0.087, 1.497e-8
-0.088, 1.468e-8
-0.089, 1.475e-8
-0.090, 1.466e-8
-0.091, 1.447e-8
-0.092, 1.461e-8
-0.093, 1.432e-8
-0.094, 1.440e-8
-0.095, 1.431e-8
-0.096, 1.413e-8
-0.097, 1.427e-8
-0.098, 1.399e-8
-0.099, 1.407e-8
-0.100, 1.399e-8
-0.101, 1.380e-8
-0.102, 1.396e-8
-0.103, 1.369e-8
-0.104, 1.375e-8
-0.105, 1.369e-8
-0.106, 1.352e-8
-0.107, 1.364e-8
-0.108, 1.340e-8
-0.109, 1.347e-8
-0.110, 1.339e-8
-0.111, 1.324e-8
-0.112, 1.337e-8
-0.113, 1.311e-8
-0.114, 1.321e-8
-0.115, 1.313e-8
-0.116, 1.298e-8
-0.117, 1.312e-8
-0.118, 1.286e-8
-0.119, 1.296e-8
-0.120, 1.288e-8
-0.121, 1.273e-8
-0.122, 1.288e-8
-0.123, 1.263e-8
-0.124, 1.272e-8
-0.125, 1.264e-8
-0.126, 1.250e-8
-0.127, 1.266e-8
-0.128, 1.239e-8
-0.129, 1.250e-8
-0.130, 1.244e-8
-0.131, 1.228e-8
-0.132, 1.245e-8
-0.133, 1.220e-8
-0.134, 1.229e-8
-0.135, 1.225e-8
-0.136, 1.209e-8
-0.137, 1.225e-8
-0.138, 1.201e-8
-0.139, 1.211e-8
-0.140, 1.205e-8
-0.141, 1.190e-8
-0.142, 1.206e-8
-0.143, 1.182e-8
-0.144, 1.193e-8
-0.145, 1.188e-8
-0.146, 1.172e-8
-0.147, 1.189e-8
-0.148, 1.167e-8
-0.149, 1.175e-8
-0.150, 1.171e-8
-0.151, 1.157e-8
-0.152, 1.173e-8
-0.153, 1.149e-8
-0.154, 1.161e-8
-0.155, 1.155e-8
-0.156, 1.142e-8
-0.157, 1.159e-8
-0.158, 1.134e-8
-0.159, 1.146e-8
-0.160, 1.141e-8
-0.161, 1.127e-8
-0.162, 1.145e-8
-0.163, 1.121e-8
-0.164, 1.133e-8
-0.165, 1.128e-8
-0.166, 1.114e-8
-0.167, 1.132e-8
-0.168, 1.108e-8
-0.169, 1.120e-8
-0.170, 1.116e-8
-0.171, 1.102e-8
-0.172, 1.121e-8
-0.173, 1.096e-8
-0.174, 1.109e-8
-0.175, 1.106e-8
-0.176, 1.091e-8
-0.177, 1.110e-8
-0.178, 1.087e-8
-0.179, 1.098e-8
-0.180, 1.095e-8
-0.181, 1.081e-8
-0.182, 1.099e-8
-0.183, 1.078e-8
-0.184, 1.089e-8
-0.185, 1.085e-8
-0.186, 1.072e-8
-0.187, 1.091e-8
-0.188, 1.069e-8
-0.189, 1.080e-8
-0.190, 1.077e-8
-0.191, 1.064e-8
-0.192, 1.083e-8
-0.193, 1.061e-8
-0.194, 1.073e-8
-0.195, 1.070e-8
-0.196, 1.058e-8
-0.197, 1.076e-8
-0.198, 1.053e-8
-0.199, 1.068e-8
