Mar. 16, 2023   09:46:19
Cyclic Voltammetry
File: c:/users/oliverrz/desktop/electrolab/data/2023_03_16\fcmeoh_macros_750_um\electrode3_cv_250mvs_750_um.bin
Data Source:  Experiment
Instrument Model:  CHI760E
Header: CV
Note: 

Init E (V) = -0.2
High E (V) = 0.3
Low E (V) = -0.2
Final E (V) = -0.2
Init P/N = P
Scan Rate (V/s) = 0.25
Segment = 3
Sample Interval (V) = 0.001
Quiet Time (sec) = 2
Sensitivity (A/V) = 1e-7

Results:

Channel 1:
Segment 1:
Ep = 0.085V
ip = -6.254e-8A
Ah = -1.537e-8C

Segment 2:
Ep = 0.026V
ip = 6.791e-8A
Ah = 1.667e-8C

Segment 3:

Potential/V, Current/A

-0.200, 1.794e-8
-0.199, 1.524e-8
-0.198, 1.459e-8
-0.197, 1.431e-8
-0.196, 1.394e-8
-0.195, 1.354e-8
-0.194, 1.308e-8
-0.193, 1.296e-8
-0.192, 1.284e-8
-0.191, 1.237e-8
-0.190, 1.204e-8
-0.189, 1.191e-8
-0.188, 1.182e-8
-0.187, 1.151e-8
-0.186, 1.111e-8
-0.185, 1.099e-8
-0.184, 1.096e-8
-0.183, 1.068e-8
-0.182, 1.031e-8
-0.181, 1.016e-8
-0.180, 1.013e-8
-0.179, 9.913e-9
-0.178, 9.575e-9
-0.177, 9.329e-9
-0.176, 9.359e-9
-0.175, 9.206e-9
-0.174, 8.836e-9
-0.173, 8.652e-9
-0.172, 8.621e-9
-0.171, 8.529e-9
-0.170, 8.190e-9
-0.169, 7.883e-9
-0.168, 7.944e-9
-0.167, 7.852e-9
-0.166, 7.544e-9
-0.165, 7.298e-9
-0.164, 7.175e-9
-0.163, 7.237e-9
-0.162, 6.960e-9
-0.161, 6.621e-9
-0.160, 6.591e-9
-0.159, 6.591e-9
-0.158, 6.406e-9
-0.157, 6.068e-9
-0.156, 5.914e-9
-0.155, 6.037e-9
-0.154, 5.821e-9
-0.153, 5.483e-9
-0.152, 5.360e-9
-0.151, 5.391e-9
-0.150, 5.298e-9
-0.149, 4.991e-9
-0.148, 4.775e-9
-0.147, 4.868e-9
-0.146, 4.745e-9
-0.145, 4.499e-9
-0.144, 4.283e-9
-0.143, 4.283e-9
-0.142, 4.252e-9
-0.141, 3.976e-9
-0.140, 3.729e-9
-0.139, 3.729e-9
-0.138, 3.791e-9
-0.137, 3.514e-9
-0.136, 3.237e-9
-0.135, 3.176e-9
-0.134, 3.237e-9
-0.133, 3.083e-9
-0.132, 2.745e-9
-0.131, 2.683e-9
-0.130, 2.806e-9
-0.129, 2.591e-9
-0.128, 2.314e-9
-0.127, 2.191e-9
-0.126, 2.222e-9
-0.125, 2.191e-9
-0.124, 1.853e-9
-0.123, 1.730e-9
-0.122, 1.791e-9
-0.121, 1.699e-9
-0.120, 1.514e-9
-0.119, 1.237e-9
-0.118, 1.299e-9
-0.117, 1.330e-9
-0.116, 1.022e-9
-0.115, 8.375e-10
-0.114, 8.375e-10
-0.113, 8.682e-10
-0.112, 6.836e-10
-0.111, 3.760e-10
-0.110, 3.760e-10
-0.109, 4.375e-10
-0.108, 2.529e-10
-0.107, 6.813e-12
-0.106, -1.162e-10
-0.105, 6.813e-12
-0.104, -1.162e-10
-0.103, -4.239e-10
-0.102, -5.470e-10
-0.101, -4.547e-10
-0.100, -5.470e-10
-0.099, -7.931e-10
-0.098, -9.777e-10
-0.097, -8.854e-10
-0.096, -9.161e-10
-0.095, -1.193e-9
-0.094, -1.408e-9
-0.093, -1.316e-9
-0.092, -1.347e-9
-0.091, -1.593e-9
-0.090, -1.808e-9
-0.089, -1.808e-9
-0.088, -1.716e-9
-0.087, -1.962e-9
-0.086, -2.239e-9
-0.085, -2.208e-9
-0.084, -2.208e-9
-0.083, -2.331e-9
-0.082, -2.639e-9
-0.081, -2.762e-9
-0.080, -2.577e-9
-0.079, -2.793e-9
-0.078, -3.070e-9
-0.077, -3.162e-9
-0.076, -3.131e-9
-0.075, -3.193e-9
-0.074, -3.470e-9
-0.073, -3.654e-9
-0.072, -3.531e-9
-0.071, -3.654e-9
-0.070, -3.870e-9
-0.069, -4.116e-9
-0.068, -4.085e-9
-0.067, -4.085e-9
-0.066, -4.393e-9
-0.065, -4.608e-9
-0.064, -4.639e-9
-0.063, -4.608e-9
-0.062, -4.854e-9
-0.061, -5.131e-9
-0.060, -5.192e-9
-0.059, -5.162e-9
-0.058, -5.346e-9
-0.057, -5.685e-9
-0.056, -5.777e-9
-0.055, -5.746e-9
-0.054, -5.931e-9
-0.053, -6.239e-9
-0.052, -6.423e-9
-0.051, -6.362e-9
-0.050, -6.546e-9
-0.049, -6.885e-9
-0.048, -7.069e-9
-0.047, -7.100e-9
-0.046, -7.223e-9
-0.045, -7.500e-9
-0.044, -7.869e-9
-0.043, -7.838e-9
-0.042, -7.931e-9
-0.041, -8.300e-9
-0.040, -8.577e-9
-0.039, -8.730e-9
-0.038, -8.761e-9
-0.037, -9.069e-9
-0.036, -9.530e-9
-0.035, -9.592e-9
-0.034, -9.684e-9
-0.033, -9.992e-9
-0.032, -1.039e-8
-0.031, -1.064e-8
-0.030, -1.070e-8
-0.029, -1.101e-8
-0.028, -1.147e-8
-0.027, -1.171e-8
-0.026, -1.187e-8
-0.025, -1.215e-8
-0.024, -1.258e-8
-0.023, -1.301e-8
-0.022, -1.310e-8
-0.021, -1.341e-8
-0.020, -1.390e-8
-0.019, -1.433e-8
-0.018, -1.455e-8
-0.017, -1.482e-8
-0.016, -1.531e-8
-0.015, -1.587e-8
-0.014, -1.614e-8
-0.013, -1.642e-8
-0.012, -1.698e-8
-0.011, -1.756e-8
-0.010, -1.790e-8
-0.009, -1.824e-8
-0.008, -1.873e-8
-0.007, -1.944e-8
-0.006, -1.990e-8
-0.005, -2.018e-8
-0.004, -2.079e-8
-0.003, -2.144e-8
-0.002, -2.202e-8
-0.001, -2.245e-8
-0.000, -2.325e-8
0.001, -2.390e-8
0.002, -2.448e-8
0.003, -2.494e-8
0.004, -2.559e-8
0.005, -2.630e-8
0.006, -2.710e-8
0.007, -2.765e-8
0.008, -2.824e-8
0.009, -2.910e-8
0.010, -2.993e-8
0.011, -3.057e-8
0.012, -3.125e-8
0.013, -3.211e-8
0.014, -3.307e-8
0.015, -3.383e-8
0.016, -3.439e-8
0.017, -3.540e-8
0.018, -3.636e-8
0.019, -3.716e-8
0.020, -3.793e-8
0.021, -3.879e-8
0.022, -3.990e-8
0.023, -4.082e-8
0.024, -4.153e-8
0.025, -4.254e-8
0.026, -4.362e-8
0.027, -4.460e-8
0.028, -4.543e-8
0.029, -4.633e-8
0.030, -4.746e-8
0.031, -4.857e-8
0.032, -4.934e-8
0.033, -5.032e-8
0.034, -5.140e-8
0.035, -5.251e-8
0.036, -5.346e-8
0.037, -5.423e-8
0.038, -5.543e-8
0.039, -5.657e-8
0.040, -5.743e-8
0.041, -5.832e-8
0.042, -5.937e-8
0.043, -6.048e-8
0.044, -6.143e-8
0.045, -6.214e-8
0.046, -6.322e-8
0.047, -6.429e-8
0.048, -6.515e-8
0.049, -6.595e-8
0.050, -6.681e-8
0.051, -6.783e-8
0.052, -6.878e-8
0.053, -6.943e-8
0.054, -7.020e-8
0.055, -7.115e-8
0.056, -7.195e-8
0.057, -7.263e-8
0.058, -7.321e-8
0.059, -7.404e-8
0.060, -7.484e-8
0.061, -7.534e-8
0.062, -7.589e-8
0.063, -7.660e-8
0.064, -7.721e-8
0.065, -7.777e-8
0.066, -7.807e-8
0.067, -7.863e-8
0.068, -7.927e-8
0.069, -7.958e-8
0.070, -7.983e-8
0.071, -8.026e-8
0.072, -8.069e-8
0.073, -8.106e-8
0.074, -8.112e-8
0.075, -8.137e-8
0.076, -8.171e-8
0.077, -8.198e-8
0.078, -8.198e-8
0.079, -8.211e-8
0.080, -8.223e-8
0.081, -8.247e-8
0.082, -8.238e-8
0.083, -8.226e-8
0.084, -8.247e-8
0.085, -8.251e-8
0.086, -8.238e-8
0.087, -8.220e-8
0.088, -8.217e-8
0.089, -8.226e-8
0.090, -8.204e-8
0.091, -8.174e-8
0.092, -8.171e-8
0.093, -8.158e-8
0.094, -8.143e-8
0.095, -8.103e-8
0.096, -8.078e-8
0.097, -8.078e-8
0.098, -8.051e-8
0.099, -8.001e-8
0.100, -7.983e-8
0.101, -7.961e-8
0.102, -7.943e-8
0.103, -7.897e-8
0.104, -7.854e-8
0.105, -7.841e-8
0.106, -7.814e-8
0.107, -7.764e-8
0.108, -7.721e-8
0.109, -7.700e-8
0.110, -7.675e-8
0.111, -7.629e-8
0.112, -7.574e-8
0.113, -7.555e-8
0.114, -7.531e-8
0.115, -7.484e-8
0.116, -7.432e-8
0.117, -7.401e-8
0.118, -7.380e-8
0.119, -7.340e-8
0.120, -7.278e-8
0.121, -7.251e-8
0.122, -7.226e-8
0.123, -7.189e-8
0.124, -7.134e-8
0.125, -7.094e-8
0.126, -7.072e-8
0.127, -7.045e-8
0.128, -6.986e-8
0.129, -6.946e-8
0.130, -6.925e-8
0.131, -6.894e-8
0.132, -6.848e-8
0.133, -6.795e-8
0.134, -6.777e-8
0.135, -6.752e-8
0.136, -6.703e-8
0.137, -6.660e-8
0.138, -6.632e-8
0.139, -6.614e-8
0.140, -6.574e-8
0.141, -6.522e-8
0.142, -6.500e-8
0.143, -6.485e-8
0.144, -6.445e-8
0.145, -6.395e-8
0.146, -6.368e-8
0.147, -6.355e-8
0.148, -6.325e-8
0.149, -6.272e-8
0.150, -6.242e-8
0.151, -6.232e-8
0.152, -6.208e-8
0.153, -6.158e-8
0.154, -6.128e-8
0.155, -6.112e-8
0.156, -6.094e-8
0.157, -6.051e-8
0.158, -6.014e-8
0.159, -6.005e-8
0.160, -5.986e-8
0.161, -5.949e-8
0.162, -5.912e-8
0.163, -5.897e-8
0.164, -5.891e-8
0.165, -5.854e-8
0.166, -5.814e-8
0.167, -5.805e-8
0.168, -5.792e-8
0.169, -5.768e-8
0.170, -5.725e-8
0.171, -5.706e-8
0.172, -5.706e-8
0.173, -5.679e-8
0.174, -5.642e-8
0.175, -5.623e-8
0.176, -5.614e-8
0.177, -5.605e-8
0.178, -5.562e-8
0.179, -5.537e-8
0.180, -5.537e-8
0.181, -5.525e-8
0.182, -5.494e-8
0.183, -5.463e-8
0.184, -5.460e-8
0.185, -5.454e-8
0.186, -5.423e-8
0.187, -5.392e-8
0.188, -5.389e-8
0.189, -5.386e-8
0.190, -5.362e-8
0.191, -5.328e-8
0.192, -5.322e-8
0.193, -5.325e-8
0.194, -5.303e-8
0.195, -5.266e-8
0.196, -5.260e-8
0.197, -5.263e-8
0.198, -5.245e-8
0.199, -5.214e-8
0.200, -5.199e-8
0.201, -5.205e-8
0.202, -5.199e-8
0.203, -5.162e-8
0.204, -5.149e-8
0.205, -5.152e-8
0.206, -5.146e-8
0.207, -5.122e-8
0.208, -5.094e-8
0.209, -5.103e-8
0.210, -5.103e-8
0.211, -5.076e-8
0.212, -5.057e-8
0.213, -5.054e-8
0.214, -5.063e-8
0.215, -5.042e-8
0.216, -5.014e-8
0.217, -5.017e-8
0.218, -5.023e-8
0.219, -5.008e-8
0.220, -4.980e-8
0.221, -4.974e-8
0.222, -4.989e-8
0.223, -4.977e-8
0.224, -4.946e-8
0.225, -4.940e-8
0.226, -4.952e-8
0.227, -4.949e-8
0.228, -4.925e-8
0.229, -4.913e-8
0.230, -4.922e-8
0.231, -4.925e-8
0.232, -4.900e-8
0.233, -4.885e-8
0.234, -4.894e-8
0.235, -4.900e-8
0.236, -4.882e-8
0.237, -4.863e-8
0.238, -4.866e-8
0.239, -4.882e-8
0.240, -4.866e-8
0.241, -4.848e-8
0.242, -4.851e-8
0.243, -4.860e-8
0.244, -4.857e-8
0.245, -4.829e-8
0.246, -4.833e-8
0.247, -4.854e-8
0.248, -4.842e-8
0.249, -4.826e-8
0.250, -4.823e-8
0.251, -4.836e-8
0.252, -4.845e-8
0.253, -4.817e-8
0.254, -4.814e-8
0.255, -4.829e-8
0.256, -4.836e-8
0.257, -4.823e-8
0.258, -4.811e-8
0.259, -4.823e-8
0.260, -4.839e-8
0.261, -4.823e-8
0.262, -4.811e-8
0.263, -4.820e-8
0.264, -4.839e-8
0.265, -4.833e-8
0.266, -4.814e-8
0.267, -4.826e-8
0.268, -4.845e-8
0.269, -4.839e-8
0.270, -4.823e-8
0.271, -4.833e-8
0.272, -4.851e-8
0.273, -4.854e-8
0.274, -4.839e-8
0.275, -4.839e-8
0.276, -4.863e-8
0.277, -4.869e-8
0.278, -4.851e-8
0.279, -4.857e-8
0.280, -4.873e-8
0.281, -4.891e-8
0.282, -4.879e-8
0.283, -4.869e-8
0.284, -4.894e-8
0.285, -4.909e-8
0.286, -4.903e-8
0.287, -4.897e-8
0.288, -4.906e-8
0.289, -4.934e-8
0.290, -4.931e-8
0.291, -4.919e-8
0.292, -4.940e-8
0.293, -4.959e-8
0.294, -4.965e-8
0.295, -4.952e-8
0.296, -4.962e-8
0.297, -4.992e-8
0.298, -4.996e-8
0.299, -4.983e-8
0.300, -4.716e-8
0.299, -4.343e-8
0.298, -4.248e-8
0.297, -4.156e-8
0.296, -4.100e-8
0.295, -4.060e-8
0.294, -4.030e-8
0.293, -3.971e-8
0.292, -3.922e-8
0.291, -3.903e-8
0.290, -3.879e-8
0.289, -3.836e-8
0.288, -3.796e-8
0.287, -3.774e-8
0.286, -3.765e-8
0.285, -3.728e-8
0.284, -3.685e-8
0.283, -3.676e-8
0.282, -3.663e-8
0.281, -3.639e-8
0.280, -3.599e-8
0.279, -3.583e-8
0.278, -3.583e-8
0.277, -3.559e-8
0.276, -3.522e-8
0.275, -3.507e-8
0.274, -3.503e-8
0.273, -3.491e-8
0.272, -3.457e-8
0.271, -3.433e-8
0.270, -3.436e-8
0.269, -3.430e-8
0.268, -3.396e-8
0.267, -3.374e-8
0.266, -3.371e-8
0.265, -3.371e-8
0.264, -3.343e-8
0.263, -3.313e-8
0.262, -3.313e-8
0.261, -3.316e-8
0.260, -3.291e-8
0.259, -3.263e-8
0.258, -3.260e-8
0.257, -3.263e-8
0.256, -3.248e-8
0.255, -3.214e-8
0.254, -3.208e-8
0.253, -3.217e-8
0.252, -3.202e-8
0.251, -3.174e-8
0.250, -3.162e-8
0.249, -3.168e-8
0.248, -3.165e-8
0.247, -3.128e-8
0.246, -3.119e-8
0.245, -3.125e-8
0.244, -3.122e-8
0.243, -3.094e-8
0.242, -3.076e-8
0.241, -3.079e-8
0.240, -3.085e-8
0.239, -3.060e-8
0.238, -3.039e-8
0.237, -3.039e-8
0.236, -3.045e-8
0.235, -3.027e-8
0.234, -2.999e-8
0.233, -2.999e-8
0.232, -3.011e-8
0.231, -2.993e-8
0.230, -2.965e-8
0.229, -2.965e-8
0.228, -2.971e-8
0.227, -2.965e-8
0.226, -2.931e-8
0.225, -2.928e-8
0.224, -2.937e-8
0.223, -2.931e-8
0.222, -2.904e-8
0.221, -2.894e-8
0.220, -2.900e-8
0.219, -2.900e-8
0.218, -2.876e-8
0.217, -2.854e-8
0.216, -2.867e-8
0.215, -2.867e-8
0.214, -2.848e-8
0.213, -2.827e-8
0.212, -2.827e-8
0.211, -2.839e-8
0.210, -2.817e-8
0.209, -2.793e-8
0.208, -2.796e-8
0.207, -2.802e-8
0.206, -2.787e-8
0.205, -2.762e-8
0.204, -2.756e-8
0.203, -2.771e-8
0.202, -2.759e-8
0.201, -2.728e-8
0.200, -2.725e-8
0.199, -2.731e-8
0.198, -2.728e-8
0.197, -2.700e-8
0.196, -2.685e-8
0.195, -2.700e-8
0.194, -2.694e-8
0.193, -2.667e-8
0.192, -2.651e-8
0.191, -2.654e-8
0.190, -2.664e-8
0.189, -2.636e-8
0.188, -2.614e-8
0.187, -2.617e-8
0.186, -2.621e-8
0.185, -2.602e-8
0.184, -2.577e-8
0.183, -2.574e-8
0.182, -2.584e-8
0.181, -2.565e-8
0.180, -2.534e-8
0.179, -2.531e-8
0.178, -2.537e-8
0.177, -2.528e-8
0.176, -2.494e-8
0.175, -2.485e-8
0.174, -2.491e-8
0.173, -2.485e-8
0.172, -2.451e-8
0.171, -2.439e-8
0.170, -2.442e-8
0.169, -2.433e-8
0.168, -2.408e-8
0.167, -2.384e-8
0.166, -2.384e-8
0.165, -2.384e-8
0.164, -2.353e-8
0.163, -2.328e-8
0.162, -2.322e-8
0.161, -2.322e-8
0.160, -2.304e-8
0.159, -2.264e-8
0.158, -2.257e-8
0.157, -2.261e-8
0.156, -2.233e-8
0.155, -2.202e-8
0.154, -2.184e-8
0.153, -2.184e-8
0.152, -2.165e-8
0.151, -2.122e-8
0.150, -2.107e-8
0.149, -2.101e-8
0.148, -2.082e-8
0.147, -2.045e-8
0.146, -2.014e-8
0.145, -2.011e-8
0.144, -1.993e-8
0.143, -1.950e-8
0.142, -1.919e-8
0.141, -1.907e-8
0.140, -1.891e-8
0.139, -1.848e-8
0.138, -1.811e-8
0.137, -1.790e-8
0.136, -1.778e-8
0.135, -1.734e-8
0.134, -1.688e-8
0.133, -1.664e-8
0.132, -1.645e-8
0.131, -1.608e-8
0.130, -1.553e-8
0.129, -1.519e-8
0.128, -1.501e-8
0.127, -1.455e-8
0.126, -1.399e-8
0.125, -1.362e-8
0.124, -1.331e-8
0.123, -1.298e-8
0.122, -1.227e-8
0.121, -1.181e-8
0.120, -1.153e-8
0.119, -1.104e-8
0.118, -1.042e-8
0.117, -9.807e-9
0.116, -9.407e-9
0.115, -9.007e-9
0.114, -8.269e-9
0.113, -7.623e-9
0.112, -7.161e-9
0.111, -6.638e-9
0.110, -5.992e-9
0.109, -5.162e-9
0.108, -4.608e-9
0.107, -4.116e-9
0.106, -3.377e-9
0.105, -2.485e-9
0.104, -1.839e-9
0.103, -1.255e-9
0.102, -5.162e-10
0.101, 4.683e-10
0.100, 1.207e-9
0.099, 1.791e-9
0.098, 2.622e-9
0.097, 3.668e-9
0.096, 4.437e-9
0.095, 5.206e-9
0.094, 5.975e-9
0.093, 6.990e-9
0.092, 8.037e-9
0.091, 8.744e-9
0.090, 9.606e-9
0.089, 1.068e-8
0.088, 1.170e-8
0.087, 1.259e-8
0.086, 1.336e-8
0.085, 1.447e-8
0.084, 1.567e-8
0.083, 1.644e-8
0.082, 1.742e-8
0.081, 1.844e-8
0.080, 1.957e-8
0.079, 2.065e-8
0.078, 2.145e-8
0.077, 2.253e-8
0.076, 2.379e-8
0.075, 2.468e-8
0.074, 2.570e-8
0.073, 2.659e-8
0.072, 2.782e-8
0.071, 2.886e-8
0.070, 2.970e-8
0.069, 3.071e-8
0.068, 3.188e-8
0.067, 3.283e-8
0.066, 3.379e-8
0.065, 3.462e-8
0.064, 3.569e-8
0.063, 3.680e-8
0.062, 3.754e-8
0.061, 3.834e-8
0.060, 3.936e-8
0.059, 4.037e-8
0.058, 4.117e-8
0.057, 4.185e-8
0.056, 4.265e-8
0.055, 4.372e-8
0.054, 4.428e-8
0.053, 4.495e-8
0.052, 4.569e-8
0.051, 4.655e-8
0.050, 4.723e-8
0.049, 4.769e-8
0.048, 4.822e-8
0.047, 4.908e-8
0.046, 4.954e-8
0.045, 4.997e-8
0.044, 5.043e-8
0.043, 5.092e-8
0.042, 5.154e-8
0.041, 5.182e-8
0.040, 5.206e-8
0.039, 5.262e-8
0.038, 5.298e-8
0.037, 5.314e-8
0.036, 5.335e-8
0.035, 5.357e-8
0.034, 5.406e-8
0.033, 5.409e-8
0.032, 5.409e-8
0.031, 5.431e-8
0.030, 5.461e-8
0.029, 5.458e-8
0.028, 5.455e-8
0.027, 5.452e-8
0.026, 5.483e-8
0.025, 5.477e-8
0.024, 5.458e-8
0.023, 5.455e-8
0.022, 5.458e-8
0.021, 5.455e-8
0.020, 5.434e-8
0.019, 5.409e-8
0.018, 5.418e-8
0.017, 5.409e-8
0.016, 5.375e-8
0.015, 5.354e-8
0.014, 5.348e-8
0.013, 5.342e-8
0.012, 5.308e-8
0.011, 5.271e-8
0.010, 5.262e-8
0.009, 5.249e-8
0.008, 5.215e-8
0.007, 5.178e-8
0.006, 5.154e-8
0.005, 5.148e-8
0.004, 5.117e-8
0.003, 5.071e-8
0.002, 5.046e-8
0.001, 5.040e-8
0.000, 5.025e-8
-0.001, 4.972e-8
-0.002, 4.935e-8
-0.003, 4.926e-8
-0.004, 4.895e-8
-0.005, 4.846e-8
-0.006, 4.812e-8
-0.007, 4.800e-8
-0.008, 4.772e-8
-0.009, 4.735e-8
-0.010, 4.689e-8
-0.011, 4.677e-8
-0.012, 4.662e-8
-0.013, 4.619e-8
-0.014, 4.575e-8
-0.015, 4.557e-8
-0.016, 4.545e-8
-0.017, 4.511e-8
-0.018, 4.462e-8
-0.019, 4.440e-8
-0.020, 4.434e-8
-0.021, 4.400e-8
-0.022, 4.357e-8
-0.023, 4.332e-8
-0.024, 4.326e-8
-0.025, 4.299e-8
-0.026, 4.259e-8
-0.027, 4.231e-8
-0.028, 4.225e-8
-0.029, 4.200e-8
-0.030, 4.163e-8
-0.031, 4.132e-8
-0.032, 4.126e-8
-0.033, 4.114e-8
-0.034, 4.074e-8
-0.035, 4.043e-8
-0.036, 4.040e-8
-0.037, 4.028e-8
-0.038, 3.997e-8
-0.039, 3.960e-8
-0.040, 3.951e-8
-0.041, 3.951e-8
-0.042, 3.920e-8
-0.043, 3.886e-8
-0.044, 3.877e-8
-0.045, 3.874e-8
-0.046, 3.856e-8
-0.047, 3.819e-8
-0.048, 3.803e-8
-0.049, 3.812e-8
-0.050, 3.791e-8
-0.051, 3.760e-8
-0.052, 3.745e-8
-0.053, 3.745e-8
-0.054, 3.736e-8
-0.055, 3.708e-8
-0.056, 3.683e-8
-0.057, 3.696e-8
-0.058, 3.683e-8
-0.059, 3.659e-8
-0.060, 3.637e-8
-0.061, 3.637e-8
-0.062, 3.643e-8
-0.063, 3.616e-8
-0.064, 3.594e-8
-0.065, 3.594e-8
-0.066, 3.600e-8
-0.067, 3.582e-8
-0.068, 3.557e-8
-0.069, 3.551e-8
-0.070, 3.566e-8
-0.071, 3.548e-8
-0.072, 3.523e-8
-0.073, 3.517e-8
-0.074, 3.533e-8
-0.075, 3.520e-8
-0.076, 3.499e-8
-0.077, 3.489e-8
-0.078, 3.502e-8
-0.079, 3.499e-8
-0.080, 3.474e-8
-0.081, 3.465e-8
-0.082, 3.477e-8
-0.083, 3.477e-8
-0.084, 3.462e-8
-0.085, 3.440e-8
-0.086, 3.456e-8
-0.087, 3.468e-8
-0.088, 3.443e-8
-0.089, 3.431e-8
-0.090, 3.437e-8
-0.091, 3.453e-8
-0.092, 3.440e-8
-0.093, 3.416e-8
-0.094, 3.428e-8
-0.095, 3.443e-8
-0.096, 3.431e-8
-0.097, 3.419e-8
-0.098, 3.416e-8
-0.099, 3.437e-8
-0.100, 3.437e-8
-0.101, 3.416e-8
-0.102, 3.419e-8
-0.103, 3.434e-8
-0.104, 3.437e-8
-0.105, 3.422e-8
-0.106, 3.416e-8
-0.107, 3.437e-8
-0.108, 3.446e-8
-0.109, 3.431e-8
-0.110, 3.422e-8
-0.111, 3.443e-8
-0.112, 3.456e-8
-0.113, 3.443e-8
-0.114, 3.434e-8
-0.115, 3.449e-8
-0.116, 3.471e-8
-0.117, 3.462e-8
-0.118, 3.449e-8
-0.119, 3.465e-8
-0.120, 3.483e-8
-0.121, 3.486e-8
-0.122, 3.471e-8
-0.123, 3.477e-8
-0.124, 3.508e-8
-0.125, 3.505e-8
-0.126, 3.499e-8
-0.127, 3.502e-8
-0.128, 3.526e-8
-0.129, 3.542e-8
-0.130, 3.526e-8
-0.131, 3.529e-8
-0.132, 3.557e-8
-0.133, 3.566e-8
-0.134, 3.566e-8
-0.135, 3.557e-8
-0.136, 3.582e-8
-0.137, 3.606e-8
-0.138, 3.597e-8
-0.139, 3.597e-8
-0.140, 3.616e-8
-0.141, 3.640e-8
-0.142, 3.643e-8
-0.143, 3.634e-8
-0.144, 3.652e-8
-0.145, 3.683e-8
-0.146, 3.686e-8
-0.147, 3.680e-8
-0.148, 3.696e-8
-0.149, 3.726e-8
-0.150, 3.732e-8
-0.151, 3.729e-8
-0.152, 3.739e-8
-0.153, 3.772e-8
-0.154, 3.788e-8
-0.155, 3.782e-8
-0.156, 3.791e-8
-0.157, 3.819e-8
-0.158, 3.840e-8
-0.159, 3.840e-8
-0.160, 3.840e-8
-0.161, 3.874e-8
-0.162, 3.899e-8
-0.163, 3.899e-8
-0.164, 3.902e-8
-0.165, 3.926e-8
-0.166, 3.960e-8
-0.167, 3.966e-8
-0.168, 3.960e-8
-0.169, 3.991e-8
-0.170, 4.022e-8
-0.171, 4.034e-8
-0.172, 4.031e-8
-0.173, 4.049e-8
-0.174, 4.092e-8
-0.175, 4.105e-8
-0.176, 4.105e-8
-0.177, 4.123e-8
-0.178, 4.154e-8
-0.179, 4.182e-8
-0.180, 4.185e-8
-0.181, 4.191e-8
-0.182, 4.234e-8
-0.183, 4.252e-8
-0.184, 4.259e-8
-0.185, 4.274e-8
-0.186, 4.308e-8
-0.187, 4.335e-8
-0.188, 4.348e-8
-0.189, 4.351e-8
-0.190, 4.385e-8
-0.191, 4.422e-8
-0.192, 4.434e-8
-0.193, 4.440e-8
-0.194, 4.468e-8
-0.195, 4.508e-8
-0.196, 4.526e-8
-0.197, 4.529e-8
-0.198, 4.557e-8
-0.199, 4.600e-8
