Mar. 16, 2023   09:47:38
Cyclic Voltammetry
File: c:/users/oliverrz/desktop/electrolab/data/2023_03_16\fcmeoh_macros_750_um\electrode4_cv_250mvs_750_um.bin
Data Source:  Experiment
Instrument Model:  CHI760E
Header: CV
Note: 

Init E (V) = -0.2
High E (V) = 0.3
Low E (V) = -0.2
Final E (V) = -0.2
Init P/N = P
Scan Rate (V/s) = 0.25
Segment = 3
Sample Interval (V) = 0.001
Quiet Time (sec) = 2
Sensitivity (A/V) = 1e-7

Results:

Channel 1:
Segment 1:
Ep = 0.105V
ip = -5.206e-8A
Ah = -1.204e-8C

Segment 2:
Ep = 0.044V
ip = 5.873e-8A
Ah = 1.524e-8C

Segment 3:

Potential/V, Current/A

-0.200, 2.659e-8
-0.199, 2.348e-8
-0.198, 2.296e-8
-0.197, 2.240e-8
-0.196, 2.179e-8
-0.195, 2.133e-8
-0.194, 2.117e-8
-0.193, 2.083e-8
-0.192, 2.037e-8
-0.191, 1.988e-8
-0.190, 1.973e-8
-0.189, 1.957e-8
-0.188, 1.908e-8
-0.187, 1.868e-8
-0.186, 1.856e-8
-0.185, 1.831e-8
-0.184, 1.800e-8
-0.183, 1.748e-8
-0.182, 1.733e-8
-0.181, 1.724e-8
-0.180, 1.684e-8
-0.179, 1.644e-8
-0.178, 1.616e-8
-0.177, 1.610e-8
-0.176, 1.582e-8
-0.175, 1.533e-8
-0.174, 1.511e-8
-0.173, 1.505e-8
-0.172, 1.471e-8
-0.171, 1.437e-8
-0.170, 1.400e-8
-0.169, 1.400e-8
-0.168, 1.376e-8
-0.167, 1.330e-8
-0.166, 1.302e-8
-0.165, 1.293e-8
-0.164, 1.274e-8
-0.163, 1.237e-8
-0.162, 1.197e-8
-0.161, 1.185e-8
-0.160, 1.179e-8
-0.159, 1.136e-8
-0.158, 1.102e-8
-0.157, 1.087e-8
-0.156, 1.074e-8
-0.155, 1.044e-8
-0.154, 1.004e-8
-0.153, 9.821e-9
-0.152, 9.821e-9
-0.151, 9.544e-9
-0.150, 9.052e-9
-0.149, 8.867e-9
-0.148, 8.806e-9
-0.147, 8.590e-9
-0.146, 8.160e-9
-0.145, 7.852e-9
-0.144, 7.913e-9
-0.143, 7.637e-9
-0.142, 7.267e-9
-0.141, 6.960e-9
-0.140, 6.837e-9
-0.139, 6.775e-9
-0.138, 6.375e-9
-0.137, 6.037e-9
-0.136, 6.006e-9
-0.135, 5.821e-9
-0.134, 5.514e-9
-0.133, 5.175e-9
-0.132, 4.991e-9
-0.131, 5.022e-9
-0.130, 4.683e-9
-0.129, 4.283e-9
-0.128, 4.129e-9
-0.127, 4.099e-9
-0.126, 3.852e-9
-0.125, 3.483e-9
-0.124, 3.237e-9
-0.123, 3.299e-9
-0.122, 3.053e-9
-0.121, 2.683e-9
-0.120, 2.437e-9
-0.119, 2.437e-9
-0.118, 2.222e-9
-0.117, 1.914e-9
-0.116, 1.607e-9
-0.115, 1.576e-9
-0.114, 1.484e-9
-0.113, 1.114e-9
-0.112, 8.682e-10
-0.111, 7.759e-10
-0.110, 6.836e-10
-0.109, 4.683e-10
-0.108, 6.813e-12
-0.107, -2.395e-11
-0.106, -2.395e-11
-0.105, -3.624e-10
-0.104, -6.393e-10
-0.103, -8.546e-10
-0.102, -8.238e-10
-0.101, -1.039e-9
-0.100, -1.439e-9
-0.099, -1.501e-9
-0.098, -1.531e-9
-0.097, -1.747e-9
-0.096, -1.993e-9
-0.095, -2.331e-9
-0.094, -2.208e-9
-0.093, -2.362e-9
-0.092, -2.731e-9
-0.091, -2.947e-9
-0.090, -2.977e-9
-0.089, -3.070e-9
-0.088, -3.316e-9
-0.087, -3.623e-9
-0.086, -3.623e-9
-0.085, -3.654e-9
-0.084, -3.962e-9
-0.083, -4.239e-9
-0.082, -4.300e-9
-0.081, -4.331e-9
-0.080, -4.546e-9
-0.079, -4.885e-9
-0.078, -4.977e-9
-0.077, -4.916e-9
-0.076, -5.162e-9
-0.075, -5.500e-9
-0.074, -5.623e-9
-0.073, -5.592e-9
-0.072, -5.715e-9
-0.071, -6.054e-9
-0.070, -6.239e-9
-0.069, -6.177e-9
-0.068, -6.362e-9
-0.067, -6.577e-9
-0.066, -6.854e-9
-0.065, -6.823e-9
-0.064, -6.854e-9
-0.063, -7.192e-9
-0.062, -7.438e-9
-0.061, -7.408e-9
-0.060, -7.500e-9
-0.059, -7.715e-9
-0.058, -7.992e-9
-0.057, -8.084e-9
-0.056, -7.961e-9
-0.055, -8.300e-9
-0.054, -8.577e-9
-0.053, -8.638e-9
-0.052, -8.607e-9
-0.051, -8.823e-9
-0.050, -9.130e-9
-0.049, -9.284e-9
-0.048, -9.161e-9
-0.047, -9.377e-9
-0.046, -9.684e-9
-0.045, -9.869e-9
-0.044, -9.807e-9
-0.043, -9.900e-9
-0.042, -1.021e-8
-0.041, -1.045e-8
-0.040, -1.039e-8
-0.039, -1.051e-8
-0.038, -1.079e-8
-0.037, -1.104e-8
-0.036, -1.110e-8
-0.035, -1.110e-8
-0.034, -1.138e-8
-0.033, -1.171e-8
-0.032, -1.171e-8
-0.031, -1.175e-8
-0.030, -1.202e-8
-0.029, -1.230e-8
-0.028, -1.248e-8
-0.027, -1.239e-8
-0.026, -1.267e-8
-0.025, -1.304e-8
-0.024, -1.316e-8
-0.023, -1.316e-8
-0.022, -1.335e-8
-0.021, -1.368e-8
-0.020, -1.396e-8
-0.019, -1.390e-8
-0.018, -1.411e-8
-0.017, -1.448e-8
-0.016, -1.473e-8
-0.015, -1.482e-8
-0.014, -1.491e-8
-0.013, -1.531e-8
-0.012, -1.565e-8
-0.011, -1.574e-8
-0.010, -1.587e-8
-0.009, -1.624e-8
-0.008, -1.658e-8
-0.007, -1.679e-8
-0.006, -1.688e-8
-0.005, -1.722e-8
-0.004, -1.771e-8
-0.003, -1.787e-8
-0.002, -1.799e-8
-0.001, -1.839e-8
-0.000, -1.907e-8
0.001, -1.922e-8
0.002, -1.928e-8
0.003, -1.962e-8
0.004, -2.018e-8
0.005, -2.051e-8
0.006, -2.067e-8
0.007, -2.107e-8
0.008, -2.153e-8
0.009, -2.202e-8
0.010, -2.224e-8
0.011, -2.257e-8
0.012, -2.319e-8
0.013, -2.368e-8
0.014, -2.399e-8
0.015, -2.436e-8
0.016, -2.488e-8
0.017, -2.559e-8
0.018, -2.593e-8
0.019, -2.630e-8
0.020, -2.694e-8
0.021, -2.762e-8
0.022, -2.808e-8
0.023, -2.848e-8
0.024, -2.907e-8
0.025, -2.990e-8
0.026, -3.048e-8
0.027, -3.088e-8
0.028, -3.159e-8
0.029, -3.236e-8
0.030, -3.303e-8
0.031, -3.356e-8
0.032, -3.417e-8
0.033, -3.510e-8
0.034, -3.587e-8
0.035, -3.639e-8
0.036, -3.713e-8
0.037, -3.799e-8
0.038, -3.888e-8
0.039, -3.956e-8
0.040, -4.020e-8
0.041, -4.122e-8
0.042, -4.211e-8
0.043, -4.285e-8
0.044, -4.362e-8
0.045, -4.454e-8
0.046, -4.559e-8
0.047, -4.645e-8
0.048, -4.706e-8
0.049, -4.814e-8
0.050, -4.916e-8
0.051, -5.011e-8
0.052, -5.085e-8
0.053, -5.186e-8
0.054, -5.285e-8
0.055, -5.386e-8
0.056, -5.460e-8
0.057, -5.568e-8
0.058, -5.663e-8
0.059, -5.765e-8
0.060, -5.848e-8
0.061, -5.931e-8
0.062, -6.045e-8
0.063, -6.146e-8
0.064, -6.223e-8
0.065, -6.315e-8
0.066, -6.414e-8
0.067, -6.512e-8
0.068, -6.602e-8
0.069, -6.666e-8
0.070, -6.761e-8
0.071, -6.869e-8
0.072, -6.940e-8
0.073, -7.011e-8
0.074, -7.103e-8
0.075, -7.186e-8
0.076, -7.272e-8
0.077, -7.318e-8
0.078, -7.404e-8
0.079, -7.484e-8
0.080, -7.546e-8
0.081, -7.601e-8
0.082, -7.663e-8
0.083, -7.728e-8
0.084, -7.804e-8
0.085, -7.832e-8
0.086, -7.884e-8
0.087, -7.949e-8
0.088, -7.989e-8
0.089, -8.035e-8
0.090, -8.057e-8
0.091, -8.109e-8
0.092, -8.161e-8
0.093, -8.174e-8
0.094, -8.195e-8
0.095, -8.232e-8
0.096, -8.257e-8
0.097, -8.284e-8
0.098, -8.275e-8
0.099, -8.300e-8
0.100, -8.331e-8
0.101, -8.331e-8
0.102, -8.327e-8
0.103, -8.343e-8
0.104, -8.349e-8
0.105, -8.355e-8
0.106, -8.327e-8
0.107, -8.327e-8
0.108, -8.334e-8
0.109, -8.321e-8
0.110, -8.297e-8
0.111, -8.284e-8
0.112, -8.275e-8
0.113, -8.272e-8
0.114, -8.235e-8
0.115, -8.207e-8
0.116, -8.198e-8
0.117, -8.186e-8
0.118, -8.152e-8
0.119, -8.115e-8
0.120, -8.091e-8
0.121, -8.081e-8
0.122, -8.047e-8
0.123, -7.989e-8
0.124, -7.980e-8
0.125, -7.949e-8
0.126, -7.921e-8
0.127, -7.869e-8
0.128, -7.835e-8
0.129, -7.820e-8
0.130, -7.786e-8
0.131, -7.724e-8
0.132, -7.700e-8
0.133, -7.669e-8
0.134, -7.641e-8
0.135, -7.586e-8
0.136, -7.537e-8
0.137, -7.528e-8
0.138, -7.491e-8
0.139, -7.435e-8
0.140, -7.395e-8
0.141, -7.364e-8
0.142, -7.346e-8
0.143, -7.294e-8
0.144, -7.238e-8
0.145, -7.220e-8
0.146, -7.192e-8
0.147, -7.149e-8
0.148, -7.097e-8
0.149, -7.066e-8
0.150, -7.048e-8
0.151, -7.011e-8
0.152, -6.952e-8
0.153, -6.921e-8
0.154, -6.906e-8
0.155, -6.872e-8
0.156, -6.817e-8
0.157, -6.783e-8
0.158, -6.765e-8
0.159, -6.743e-8
0.160, -6.685e-8
0.161, -6.654e-8
0.162, -6.638e-8
0.163, -6.611e-8
0.164, -6.571e-8
0.165, -6.528e-8
0.166, -6.509e-8
0.167, -6.500e-8
0.168, -6.451e-8
0.169, -6.414e-8
0.170, -6.395e-8
0.171, -6.380e-8
0.172, -6.352e-8
0.173, -6.297e-8
0.174, -6.288e-8
0.175, -6.278e-8
0.176, -6.245e-8
0.177, -6.205e-8
0.178, -6.183e-8
0.179, -6.177e-8
0.180, -6.155e-8
0.181, -6.106e-8
0.182, -6.088e-8
0.183, -6.085e-8
0.184, -6.063e-8
0.185, -6.026e-8
0.186, -5.999e-8
0.187, -5.995e-8
0.188, -5.986e-8
0.189, -5.949e-8
0.190, -5.919e-8
0.191, -5.915e-8
0.192, -5.912e-8
0.193, -5.882e-8
0.194, -5.851e-8
0.195, -5.839e-8
0.196, -5.842e-8
0.197, -5.814e-8
0.198, -5.783e-8
0.199, -5.777e-8
0.200, -5.774e-8
0.201, -5.759e-8
0.202, -5.725e-8
0.203, -5.709e-8
0.204, -5.722e-8
0.205, -5.706e-8
0.206, -5.669e-8
0.207, -5.663e-8
0.208, -5.660e-8
0.209, -5.660e-8
0.210, -5.629e-8
0.211, -5.608e-8
0.212, -5.617e-8
0.213, -5.614e-8
0.214, -5.586e-8
0.215, -5.568e-8
0.216, -5.568e-8
0.217, -5.577e-8
0.218, -5.555e-8
0.219, -5.528e-8
0.220, -5.531e-8
0.221, -5.537e-8
0.222, -5.525e-8
0.223, -5.500e-8
0.224, -5.494e-8
0.225, -5.509e-8
0.226, -5.500e-8
0.227, -5.466e-8
0.228, -5.472e-8
0.229, -5.479e-8
0.230, -5.476e-8
0.231, -5.451e-8
0.232, -5.445e-8
0.233, -5.460e-8
0.234, -5.457e-8
0.235, -5.429e-8
0.236, -5.426e-8
0.237, -5.432e-8
0.238, -5.442e-8
0.239, -5.423e-8
0.240, -5.405e-8
0.241, -5.423e-8
0.242, -5.432e-8
0.243, -5.414e-8
0.244, -5.402e-8
0.245, -5.408e-8
0.246, -5.420e-8
0.247, -5.417e-8
0.248, -5.389e-8
0.249, -5.402e-8
0.250, -5.420e-8
0.251, -5.411e-8
0.252, -5.396e-8
0.253, -5.396e-8
0.254, -5.414e-8
0.255, -5.420e-8
0.256, -5.396e-8
0.257, -5.402e-8
0.258, -5.417e-8
0.259, -5.420e-8
0.260, -5.405e-8
0.261, -5.399e-8
0.262, -5.420e-8
0.263, -5.432e-8
0.264, -5.414e-8
0.265, -5.411e-8
0.266, -5.426e-8
0.267, -5.442e-8
0.268, -5.436e-8
0.269, -5.420e-8
0.270, -5.436e-8
0.271, -5.460e-8
0.272, -5.451e-8
0.273, -5.439e-8
0.274, -5.451e-8
0.275, -5.469e-8
0.276, -5.476e-8
0.277, -5.454e-8
0.278, -5.469e-8
0.279, -5.494e-8
0.280, -5.494e-8
0.281, -5.482e-8
0.282, -5.488e-8
0.283, -5.509e-8
0.284, -5.528e-8
0.285, -5.506e-8
0.286, -5.509e-8
0.287, -5.534e-8
0.288, -5.546e-8
0.289, -5.546e-8
0.290, -5.537e-8
0.291, -5.559e-8
0.292, -5.583e-8
0.293, -5.574e-8
0.294, -5.568e-8
0.295, -5.589e-8
0.296, -5.608e-8
0.297, -5.614e-8
0.298, -5.605e-8
0.299, -5.617e-8
0.300, -5.248e-8
0.299, -4.654e-8
0.298, -4.485e-8
0.297, -4.393e-8
0.296, -4.331e-8
0.295, -4.251e-8
0.294, -4.177e-8
0.293, -4.119e-8
0.292, -4.079e-8
0.291, -4.045e-8
0.290, -3.974e-8
0.289, -3.928e-8
0.288, -3.906e-8
0.287, -3.873e-8
0.286, -3.823e-8
0.285, -3.780e-8
0.284, -3.759e-8
0.283, -3.747e-8
0.282, -3.697e-8
0.281, -3.654e-8
0.280, -3.639e-8
0.279, -3.627e-8
0.278, -3.596e-8
0.277, -3.550e-8
0.276, -3.534e-8
0.275, -3.531e-8
0.274, -3.500e-8
0.273, -3.457e-8
0.272, -3.442e-8
0.271, -3.439e-8
0.270, -3.420e-8
0.269, -3.377e-8
0.268, -3.356e-8
0.267, -3.359e-8
0.266, -3.343e-8
0.265, -3.300e-8
0.264, -3.285e-8
0.263, -3.276e-8
0.262, -3.273e-8
0.261, -3.239e-8
0.260, -3.208e-8
0.259, -3.211e-8
0.258, -3.205e-8
0.257, -3.177e-8
0.256, -3.150e-8
0.255, -3.140e-8
0.254, -3.147e-8
0.253, -3.122e-8
0.252, -3.088e-8
0.251, -3.085e-8
0.250, -3.085e-8
0.249, -3.064e-8
0.248, -3.033e-8
0.247, -3.020e-8
0.246, -3.030e-8
0.245, -3.011e-8
0.244, -2.977e-8
0.243, -2.968e-8
0.242, -2.968e-8
0.241, -2.962e-8
0.240, -2.931e-8
0.239, -2.910e-8
0.238, -2.916e-8
0.237, -2.913e-8
0.236, -2.882e-8
0.235, -2.864e-8
0.234, -2.860e-8
0.233, -2.864e-8
0.232, -2.839e-8
0.231, -2.811e-8
0.230, -2.811e-8
0.229, -2.817e-8
0.228, -2.790e-8
0.227, -2.765e-8
0.226, -2.762e-8
0.225, -2.762e-8
0.224, -2.750e-8
0.223, -2.710e-8
0.222, -2.710e-8
0.221, -2.716e-8
0.220, -2.697e-8
0.219, -2.673e-8
0.218, -2.654e-8
0.217, -2.664e-8
0.216, -2.660e-8
0.215, -2.617e-8
0.214, -2.608e-8
0.213, -2.611e-8
0.212, -2.605e-8
0.211, -2.581e-8
0.210, -2.553e-8
0.209, -2.559e-8
0.208, -2.559e-8
0.207, -2.528e-8
0.206, -2.507e-8
0.205, -2.501e-8
0.204, -2.504e-8
0.203, -2.485e-8
0.202, -2.451e-8
0.201, -2.448e-8
0.200, -2.451e-8
0.199, -2.430e-8
0.198, -2.399e-8
0.197, -2.387e-8
0.196, -2.390e-8
0.195, -2.381e-8
0.194, -2.341e-8
0.193, -2.325e-8
0.192, -2.331e-8
0.191, -2.319e-8
0.190, -2.282e-8
0.189, -2.264e-8
0.188, -2.257e-8
0.187, -2.257e-8
0.186, -2.224e-8
0.185, -2.193e-8
0.184, -2.196e-8
0.183, -2.187e-8
0.182, -2.156e-8
0.181, -2.125e-8
0.180, -2.116e-8
0.179, -2.116e-8
0.178, -2.085e-8
0.177, -2.045e-8
0.176, -2.042e-8
0.175, -2.030e-8
0.174, -2.008e-8
0.173, -1.965e-8
0.172, -1.950e-8
0.171, -1.950e-8
0.170, -1.919e-8
0.169, -1.879e-8
0.168, -1.861e-8
0.167, -1.845e-8
0.166, -1.830e-8
0.165, -1.781e-8
0.164, -1.753e-8
0.163, -1.744e-8
0.162, -1.719e-8
0.161, -1.676e-8
0.160, -1.642e-8
0.159, -1.621e-8
0.158, -1.608e-8
0.157, -1.562e-8
0.156, -1.513e-8
0.155, -1.495e-8
0.154, -1.473e-8
0.153, -1.430e-8
0.152, -1.378e-8
0.151, -1.350e-8
0.150, -1.328e-8
0.149, -1.288e-8
0.148, -1.227e-8
0.147, -1.196e-8
0.146, -1.171e-8
0.145, -1.125e-8
0.144, -1.064e-8
0.143, -1.018e-8
0.142, -9.930e-9
0.141, -9.469e-9
0.140, -8.792e-9
0.139, -8.331e-9
0.138, -7.900e-9
0.137, -7.469e-9
0.136, -6.823e-9
0.135, -6.115e-9
0.134, -5.777e-9
0.133, -5.285e-9
0.132, -4.546e-9
0.131, -3.900e-9
0.130, -3.347e-9
0.129, -2.885e-9
0.128, -2.147e-9
0.127, -1.285e-9
0.126, -7.931e-10
0.125, -2.701e-10
0.124, 4.991e-10
0.123, 1.391e-9
0.122, 2.099e-9
0.121, 2.622e-9
0.120, 3.391e-9
0.119, 4.406e-9
0.118, 5.083e-9
0.117, 5.760e-9
0.116, 6.560e-9
0.115, 7.513e-9
0.114, 8.375e-9
0.113, 9.052e-9
0.112, 9.821e-9
0.111, 1.090e-8
0.110, 1.182e-8
0.109, 1.256e-8
0.108, 1.339e-8
0.107, 1.437e-8
0.106, 1.542e-8
0.105, 1.619e-8
0.104, 1.702e-8
0.103, 1.810e-8
0.102, 1.920e-8
0.101, 2.000e-8
0.100, 2.087e-8
0.099, 2.176e-8
0.098, 2.299e-8
0.097, 2.382e-8
0.096, 2.459e-8
0.095, 2.570e-8
0.094, 2.674e-8
0.093, 2.766e-8
0.092, 2.853e-8
0.091, 2.933e-8
0.090, 3.056e-8
0.089, 3.145e-8
0.088, 3.222e-8
0.087, 3.317e-8
0.086, 3.406e-8
0.085, 3.508e-8
0.084, 3.588e-8
0.083, 3.656e-8
0.082, 3.757e-8
0.081, 3.849e-8
0.080, 3.917e-8
0.079, 3.994e-8
0.078, 4.071e-8
0.077, 4.172e-8
0.076, 4.234e-8
0.075, 4.286e-8
0.074, 4.366e-8
0.073, 4.449e-8
0.072, 4.502e-8
0.071, 4.560e-8
0.070, 4.612e-8
0.069, 4.689e-8
0.068, 4.748e-8
0.067, 4.779e-8
0.066, 4.831e-8
0.065, 4.895e-8
0.064, 4.938e-8
0.063, 4.975e-8
0.062, 5.003e-8
0.061, 5.058e-8
0.060, 5.102e-8
0.059, 5.114e-8
0.058, 5.142e-8
0.057, 5.172e-8
0.056, 5.209e-8
0.055, 5.228e-8
0.054, 5.222e-8
0.053, 5.255e-8
0.052, 5.289e-8
0.051, 5.286e-8
0.050, 5.289e-8
0.049, 5.295e-8
0.048, 5.320e-8
0.047, 5.323e-8
0.046, 5.302e-8
0.045, 5.308e-8
0.044, 5.329e-8
0.043, 5.317e-8
0.042, 5.305e-8
0.041, 5.286e-8
0.040, 5.298e-8
0.039, 5.295e-8
0.038, 5.265e-8
0.037, 5.246e-8
0.036, 5.252e-8
0.035, 5.234e-8
0.034, 5.212e-8
0.033, 5.185e-8
0.032, 5.175e-8
0.031, 5.172e-8
0.030, 5.135e-8
0.029, 5.102e-8
0.028, 5.095e-8
0.027, 5.083e-8
0.026, 5.055e-8
0.025, 5.015e-8
0.024, 4.994e-8
0.023, 4.994e-8
0.022, 4.957e-8
0.021, 4.914e-8
0.020, 4.892e-8
0.019, 4.883e-8
0.018, 4.858e-8
0.017, 4.812e-8
0.016, 4.782e-8
0.015, 4.782e-8
0.014, 4.751e-8
0.013, 4.711e-8
0.012, 4.677e-8
0.011, 4.665e-8
0.010, 4.646e-8
0.009, 4.606e-8
0.008, 4.563e-8
0.007, 4.560e-8
0.006, 4.535e-8
0.005, 4.499e-8
0.004, 4.465e-8
0.003, 4.443e-8
0.002, 4.440e-8
0.001, 4.406e-8
0.000, 4.382e-8
-0.001, 4.351e-8
-0.002, 4.345e-8
-0.003, 4.308e-8
-0.004, 4.271e-8
-0.005, 4.243e-8
-0.006, 4.249e-8
-0.007, 4.219e-8
-0.008, 4.179e-8
-0.009, 4.157e-8
-0.010, 4.154e-8
-0.011, 4.132e-8
-0.012, 4.102e-8
-0.013, 4.071e-8
-0.014, 4.071e-8
-0.015, 4.056e-8
-0.016, 4.019e-8
-0.017, 3.997e-8
-0.018, 3.991e-8
-0.019, 3.985e-8
-0.020, 3.957e-8
-0.021, 3.920e-8
-0.022, 3.920e-8
-0.023, 3.920e-8
-0.024, 3.892e-8
-0.025, 3.865e-8
-0.026, 3.852e-8
-0.027, 3.862e-8
-0.028, 3.843e-8
-0.029, 3.806e-8
-0.030, 3.803e-8
-0.031, 3.809e-8
-0.032, 3.794e-8
-0.033, 3.769e-8
-0.034, 3.751e-8
-0.035, 3.763e-8
-0.036, 3.757e-8
-0.037, 3.726e-8
-0.038, 3.714e-8
-0.039, 3.726e-8
-0.040, 3.723e-8
-0.041, 3.702e-8
-0.042, 3.680e-8
-0.043, 3.689e-8
-0.044, 3.699e-8
-0.045, 3.674e-8
-0.046, 3.656e-8
-0.047, 3.665e-8
-0.048, 3.671e-8
-0.049, 3.659e-8
-0.050, 3.637e-8
-0.051, 3.640e-8
-0.052, 3.662e-8
-0.053, 3.643e-8
-0.054, 3.628e-8
-0.055, 3.628e-8
-0.056, 3.640e-8
-0.057, 3.646e-8
-0.058, 3.619e-8
-0.059, 3.619e-8
-0.060, 3.643e-8
-0.061, 3.634e-8
-0.062, 3.625e-8
-0.063, 3.616e-8
-0.064, 3.637e-8
-0.065, 3.646e-8
-0.066, 3.625e-8
-0.067, 3.619e-8
-0.068, 3.637e-8
-0.069, 3.649e-8
-0.070, 3.640e-8
-0.071, 3.628e-8
-0.072, 3.640e-8
-0.073, 3.662e-8
-0.074, 3.649e-8
-0.075, 3.640e-8
-0.076, 3.652e-8
-0.077, 3.677e-8
-0.078, 3.671e-8
-0.079, 3.659e-8
-0.080, 3.665e-8
-0.081, 3.696e-8
-0.082, 3.696e-8
-0.083, 3.683e-8
-0.084, 3.689e-8
-0.085, 3.711e-8
-0.086, 3.723e-8
-0.087, 3.711e-8
-0.088, 3.711e-8
-0.089, 3.745e-8
-0.090, 3.751e-8
-0.091, 3.742e-8
-0.092, 3.745e-8
-0.093, 3.763e-8
-0.094, 3.788e-8
-0.095, 3.782e-8
-0.096, 3.776e-8
-0.097, 3.803e-8
-0.098, 3.825e-8
-0.099, 3.825e-8
-0.100, 3.822e-8
-0.101, 3.834e-8
-0.102, 3.874e-8
-0.103, 3.874e-8
-0.104, 3.865e-8
-0.105, 3.880e-8
-0.106, 3.911e-8
-0.107, 3.923e-8
-0.108, 3.920e-8
-0.109, 3.926e-8
-0.110, 3.966e-8
-0.111, 3.979e-8
-0.112, 3.976e-8
-0.113, 3.985e-8
-0.114, 4.016e-8
-0.115, 4.037e-8
-0.116, 4.040e-8
-0.117, 4.040e-8
-0.118, 4.074e-8
-0.119, 4.102e-8
-0.120, 4.102e-8
-0.121, 4.108e-8
-0.122, 4.132e-8
-0.123, 4.166e-8
-0.124, 4.179e-8
-0.125, 4.169e-8
-0.126, 4.200e-8
-0.127, 4.237e-8
-0.128, 4.246e-8
-0.129, 4.249e-8
-0.130, 4.268e-8
-0.131, 4.308e-8
-0.132, 4.326e-8
-0.133, 4.323e-8
-0.134, 4.345e-8
-0.135, 4.382e-8
-0.136, 4.400e-8
-0.137, 4.409e-8
-0.138, 4.415e-8
-0.139, 4.462e-8
-0.140, 4.486e-8
-0.141, 4.492e-8
-0.142, 4.505e-8
-0.143, 4.542e-8
-0.144, 4.572e-8
-0.145, 4.582e-8
-0.146, 4.585e-8
-0.147, 4.622e-8
-0.148, 4.665e-8
-0.149, 4.668e-8
-0.150, 4.680e-8
-0.151, 4.708e-8
-0.152, 4.748e-8
-0.153, 4.769e-8
-0.154, 4.769e-8
-0.155, 4.797e-8
-0.156, 4.843e-8
-0.157, 4.862e-8
-0.158, 4.871e-8
-0.159, 4.892e-8
-0.160, 4.935e-8
-0.161, 4.963e-8
-0.162, 4.969e-8
-0.163, 4.988e-8
-0.164, 5.034e-8
-0.165, 5.058e-8
-0.166, 5.071e-8
-0.167, 5.086e-8
-0.168, 5.126e-8
-0.169, 5.166e-8
-0.170, 5.175e-8
-0.171, 5.185e-8
-0.172, 5.231e-8
-0.173, 5.262e-8
-0.174, 5.283e-8
-0.175, 5.289e-8
-0.176, 5.320e-8
-0.177, 5.372e-8
-0.178, 5.385e-8
-0.179, 5.397e-8
-0.180, 5.428e-8
-0.181, 5.468e-8
-0.182, 5.495e-8
-0.183, 5.501e-8
-0.184, 5.526e-8
-0.185, 5.578e-8
-0.186, 5.597e-8
-0.187, 5.609e-8
-0.188, 5.634e-8
-0.189, 5.674e-8
-0.190, 5.711e-8
-0.191, 5.717e-8
-0.192, 5.735e-8
-0.193, 5.781e-8
-0.194, 5.812e-8
-0.195, 5.825e-8
-0.196, 5.840e-8
-0.197, 5.874e-8
-0.198, 5.920e-8
-0.199, 5.935e-8
