Mar. 16, 2023   09:44:59
Cyclic Voltammetry
File: c:/users/oliverrz/desktop/electrolab/data/2023_03_16\fcmeoh_macros_750_um\electrode2_cv_250mvs_750_um.bin
Data Source:  Experiment
Instrument Model:  CHI760E
Header: CV
Note: 

Init E (V) = -0.2
High E (V) = 0.3
Low E (V) = -0.2
Final E (V) = -0.2
Init P/N = P
Scan Rate (V/s) = 0.25
Segment = 3
Sample Interval (V) = 0.001
Quiet Time (sec) = 2
Sensitivity (A/V) = 1e-7

Results:

Channel 1:
Segment 1:
Ep = 0.103V
ip = -7.371e-8A
Ah = -1.772e-8C

Segment 2:
Ep = 0.044V
ip = 7.039e-8A
Ah = 1.715e-8C

Segment 3:

Potential/V, Current/A

-0.200, 7.637e-9
-0.199, 5.883e-9
-0.198, 5.545e-9
-0.197, 5.298e-9
-0.196, 5.175e-9
-0.195, 5.083e-9
-0.194, 4.868e-9
-0.193, 4.683e-9
-0.192, 4.622e-9
-0.191, 4.560e-9
-0.190, 4.406e-9
-0.189, 4.252e-9
-0.188, 4.160e-9
-0.187, 4.129e-9
-0.186, 4.037e-9
-0.185, 3.822e-9
-0.184, 3.791e-9
-0.183, 3.791e-9
-0.182, 3.637e-9
-0.181, 3.514e-9
-0.180, 3.391e-9
-0.179, 3.422e-9
-0.178, 3.329e-9
-0.177, 3.145e-9
-0.176, 3.114e-9
-0.175, 3.083e-9
-0.174, 3.022e-9
-0.173, 2.899e-9
-0.172, 2.745e-9
-0.171, 2.776e-9
-0.170, 2.714e-9
-0.169, 2.591e-9
-0.168, 2.499e-9
-0.167, 2.437e-9
-0.166, 2.437e-9
-0.165, 2.345e-9
-0.164, 2.191e-9
-0.163, 2.191e-9
-0.162, 2.160e-9
-0.161, 2.068e-9
-0.160, 1.945e-9
-0.159, 1.883e-9
-0.158, 1.914e-9
-0.157, 1.822e-9
-0.156, 1.668e-9
-0.155, 1.637e-9
-0.154, 1.668e-9
-0.153, 1.576e-9
-0.152, 1.453e-9
-0.151, 1.360e-9
-0.150, 1.422e-9
-0.149, 1.391e-9
-0.148, 1.237e-9
-0.147, 1.145e-9
-0.146, 1.176e-9
-0.145, 1.114e-9
-0.144, 1.053e-9
-0.143, 8.990e-10
-0.142, 8.990e-10
-0.141, 9.298e-10
-0.140, 7.759e-10
-0.139, 7.144e-10
-0.138, 7.144e-10
-0.137, 6.836e-10
-0.136, 6.221e-10
-0.135, 4.683e-10
-0.134, 4.683e-10
-0.133, 5.298e-10
-0.132, 3.760e-10
-0.131, 3.145e-10
-0.130, 2.529e-10
-0.129, 2.837e-10
-0.128, 2.222e-10
-0.127, 6.834e-11
-0.126, 6.834e-11
-0.125, 9.911e-11
-0.124, 3.758e-11
-0.123, -5.472e-11
-0.122, -1.470e-10
-0.121, -1.162e-10
-0.120, -1.162e-10
-0.119, -2.393e-10
-0.118, -3.316e-10
-0.117, -3.008e-10
-0.116, -3.008e-10
-0.115, -3.931e-10
-0.114, -4.854e-10
-0.113, -5.162e-10
-0.112, -4.547e-10
-0.111, -5.470e-10
-0.110, -7.008e-10
-0.109, -6.700e-10
-0.108, -6.700e-10
-0.107, -7.315e-10
-0.106, -8.238e-10
-0.105, -8.854e-10
-0.104, -7.931e-10
-0.103, -9.161e-10
-0.102, -1.008e-9
-0.101, -1.039e-9
-0.100, -1.008e-9
-0.099, -1.039e-9
-0.098, -1.162e-9
-0.097, -1.255e-9
-0.096, -1.131e-9
-0.095, -1.193e-9
-0.094, -1.285e-9
-0.093, -1.378e-9
-0.092, -1.408e-9
-0.091, -1.347e-9
-0.090, -1.470e-9
-0.089, -1.593e-9
-0.088, -1.531e-9
-0.087, -1.531e-9
-0.086, -1.624e-9
-0.085, -1.716e-9
-0.084, -1.747e-9
-0.083, -1.685e-9
-0.082, -1.778e-9
-0.081, -1.901e-9
-0.080, -1.931e-9
-0.079, -1.901e-9
-0.078, -1.962e-9
-0.077, -2.085e-9
-0.076, -2.116e-9
-0.075, -2.085e-9
-0.074, -2.116e-9
-0.073, -2.239e-9
-0.072, -2.301e-9
-0.071, -2.270e-9
-0.070, -2.301e-9
-0.069, -2.393e-9
-0.068, -2.516e-9
-0.067, -2.516e-9
-0.066, -2.485e-9
-0.065, -2.639e-9
-0.064, -2.731e-9
-0.063, -2.731e-9
-0.062, -2.731e-9
-0.061, -2.793e-9
-0.060, -3.008e-9
-0.059, -2.977e-9
-0.058, -2.947e-9
-0.057, -3.070e-9
-0.056, -3.162e-9
-0.055, -3.285e-9
-0.054, -3.224e-9
-0.053, -3.316e-9
-0.052, -3.470e-9
-0.051, -3.531e-9
-0.050, -3.531e-9
-0.049, -3.593e-9
-0.048, -3.716e-9
-0.047, -3.870e-9
-0.046, -3.839e-9
-0.045, -3.900e-9
-0.044, -4.054e-9
-0.043, -4.177e-9
-0.042, -4.208e-9
-0.041, -4.239e-9
-0.040, -4.393e-9
-0.039, -4.546e-9
-0.038, -4.639e-9
-0.037, -4.639e-9
-0.036, -4.823e-9
-0.035, -4.946e-9
-0.034, -5.069e-9
-0.033, -5.100e-9
-0.032, -5.223e-9
-0.031, -5.439e-9
-0.030, -5.592e-9
-0.029, -5.562e-9
-0.028, -5.777e-9
-0.027, -5.962e-9
-0.026, -6.115e-9
-0.025, -6.208e-9
-0.024, -6.331e-9
-0.023, -6.577e-9
-0.022, -6.762e-9
-0.021, -6.823e-9
-0.020, -7.008e-9
-0.019, -7.223e-9
-0.018, -7.469e-9
-0.017, -7.623e-9
-0.016, -7.715e-9
-0.015, -8.054e-9
-0.014, -8.300e-9
-0.013, -8.454e-9
-0.012, -8.669e-9
-0.011, -8.884e-9
-0.010, -9.192e-9
-0.009, -9.438e-9
-0.008, -9.592e-9
-0.007, -9.961e-9
-0.006, -1.027e-8
-0.005, -1.051e-8
-0.004, -1.076e-8
-0.003, -1.104e-8
-0.002, -1.144e-8
-0.001, -1.175e-8
-0.000, -1.221e-8
0.001, -1.245e-8
0.002, -1.282e-8
0.003, -1.322e-8
0.004, -1.350e-8
0.005, -1.387e-8
0.006, -1.430e-8
0.007, -1.479e-8
0.008, -1.513e-8
0.009, -1.553e-8
0.010, -1.605e-8
0.011, -1.658e-8
0.012, -1.704e-8
0.013, -1.747e-8
0.014, -1.799e-8
0.015, -1.861e-8
0.016, -1.904e-8
0.017, -1.959e-8
0.018, -2.021e-8
0.019, -2.076e-8
0.020, -2.144e-8
0.021, -2.190e-8
0.022, -2.257e-8
0.023, -2.334e-8
0.024, -2.393e-8
0.025, -2.461e-8
0.026, -2.531e-8
0.027, -2.605e-8
0.028, -2.688e-8
0.029, -2.744e-8
0.030, -2.827e-8
0.031, -2.910e-8
0.032, -2.987e-8
0.033, -3.070e-8
0.034, -3.147e-8
0.035, -3.236e-8
0.036, -3.328e-8
0.037, -3.408e-8
0.038, -3.497e-8
0.039, -3.593e-8
0.040, -3.682e-8
0.041, -3.780e-8
0.042, -3.866e-8
0.043, -3.965e-8
0.044, -4.070e-8
0.045, -4.168e-8
0.046, -4.254e-8
0.047, -4.368e-8
0.048, -4.469e-8
0.049, -4.571e-8
0.050, -4.669e-8
0.051, -4.774e-8
0.052, -4.885e-8
0.053, -4.989e-8
0.054, -5.085e-8
0.055, -5.199e-8
0.056, -5.297e-8
0.057, -5.414e-8
0.058, -5.509e-8
0.059, -5.611e-8
0.060, -5.725e-8
0.061, -5.823e-8
0.062, -5.928e-8
0.063, -6.029e-8
0.064, -6.128e-8
0.065, -6.242e-8
0.066, -6.334e-8
0.067, -6.423e-8
0.068, -6.534e-8
0.069, -6.620e-8
0.070, -6.718e-8
0.071, -6.798e-8
0.072, -6.891e-8
0.073, -6.995e-8
0.074, -7.069e-8
0.075, -7.143e-8
0.076, -7.232e-8
0.077, -7.312e-8
0.078, -7.392e-8
0.079, -7.460e-8
0.080, -7.518e-8
0.081, -7.598e-8
0.082, -7.660e-8
0.083, -7.718e-8
0.084, -7.780e-8
0.085, -7.829e-8
0.086, -7.894e-8
0.087, -7.940e-8
0.088, -7.974e-8
0.089, -8.032e-8
0.090, -8.069e-8
0.091, -8.103e-8
0.092, -8.137e-8
0.093, -8.164e-8
0.094, -8.201e-8
0.095, -8.229e-8
0.096, -8.232e-8
0.097, -8.266e-8
0.098, -8.281e-8
0.099, -8.294e-8
0.100, -8.300e-8
0.101, -8.306e-8
0.102, -8.324e-8
0.103, -8.331e-8
0.104, -8.318e-8
0.105, -8.324e-8
0.106, -8.318e-8
0.107, -8.312e-8
0.108, -8.306e-8
0.109, -8.281e-8
0.110, -8.281e-8
0.111, -8.272e-8
0.112, -8.247e-8
0.113, -8.229e-8
0.114, -8.211e-8
0.115, -8.195e-8
0.116, -8.174e-8
0.117, -8.137e-8
0.118, -8.118e-8
0.119, -8.097e-8
0.120, -8.066e-8
0.121, -8.029e-8
0.122, -8.007e-8
0.123, -7.980e-8
0.124, -7.949e-8
0.125, -7.903e-8
0.126, -7.875e-8
0.127, -7.847e-8
0.128, -7.814e-8
0.129, -7.774e-8
0.130, -7.737e-8
0.131, -7.700e-8
0.132, -7.675e-8
0.133, -7.623e-8
0.134, -7.589e-8
0.135, -7.558e-8
0.136, -7.521e-8
0.137, -7.481e-8
0.138, -7.438e-8
0.139, -7.401e-8
0.140, -7.377e-8
0.141, -7.331e-8
0.142, -7.288e-8
0.143, -7.254e-8
0.144, -7.217e-8
0.145, -7.183e-8
0.146, -7.137e-8
0.147, -7.100e-8
0.148, -7.072e-8
0.149, -7.032e-8
0.150, -6.986e-8
0.151, -6.955e-8
0.152, -6.921e-8
0.153, -6.891e-8
0.154, -6.845e-8
0.155, -6.808e-8
0.156, -6.780e-8
0.157, -6.749e-8
0.158, -6.706e-8
0.159, -6.672e-8
0.160, -6.638e-8
0.161, -6.617e-8
0.162, -6.577e-8
0.163, -6.534e-8
0.164, -6.512e-8
0.165, -6.482e-8
0.166, -6.451e-8
0.167, -6.414e-8
0.168, -6.383e-8
0.169, -6.365e-8
0.170, -6.331e-8
0.171, -6.291e-8
0.172, -6.266e-8
0.173, -6.238e-8
0.174, -6.214e-8
0.175, -6.177e-8
0.176, -6.146e-8
0.177, -6.128e-8
0.178, -6.103e-8
0.179, -6.069e-8
0.180, -6.042e-8
0.181, -6.020e-8
0.182, -5.999e-8
0.183, -5.968e-8
0.184, -5.937e-8
0.185, -5.922e-8
0.186, -5.903e-8
0.187, -5.869e-8
0.188, -5.845e-8
0.189, -5.823e-8
0.190, -5.805e-8
0.191, -5.783e-8
0.192, -5.749e-8
0.193, -5.737e-8
0.194, -5.722e-8
0.195, -5.694e-8
0.196, -5.669e-8
0.197, -5.648e-8
0.198, -5.635e-8
0.199, -5.617e-8
0.200, -5.583e-8
0.201, -5.568e-8
0.202, -5.555e-8
0.203, -5.540e-8
0.204, -5.512e-8
0.205, -5.494e-8
0.206, -5.482e-8
0.207, -5.469e-8
0.208, -5.439e-8
0.209, -5.420e-8
0.210, -5.411e-8
0.211, -5.396e-8
0.212, -5.377e-8
0.213, -5.352e-8
0.214, -5.340e-8
0.215, -5.334e-8
0.216, -5.312e-8
0.217, -5.291e-8
0.218, -5.282e-8
0.219, -5.269e-8
0.220, -5.257e-8
0.221, -5.229e-8
0.222, -5.220e-8
0.223, -5.217e-8
0.224, -5.199e-8
0.225, -5.177e-8
0.226, -5.165e-8
0.227, -5.156e-8
0.228, -5.149e-8
0.229, -5.125e-8
0.230, -5.112e-8
0.231, -5.109e-8
0.232, -5.097e-8
0.233, -5.079e-8
0.234, -5.063e-8
0.235, -5.057e-8
0.236, -5.054e-8
0.237, -5.032e-8
0.238, -5.014e-8
0.239, -5.011e-8
0.240, -5.005e-8
0.241, -4.992e-8
0.242, -4.974e-8
0.243, -4.968e-8
0.244, -4.965e-8
0.245, -4.949e-8
0.246, -4.931e-8
0.247, -4.928e-8
0.248, -4.922e-8
0.249, -4.916e-8
0.250, -4.894e-8
0.251, -4.885e-8
0.252, -4.885e-8
0.253, -4.876e-8
0.254, -4.857e-8
0.255, -4.851e-8
0.256, -4.845e-8
0.257, -4.845e-8
0.258, -4.826e-8
0.259, -4.814e-8
0.260, -4.814e-8
0.261, -4.808e-8
0.262, -4.796e-8
0.263, -4.783e-8
0.264, -4.777e-8
0.265, -4.780e-8
0.266, -4.768e-8
0.267, -4.749e-8
0.268, -4.753e-8
0.269, -4.749e-8
0.270, -4.740e-8
0.271, -4.728e-8
0.272, -4.719e-8
0.273, -4.725e-8
0.274, -4.716e-8
0.275, -4.697e-8
0.276, -4.697e-8
0.277, -4.694e-8
0.278, -4.691e-8
0.279, -4.679e-8
0.280, -4.666e-8
0.281, -4.673e-8
0.282, -4.669e-8
0.283, -4.654e-8
0.284, -4.648e-8
0.285, -4.645e-8
0.286, -4.645e-8
0.287, -4.639e-8
0.288, -4.623e-8
0.289, -4.626e-8
0.290, -4.629e-8
0.291, -4.617e-8
0.292, -4.608e-8
0.293, -4.605e-8
0.294, -4.608e-8
0.295, -4.605e-8
0.296, -4.586e-8
0.297, -4.589e-8
0.298, -4.593e-8
0.299, -4.586e-8
0.300, -4.285e-8
0.299, -3.910e-8
0.298, -3.854e-8
0.297, -3.814e-8
0.296, -3.774e-8
0.295, -3.743e-8
0.294, -3.725e-8
0.293, -3.707e-8
0.292, -3.676e-8
0.291, -3.654e-8
0.290, -3.639e-8
0.289, -3.627e-8
0.288, -3.605e-8
0.287, -3.580e-8
0.286, -3.574e-8
0.285, -3.565e-8
0.284, -3.543e-8
0.283, -3.525e-8
0.282, -3.513e-8
0.281, -3.507e-8
0.280, -3.494e-8
0.279, -3.470e-8
0.278, -3.463e-8
0.277, -3.460e-8
0.276, -3.445e-8
0.275, -3.427e-8
0.274, -3.414e-8
0.273, -3.411e-8
0.272, -3.408e-8
0.271, -3.380e-8
0.270, -3.374e-8
0.269, -3.368e-8
0.268, -3.362e-8
0.267, -3.347e-8
0.266, -3.331e-8
0.265, -3.328e-8
0.264, -3.325e-8
0.263, -3.307e-8
0.262, -3.297e-8
0.261, -3.291e-8
0.260, -3.288e-8
0.259, -3.276e-8
0.258, -3.257e-8
0.257, -3.257e-8
0.256, -3.254e-8
0.255, -3.242e-8
0.254, -3.227e-8
0.253, -3.224e-8
0.252, -3.220e-8
0.251, -3.214e-8
0.250, -3.196e-8
0.249, -3.187e-8
0.248, -3.190e-8
0.247, -3.180e-8
0.246, -3.165e-8
0.245, -3.159e-8
0.244, -3.153e-8
0.243, -3.153e-8
0.242, -3.137e-8
0.241, -3.125e-8
0.240, -3.125e-8
0.239, -3.119e-8
0.238, -3.110e-8
0.237, -3.097e-8
0.236, -3.091e-8
0.235, -3.094e-8
0.234, -3.079e-8
0.233, -3.067e-8
0.232, -3.064e-8
0.231, -3.060e-8
0.230, -3.051e-8
0.229, -3.036e-8
0.228, -3.033e-8
0.227, -3.036e-8
0.226, -3.024e-8
0.225, -3.005e-8
0.224, -3.005e-8
0.223, -3.002e-8
0.222, -2.996e-8
0.221, -2.980e-8
0.220, -2.968e-8
0.219, -2.971e-8
0.218, -2.965e-8
0.217, -2.950e-8
0.216, -2.940e-8
0.215, -2.937e-8
0.214, -2.934e-8
0.213, -2.922e-8
0.212, -2.907e-8
0.211, -2.907e-8
0.210, -2.904e-8
0.209, -2.888e-8
0.208, -2.876e-8
0.207, -2.870e-8
0.206, -2.870e-8
0.205, -2.857e-8
0.204, -2.836e-8
0.203, -2.836e-8
0.202, -2.830e-8
0.201, -2.824e-8
0.200, -2.805e-8
0.199, -2.793e-8
0.198, -2.793e-8
0.197, -2.787e-8
0.196, -2.765e-8
0.195, -2.759e-8
0.194, -2.750e-8
0.193, -2.747e-8
0.192, -2.728e-8
0.191, -2.710e-8
0.190, -2.707e-8
0.189, -2.704e-8
0.188, -2.682e-8
0.187, -2.667e-8
0.186, -2.657e-8
0.185, -2.651e-8
0.184, -2.636e-8
0.183, -2.611e-8
0.182, -2.608e-8
0.181, -2.599e-8
0.180, -2.581e-8
0.179, -2.556e-8
0.178, -2.544e-8
0.177, -2.537e-8
0.176, -2.522e-8
0.175, -2.494e-8
0.174, -2.482e-8
0.173, -2.473e-8
0.172, -2.454e-8
0.171, -2.430e-8
0.170, -2.408e-8
0.169, -2.396e-8
0.168, -2.381e-8
0.167, -2.350e-8
0.166, -2.328e-8
0.165, -2.316e-8
0.164, -2.291e-8
0.163, -2.270e-8
0.162, -2.236e-8
0.161, -2.217e-8
0.160, -2.205e-8
0.159, -2.165e-8
0.158, -2.137e-8
0.157, -2.116e-8
0.156, -2.091e-8
0.155, -2.064e-8
0.154, -2.021e-8
0.153, -1.999e-8
0.152, -1.974e-8
0.151, -1.938e-8
0.150, -1.901e-8
0.149, -1.864e-8
0.148, -1.836e-8
0.147, -1.805e-8
0.146, -1.753e-8
0.145, -1.716e-8
0.144, -1.685e-8
0.143, -1.642e-8
0.142, -1.599e-8
0.141, -1.547e-8
0.140, -1.507e-8
0.139, -1.470e-8
0.138, -1.411e-8
0.137, -1.362e-8
0.136, -1.316e-8
0.135, -1.267e-8
0.134, -1.215e-8
0.133, -1.150e-8
0.132, -1.101e-8
0.131, -1.051e-8
0.130, -9.838e-9
0.129, -9.192e-9
0.128, -8.607e-9
0.127, -8.023e-9
0.126, -7.377e-9
0.125, -6.608e-9
0.124, -5.962e-9
0.123, -5.346e-9
0.122, -4.608e-9
0.121, -3.777e-9
0.120, -3.100e-9
0.119, -2.270e-9
0.118, -1.593e-9
0.117, -7.315e-10
0.116, 9.911e-11
0.115, 8.990e-10
0.114, 1.760e-9
0.113, 2.683e-9
0.112, 3.514e-9
0.111, 4.437e-9
0.110, 5.237e-9
0.109, 6.252e-9
0.108, 7.237e-9
0.107, 8.037e-9
0.106, 9.083e-9
0.105, 1.004e-8
0.104, 1.111e-8
0.103, 1.210e-8
0.102, 1.302e-8
0.101, 1.407e-8
0.100, 1.520e-8
0.099, 1.613e-8
0.098, 1.720e-8
0.097, 1.816e-8
0.096, 1.933e-8
0.095, 2.034e-8
0.094, 2.136e-8
0.093, 2.240e-8
0.092, 2.354e-8
0.091, 2.459e-8
0.090, 2.563e-8
0.089, 2.668e-8
0.088, 2.773e-8
0.087, 2.880e-8
0.086, 2.976e-8
0.085, 3.077e-8
0.084, 3.188e-8
0.083, 3.283e-8
0.082, 3.385e-8
0.081, 3.480e-8
0.080, 3.569e-8
0.079, 3.683e-8
0.078, 3.763e-8
0.077, 3.856e-8
0.076, 3.948e-8
0.075, 4.034e-8
0.074, 4.123e-8
0.073, 4.200e-8
0.072, 4.274e-8
0.071, 4.366e-8
0.070, 4.425e-8
0.069, 4.505e-8
0.068, 4.575e-8
0.067, 4.640e-8
0.066, 4.711e-8
0.065, 4.766e-8
0.064, 4.822e-8
0.063, 4.886e-8
0.062, 4.932e-8
0.061, 4.985e-8
0.060, 5.031e-8
0.059, 5.068e-8
0.058, 5.123e-8
0.057, 5.148e-8
0.056, 5.178e-8
0.055, 5.215e-8
0.054, 5.243e-8
0.053, 5.271e-8
0.052, 5.289e-8
0.051, 5.308e-8
0.050, 5.338e-8
0.049, 5.345e-8
0.048, 5.351e-8
0.047, 5.366e-8
0.046, 5.375e-8
0.045, 5.375e-8
0.044, 5.378e-8
0.043, 5.366e-8
0.042, 5.378e-8
0.041, 5.372e-8
0.040, 5.360e-8
0.039, 5.354e-8
0.038, 5.345e-8
0.037, 5.332e-8
0.036, 5.320e-8
0.035, 5.292e-8
0.034, 5.283e-8
0.033, 5.268e-8
0.032, 5.237e-8
0.031, 5.222e-8
0.030, 5.191e-8
0.029, 5.182e-8
0.028, 5.151e-8
0.027, 5.114e-8
0.026, 5.098e-8
0.025, 5.074e-8
0.024, 5.040e-8
0.023, 5.009e-8
0.022, 4.969e-8
0.021, 4.954e-8
0.020, 4.920e-8
0.019, 4.877e-8
0.018, 4.849e-8
0.017, 4.822e-8
0.016, 4.788e-8
0.015, 4.751e-8
0.014, 4.711e-8
0.013, 4.683e-8
0.012, 4.652e-8
0.011, 4.612e-8
0.010, 4.575e-8
0.009, 4.545e-8
0.008, 4.514e-8
0.007, 4.477e-8
0.006, 4.434e-8
0.005, 4.406e-8
0.004, 4.382e-8
0.003, 4.339e-8
0.002, 4.299e-8
0.001, 4.271e-8
0.000, 4.259e-8
-0.001, 4.215e-8
-0.002, 4.169e-8
-0.003, 4.132e-8
-0.004, 4.117e-8
-0.005, 4.077e-8
-0.006, 4.040e-8
-0.007, 4.006e-8
-0.008, 3.979e-8
-0.009, 3.951e-8
-0.010, 3.914e-8
-0.011, 3.880e-8
-0.012, 3.859e-8
-0.013, 3.828e-8
-0.014, 3.797e-8
-0.015, 3.760e-8
-0.016, 3.739e-8
-0.017, 3.717e-8
-0.018, 3.680e-8
-0.019, 3.649e-8
-0.020, 3.625e-8
-0.021, 3.603e-8
-0.022, 3.576e-8
-0.023, 3.542e-8
-0.024, 3.517e-8
-0.025, 3.505e-8
-0.026, 3.474e-8
-0.027, 3.443e-8
-0.028, 3.419e-8
-0.029, 3.403e-8
-0.030, 3.379e-8
-0.031, 3.351e-8
-0.032, 3.323e-8
-0.033, 3.314e-8
-0.034, 3.289e-8
-0.035, 3.262e-8
-0.036, 3.240e-8
-0.037, 3.222e-8
-0.038, 3.206e-8
-0.039, 3.185e-8
-0.040, 3.154e-8
-0.041, 3.145e-8
-0.042, 3.126e-8
-0.043, 3.105e-8
-0.044, 3.080e-8
-0.045, 3.062e-8
-0.046, 3.056e-8
-0.047, 3.034e-8
-0.048, 3.006e-8
-0.049, 2.997e-8
-0.050, 2.988e-8
-0.051, 2.970e-8
-0.052, 2.948e-8
-0.053, 2.926e-8
-0.054, 2.926e-8
-0.055, 2.908e-8
-0.056, 2.886e-8
-0.057, 2.871e-8
-0.058, 2.859e-8
-0.059, 2.853e-8
-0.060, 2.831e-8
-0.061, 2.813e-8
-0.062, 2.810e-8
-0.063, 2.797e-8
-0.064, 2.782e-8
-0.065, 2.760e-8
-0.066, 2.754e-8
-0.067, 2.748e-8
-0.068, 2.733e-8
-0.069, 2.711e-8
-0.070, 2.705e-8
-0.071, 2.705e-8
-0.072, 2.686e-8
-0.073, 2.671e-8
-0.074, 2.662e-8
-0.075, 2.662e-8
-0.076, 2.653e-8
-0.077, 2.631e-8
-0.078, 2.622e-8
-0.079, 2.622e-8
-0.080, 2.610e-8
-0.081, 2.597e-8
-0.082, 2.585e-8
-0.083, 2.582e-8
-0.084, 2.582e-8
-0.085, 2.560e-8
-0.086, 2.551e-8
-0.087, 2.554e-8
-0.088, 2.545e-8
-0.089, 2.536e-8
-0.090, 2.520e-8
-0.091, 2.520e-8
-0.092, 2.520e-8
-0.093, 2.505e-8
-0.094, 2.496e-8
-0.095, 2.493e-8
-0.096, 2.493e-8
-0.097, 2.487e-8
-0.098, 2.468e-8
-0.099, 2.468e-8
-0.100, 2.471e-8
-0.101, 2.462e-8
-0.102, 2.450e-8
-0.103, 2.443e-8
-0.104, 2.450e-8
-0.105, 2.447e-8
-0.106, 2.428e-8
-0.107, 2.422e-8
-0.108, 2.431e-8
-0.109, 2.425e-8
-0.110, 2.416e-8
-0.111, 2.407e-8
-0.112, 2.410e-8
-0.113, 2.410e-8
-0.114, 2.403e-8
-0.115, 2.391e-8
-0.116, 2.397e-8
-0.117, 2.397e-8
-0.118, 2.391e-8
-0.119, 2.382e-8
-0.120, 2.379e-8
-0.121, 2.388e-8
-0.122, 2.382e-8
-0.123, 2.370e-8
-0.124, 2.373e-8
-0.125, 2.376e-8
-0.126, 2.376e-8
-0.127, 2.367e-8
-0.128, 2.360e-8
-0.129, 2.373e-8
-0.130, 2.367e-8
-0.131, 2.360e-8
-0.132, 2.357e-8
-0.133, 2.363e-8
-0.134, 2.367e-8
-0.135, 2.357e-8
-0.136, 2.351e-8
-0.137, 2.363e-8
-0.138, 2.360e-8
-0.139, 2.357e-8
-0.140, 2.354e-8
-0.141, 2.357e-8
-0.142, 2.363e-8
-0.143, 2.357e-8
-0.144, 2.351e-8
-0.145, 2.360e-8
-0.146, 2.367e-8
-0.147, 2.360e-8
-0.148, 2.357e-8
-0.149, 2.357e-8
-0.150, 2.370e-8
-0.151, 2.370e-8
-0.152, 2.360e-8
-0.153, 2.363e-8
-0.154, 2.376e-8
-0.155, 2.373e-8
-0.156, 2.373e-8
-0.157, 2.367e-8
-0.158, 2.382e-8
-0.159, 2.385e-8
-0.160, 2.376e-8
-0.161, 2.379e-8
-0.162, 2.391e-8
-0.163, 2.394e-8
-0.164, 2.394e-8
-0.165, 2.388e-8
-0.166, 2.400e-8
-0.167, 2.410e-8
-0.168, 2.403e-8
-0.169, 2.403e-8
-0.170, 2.410e-8
-0.171, 2.419e-8
-0.172, 2.422e-8
-0.173, 2.416e-8
-0.174, 2.428e-8
-0.175, 2.437e-8
-0.176, 2.440e-8
-0.177, 2.440e-8
-0.178, 2.437e-8
-0.179, 2.459e-8
-0.180, 2.459e-8
-0.181, 2.456e-8
-0.182, 2.462e-8
-0.183, 2.474e-8
-0.184, 2.480e-8
-0.185, 2.480e-8
-0.186, 2.483e-8
-0.187, 2.496e-8
-0.188, 2.505e-8
-0.189, 2.505e-8
-0.190, 2.505e-8
-0.191, 2.517e-8
-0.192, 2.530e-8
-0.193, 2.533e-8
-0.194, 2.533e-8
-0.195, 2.542e-8
-0.196, 2.560e-8
-0.197, 2.560e-8
-0.198, 2.560e-8
-0.199, 2.573e-8
