Mar. 16, 2023   09:45:46
Cyclic Voltammetry
File: c:/users/oliverrz/desktop/electrolab/data/2023_03_16\fcmeoh_macros_750_um\electrode3_cv_100mvs_750_um.bin
Data Source:  Experiment
Instrument Model:  CHI760E
Header: CV
Note: 

Init E (V) = -0.2
High E (V) = 0.3
Low E (V) = -0.2
Final E (V) = -0.2
Init P/N = P
Scan Rate (V/s) = 0.1
Segment = 3
Sample Interval (V) = 0.001
Quiet Time (sec) = 2
Sensitivity (A/V) = 1e-7

Results:

Channel 1:
Segment 1:
Ep = 0.092V
ip = -4.463e-8A
Ah = -3.186e-8C

Segment 2:
Ep = 0.007V
ip = 2.829e-8A
Ah = 1.728e-8C

Segment 3:

Potential/V, Current/A

-0.200, 1.950e-8
-0.199, 1.888e-8
-0.198, 1.870e-8
-0.197, 1.861e-8
-0.196, 1.845e-8
-0.195, 1.845e-8
-0.194, 1.832e-8
-0.193, 1.825e-8
-0.192, 1.822e-8
-0.191, 1.809e-8
-0.190, 1.809e-8
-0.189, 1.798e-8
-0.188, 1.792e-8
-0.187, 1.790e-8
-0.186, 1.777e-8
-0.185, 1.777e-8
-0.184, 1.767e-8
-0.183, 1.762e-8
-0.182, 1.759e-8
-0.181, 1.747e-8
-0.180, 1.748e-8
-0.179, 1.737e-8
-0.178, 1.733e-8
-0.177, 1.729e-8
-0.176, 1.718e-8
-0.175, 1.719e-8
-0.174, 1.708e-8
-0.173, 1.704e-8
-0.172, 1.702e-8
-0.171, 1.690e-8
-0.170, 1.692e-8
-0.169, 1.681e-8
-0.168, 1.677e-8
-0.167, 1.674e-8
-0.166, 1.662e-8
-0.165, 1.664e-8
-0.164, 1.653e-8
-0.163, 1.649e-8
-0.162, 1.647e-8
-0.161, 1.634e-8
-0.160, 1.637e-8
-0.159, 1.625e-8
-0.158, 1.621e-8
-0.157, 1.619e-8
-0.156, 1.606e-8
-0.155, 1.608e-8
-0.154, 1.598e-8
-0.153, 1.593e-8
-0.152, 1.592e-8
-0.151, 1.579e-8
-0.150, 1.581e-8
-0.149, 1.571e-8
-0.148, 1.567e-8
-0.147, 1.565e-8
-0.146, 1.553e-8
-0.145, 1.554e-8
-0.144, 1.545e-8
-0.143, 1.539e-8
-0.142, 1.538e-8
-0.141, 1.526e-8
-0.140, 1.527e-8
-0.139, 1.517e-8
-0.138, 1.513e-8
-0.137, 1.510e-8
-0.136, 1.499e-8
-0.135, 1.500e-8
-0.134, 1.490e-8
-0.133, 1.486e-8
-0.132, 1.483e-8
-0.131, 1.472e-8
-0.130, 1.473e-8
-0.129, 1.463e-8
-0.128, 1.458e-8
-0.127, 1.456e-8
-0.126, 1.444e-8
-0.125, 1.445e-8
-0.124, 1.435e-8
-0.123, 1.430e-8
-0.122, 1.428e-8
-0.121, 1.416e-8
-0.120, 1.418e-8
-0.119, 1.407e-8
-0.118, 1.402e-8
-0.117, 1.401e-8
-0.116, 1.387e-8
-0.115, 1.389e-8
-0.114, 1.379e-8
-0.113, 1.373e-8
-0.112, 1.372e-8
-0.111, 1.359e-8
-0.110, 1.360e-8
-0.109, 1.350e-8
-0.108, 1.344e-8
-0.107, 1.342e-8
-0.106, 1.329e-8
-0.105, 1.330e-8
-0.104, 1.320e-8
-0.103, 1.314e-8
-0.102, 1.311e-8
-0.101, 1.299e-8
-0.100, 1.299e-8
-0.099, 1.289e-8
-0.098, 1.283e-8
-0.097, 1.280e-8
-0.096, 1.267e-8
-0.095, 1.267e-8
-0.094, 1.256e-8
-0.093, 1.250e-8
-0.092, 1.247e-8
-0.091, 1.235e-8
-0.090, 1.234e-8
-0.089, 1.224e-8
-0.088, 1.218e-8
-0.087, 1.214e-8
-0.086, 1.201e-8
-0.085, 1.201e-8
-0.084, 1.189e-8
-0.083, 1.183e-8
-0.082, 1.179e-8
-0.081, 1.165e-8
-0.080, 1.164e-8
-0.079, 1.152e-8
-0.078, 1.144e-8
-0.077, 1.141e-8
-0.076, 1.126e-8
-0.075, 1.125e-8
-0.074, 1.113e-8
-0.073, 1.105e-8
-0.072, 1.101e-8
-0.071, 1.086e-8
-0.070, 1.084e-8
-0.069, 1.072e-8
-0.068, 1.063e-8
-0.067, 1.059e-8
-0.066, 1.043e-8
-0.065, 1.040e-8
-0.064, 1.027e-8
-0.063, 1.017e-8
-0.062, 1.012e-8
-0.061, 9.961e-9
-0.060, 9.924e-9
-0.059, 9.786e-9
-0.058, 9.679e-9
-0.057, 9.613e-9
-0.056, 9.448e-9
-0.055, 9.403e-9
-0.054, 9.252e-9
-0.053, 9.137e-9
-0.052, 9.060e-9
-0.051, 8.876e-9
-0.050, 8.830e-9
-0.049, 8.661e-9
-0.048, 8.535e-9
-0.047, 8.443e-9
-0.046, 8.249e-9
-0.045, 8.184e-9
-0.044, 8.000e-9
-0.043, 7.865e-9
-0.042, 7.769e-9
-0.041, 7.552e-9
-0.040, 7.472e-9
-0.039, 7.276e-9
-0.038, 7.120e-9
-0.037, 7.008e-9
-0.036, 6.773e-9
-0.035, 6.681e-9
-0.034, 6.468e-9
-0.033, 6.294e-9
-0.032, 6.163e-9
-0.031, 5.905e-9
-0.030, 5.789e-9
-0.029, 5.563e-9
-0.028, 5.352e-9
-0.027, 5.207e-9
-0.026, 4.925e-9
-0.025, 4.772e-9
-0.024, 4.524e-9
-0.023, 4.300e-9
-0.022, 4.113e-9
-0.021, 3.821e-9
-0.020, 3.639e-9
-0.019, 3.369e-9
-0.018, 3.110e-9
-0.017, 2.890e-9
-0.016, 2.568e-9
-0.015, 2.357e-9
-0.014, 2.049e-9
-0.013, 1.755e-9
-0.012, 1.494e-9
-0.011, 1.141e-9
-0.010, 8.978e-10
-0.009, 5.323e-10
-0.008, 2.128e-10
-0.007, -8.484e-11
-0.006, -4.810e-10
-0.005, -7.631e-10
-0.004, -1.155e-9
-0.003, -1.516e-9
-0.002, -1.856e-9
-0.001, -2.302e-9
-0.000, -2.713e-9
0.001, -3.136e-9
0.002, -3.519e-9
0.003, -3.875e-9
0.004, -4.369e-9
0.005, -4.731e-9
0.006, -5.206e-9
0.007, -5.673e-9
0.008, -6.094e-9
0.009, -6.636e-9
0.010, -7.044e-9
0.011, -7.571e-9
0.012, -8.099e-9
0.013, -8.556e-9
0.014, -9.148e-9
0.015, -9.617e-9
0.016, -1.017e-8
0.017, -1.074e-8
0.018, -1.123e-8
0.019, -1.185e-8
0.020, -1.238e-8
0.021, -1.297e-8
0.022, -1.357e-8
0.023, -1.412e-8
0.024, -1.477e-8
0.025, -1.535e-8
0.026, -1.600e-8
0.027, -1.662e-8
0.028, -1.720e-8
0.029, -1.787e-8
0.030, -1.845e-8
0.031, -1.912e-8
0.032, -1.974e-8
0.033, -2.035e-8
0.034, -2.104e-8
0.035, -2.163e-8
0.036, -2.230e-8
0.037, -2.294e-8
0.038, -2.355e-8
0.039, -2.426e-8
0.040, -2.483e-8
0.041, -2.550e-8
0.042, -2.612e-8
0.043, -2.670e-8
0.044, -2.739e-8
0.045, -2.792e-8
0.046, -2.856e-8
0.047, -2.917e-8
0.048, -2.970e-8
0.049, -3.036e-8
0.050, -3.085e-8
0.051, -3.145e-8
0.052, -3.204e-8
0.053, -3.250e-8
0.054, -3.308e-8
0.055, -3.355e-8
0.056, -3.405e-8
0.057, -3.456e-8
0.058, -3.497e-8
0.059, -3.547e-8
0.060, -3.587e-8
0.061, -3.630e-8
0.062, -3.673e-8
0.063, -3.708e-8
0.064, -3.751e-8
0.065, -3.783e-8
0.066, -3.818e-8
0.067, -3.851e-8
0.068, -3.880e-8
0.069, -3.913e-8
0.070, -3.937e-8
0.071, -3.966e-8
0.072, -3.989e-8
0.073, -4.009e-8
0.074, -4.037e-8
0.075, -4.051e-8
0.076, -4.073e-8
0.077, -4.091e-8
0.078, -4.102e-8
0.079, -4.123e-8
0.080, -4.128e-8
0.081, -4.144e-8
0.082, -4.154e-8
0.083, -4.158e-8
0.084, -4.173e-8
0.085, -4.172e-8
0.086, -4.182e-8
0.087, -4.187e-8
0.088, -4.185e-8
0.089, -4.195e-8
0.090, -4.190e-8
0.091, -4.194e-8
0.092, -4.196e-8
0.093, -4.188e-8
0.094, -4.193e-8
0.095, -4.186e-8
0.096, -4.184e-8
0.097, -4.183e-8
0.098, -4.172e-8
0.099, -4.174e-8
0.100, -4.164e-8
0.101, -4.160e-8
0.102, -4.157e-8
0.103, -4.146e-8
0.104, -4.145e-8
0.105, -4.133e-8
0.106, -4.127e-8
0.107, -4.120e-8
0.108, -4.109e-8
0.109, -4.106e-8
0.110, -4.093e-8
0.111, -4.087e-8
0.112, -4.079e-8
0.113, -4.067e-8
0.114, -4.064e-8
0.115, -4.050e-8
0.116, -4.045e-8
0.117, -4.037e-8
0.118, -4.024e-8
0.119, -4.022e-8
0.120, -4.007e-8
0.121, -4.002e-8
0.122, -3.995e-8
0.123, -3.982e-8
0.124, -3.981e-8
0.125, -3.966e-8
0.126, -3.962e-8
0.127, -3.957e-8
0.128, -3.944e-8
0.129, -3.944e-8
0.130, -3.931e-8
0.131, -3.926e-8
0.132, -3.922e-8
0.133, -3.909e-8
0.134, -3.910e-8
0.135, -3.899e-8
0.136, -3.895e-8
0.137, -3.892e-8
0.138, -3.880e-8
0.139, -3.882e-8
0.140, -3.872e-8
0.141, -3.869e-8
0.142, -3.867e-8
0.143, -3.858e-8
0.144, -3.860e-8
0.145, -3.852e-8
0.146, -3.850e-8
0.147, -3.848e-8
0.148, -3.841e-8
0.149, -3.845e-8
0.150, -3.837e-8
0.151, -3.838e-8
0.152, -3.837e-8
0.153, -3.830e-8
0.154, -3.836e-8
0.155, -3.829e-8
0.156, -3.831e-8
0.157, -3.831e-8
0.158, -3.825e-8
0.159, -3.833e-8
0.160, -3.826e-8
0.161, -3.830e-8
0.162, -3.832e-8
0.163, -3.827e-8
0.164, -3.836e-8
0.165, -3.830e-8
0.166, -3.834e-8
0.167, -3.839e-8
0.168, -3.834e-8
0.169, -3.844e-8
0.170, -3.840e-8
0.171, -3.845e-8
0.172, -3.850e-8
0.173, -3.847e-8
0.174, -3.857e-8
0.175, -3.855e-8
0.176, -3.860e-8
0.177, -3.866e-8
0.178, -3.864e-8
0.179, -3.876e-8
0.180, -3.875e-8
0.181, -3.882e-8
0.182, -3.889e-8
0.183, -3.888e-8
0.184, -3.900e-8
0.185, -3.899e-8
0.186, -3.907e-8
0.187, -3.915e-8
0.188, -3.916e-8
0.189, -3.928e-8
0.190, -3.928e-8
0.191, -3.937e-8
0.192, -3.946e-8
0.193, -3.947e-8
0.194, -3.960e-8
0.195, -3.961e-8
0.196, -3.971e-8
0.197, -3.980e-8
0.198, -3.982e-8
0.199, -3.997e-8
0.200, -3.998e-8
0.201, -4.008e-8
0.202, -4.018e-8
0.203, -4.020e-8
0.204, -4.036e-8
0.205, -4.039e-8
0.206, -4.050e-8
0.207, -4.061e-8
0.208, -4.063e-8
0.209, -4.079e-8
0.210, -4.083e-8
0.211, -4.093e-8
0.212, -4.105e-8
0.213, -4.108e-8
0.214, -4.125e-8
0.215, -4.129e-8
0.216, -4.139e-8
0.217, -4.152e-8
0.218, -4.156e-8
0.219, -4.173e-8
0.220, -4.178e-8
0.221, -4.189e-8
0.222, -4.202e-8
0.223, -4.207e-8
0.224, -4.223e-8
0.225, -4.228e-8
0.226, -4.241e-8
0.227, -4.254e-8
0.228, -4.259e-8
0.229, -4.276e-8
0.230, -4.282e-8
0.231, -4.295e-8
0.232, -4.307e-8
0.233, -4.313e-8
0.234, -4.331e-8
0.235, -4.336e-8
0.236, -4.350e-8
0.237, -4.363e-8
0.238, -4.369e-8
0.239, -4.388e-8
0.240, -4.393e-8
0.241, -4.407e-8
0.242, -4.421e-8
0.243, -4.427e-8
0.244, -4.446e-8
0.245, -4.451e-8
0.246, -4.466e-8
0.247, -4.480e-8
0.248, -4.485e-8
0.249, -4.505e-8
0.250, -4.511e-8
0.251, -4.525e-8
0.252, -4.540e-8
0.253, -4.545e-8
0.254, -4.565e-8
0.255, -4.572e-8
0.256, -4.587e-8
0.257, -4.602e-8
0.258, -4.608e-8
0.259, -4.627e-8
0.260, -4.635e-8
0.261, -4.648e-8
0.262, -4.664e-8
0.263, -4.671e-8
0.264, -4.691e-8
0.265, -4.698e-8
0.266, -4.713e-8
0.267, -4.728e-8
0.268, -4.735e-8
0.269, -4.754e-8
0.270, -4.763e-8
0.271, -4.777e-8
0.272, -4.792e-8
0.273, -4.800e-8
0.274, -4.820e-8
0.275, -4.827e-8
0.276, -4.842e-8
0.277, -4.857e-8
0.278, -4.864e-8
0.279, -4.885e-8
0.280, -4.892e-8
0.281, -4.908e-8
0.282, -4.925e-8
0.283, -4.932e-8
0.284, -4.952e-8
0.285, -4.959e-8
0.286, -4.975e-8
0.287, -4.992e-8
0.288, -4.999e-8
0.289, -5.020e-8
0.290, -5.029e-8
0.291, -5.043e-8
0.292, -5.061e-8
0.293, -5.068e-8
0.294, -5.089e-8
0.295, -5.098e-8
0.296, -5.113e-8
0.297, -5.130e-8
0.298, -5.138e-8
0.299, -5.159e-8
0.300, -5.026e-8
0.299, -4.704e-8
0.298, -4.530e-8
0.297, -4.399e-8
0.296, -4.303e-8
0.295, -4.205e-8
0.294, -4.123e-8
0.293, -4.049e-8
0.292, -3.970e-8
0.291, -3.911e-8
0.290, -3.840e-8
0.289, -3.782e-8
0.288, -3.729e-8
0.287, -3.667e-8
0.286, -3.624e-8
0.285, -3.569e-8
0.284, -3.523e-8
0.283, -3.481e-8
0.282, -3.430e-8
0.281, -3.394e-8
0.280, -3.349e-8
0.279, -3.311e-8
0.278, -3.277e-8
0.277, -3.234e-8
0.276, -3.204e-8
0.275, -3.165e-8
0.274, -3.133e-8
0.273, -3.102e-8
0.272, -3.064e-8
0.271, -3.040e-8
0.270, -3.005e-8
0.269, -2.976e-8
0.268, -2.950e-8
0.267, -2.915e-8
0.266, -2.894e-8
0.265, -2.862e-8
0.264, -2.837e-8
0.263, -2.814e-8
0.262, -2.782e-8
0.261, -2.763e-8
0.260, -2.733e-8
0.259, -2.711e-8
0.258, -2.690e-8
0.257, -2.660e-8
0.256, -2.644e-8
0.255, -2.615e-8
0.254, -2.595e-8
0.253, -2.576e-8
0.252, -2.547e-8
0.251, -2.534e-8
0.250, -2.507e-8
0.249, -2.487e-8
0.248, -2.470e-8
0.247, -2.442e-8
0.246, -2.429e-8
0.245, -2.404e-8
0.244, -2.385e-8
0.243, -2.369e-8
0.242, -2.343e-8
0.241, -2.330e-8
0.240, -2.307e-8
0.239, -2.288e-8
0.238, -2.273e-8
0.237, -2.247e-8
0.236, -2.236e-8
0.235, -2.212e-8
0.234, -2.195e-8
0.233, -2.180e-8
0.232, -2.156e-8
0.231, -2.144e-8
0.230, -2.122e-8
0.229, -2.106e-8
0.228, -2.091e-8
0.227, -2.068e-8
0.226, -2.057e-8
0.225, -2.036e-8
0.224, -2.020e-8
0.223, -2.006e-8
0.222, -1.983e-8
0.221, -1.973e-8
0.220, -1.951e-8
0.219, -1.936e-8
0.218, -1.922e-8
0.217, -1.900e-8
0.216, -1.891e-8
0.215, -1.869e-8
0.214, -1.855e-8
0.213, -1.842e-8
0.212, -1.819e-8
0.211, -1.811e-8
0.210, -1.790e-8
0.209, -1.775e-8
0.208, -1.763e-8
0.207, -1.740e-8
0.206, -1.732e-8
0.205, -1.711e-8
0.204, -1.696e-8
0.203, -1.686e-8
0.202, -1.663e-8
0.201, -1.655e-8
0.200, -1.636e-8
0.199, -1.621e-8
0.198, -1.610e-8
0.197, -1.588e-8
0.196, -1.580e-8
0.195, -1.561e-8
0.194, -1.547e-8
0.193, -1.535e-8
0.192, -1.514e-8
0.191, -1.506e-8
0.190, -1.487e-8
0.189, -1.473e-8
0.188, -1.463e-8
0.187, -1.443e-8
0.186, -1.435e-8
0.185, -1.417e-8
0.184, -1.404e-8
0.183, -1.393e-8
0.182, -1.373e-8
0.181, -1.366e-8
0.180, -1.347e-8
0.179, -1.335e-8
0.178, -1.325e-8
0.177, -1.305e-8
0.176, -1.299e-8
0.175, -1.280e-8
0.174, -1.269e-8
0.173, -1.259e-8
0.172, -1.238e-8
0.171, -1.233e-8
0.170, -1.215e-8
0.169, -1.203e-8
0.168, -1.194e-8
0.167, -1.174e-8
0.166, -1.168e-8
0.165, -1.150e-8
0.164, -1.138e-8
0.163, -1.130e-8
0.162, -1.110e-8
0.161, -1.105e-8
0.160, -1.087e-8
0.159, -1.075e-8
0.158, -1.067e-8
0.157, -1.047e-8
0.156, -1.041e-8
0.155, -1.025e-8
0.154, -1.012e-8
0.153, -1.003e-8
0.152, -9.837e-9
0.151, -9.774e-9
0.150, -9.609e-9
0.149, -9.485e-9
0.148, -9.386e-9
0.147, -9.201e-9
0.146, -9.133e-9
0.145, -8.959e-9
0.144, -8.836e-9
0.143, -8.737e-9
0.142, -8.538e-9
0.141, -8.468e-9
0.140, -8.288e-9
0.139, -8.162e-9
0.138, -8.057e-9
0.137, -7.854e-9
0.136, -7.786e-9
0.135, -7.591e-9
0.134, -7.457e-9
0.133, -7.347e-9
0.132, -7.122e-9
0.131, -7.041e-9
0.130, -6.838e-9
0.129, -6.688e-9
0.128, -6.560e-9
0.127, -6.327e-9
0.126, -6.240e-9
0.125, -6.025e-9
0.124, -5.854e-9
0.123, -5.729e-9
0.122, -5.479e-9
0.121, -5.368e-9
0.120, -5.139e-9
0.119, -4.946e-9
0.118, -4.801e-9
0.117, -4.530e-9
0.116, -4.394e-9
0.115, -4.146e-9
0.114, -3.932e-9
0.113, -3.756e-9
0.112, -3.475e-9
0.111, -3.315e-9
0.110, -3.035e-9
0.109, -2.791e-9
0.108, -2.586e-9
0.107, -2.284e-9
0.106, -2.074e-9
0.105, -1.773e-9
0.104, -1.503e-9
0.103, -1.252e-9
0.102, -9.029e-10
0.101, -6.806e-10
0.100, -3.328e-10
0.099, -3.345e-11
0.098, 2.528e-10
0.097, 6.395e-10
0.096, 9.084e-10
0.095, 1.294e-9
0.094, 1.634e-9
0.093, 1.953e-9
0.092, 2.384e-9
0.091, 2.687e-9
0.090, 3.118e-9
0.089, 3.506e-9
0.088, 3.866e-9
0.087, 4.348e-9
0.086, 4.683e-9
0.085, 5.151e-9
0.084, 5.593e-9
0.083, 5.990e-9
0.082, 6.513e-9
0.081, 6.903e-9
0.080, 7.405e-9
0.079, 7.902e-9
0.078, 8.337e-9
0.077, 8.916e-9
0.076, 9.359e-9
0.075, 9.887e-9
0.074, 1.043e-8
0.073, 1.089e-8
0.072, 1.149e-8
0.071, 1.198e-8
0.070, 1.253e-8
0.069, 1.310e-8
0.068, 1.362e-8
0.067, 1.423e-8
0.066, 1.474e-8
0.065, 1.535e-8
0.064, 1.594e-8
0.063, 1.649e-8
0.062, 1.711e-8
0.061, 1.765e-8
0.060, 1.827e-8
0.059, 1.885e-8
0.058, 1.941e-8
0.057, 2.006e-8
0.056, 2.058e-8
0.055, 2.122e-8
0.054, 2.178e-8
0.053, 2.233e-8
0.052, 2.297e-8
0.051, 2.349e-8
0.050, 2.412e-8
0.049, 2.467e-8
0.048, 2.518e-8
0.047, 2.580e-8
0.046, 2.627e-8
0.045, 2.684e-8
0.044, 2.737e-8
0.043, 2.783e-8
0.042, 2.842e-8
0.041, 2.884e-8
0.040, 2.935e-8
0.039, 2.985e-8
0.038, 3.024e-8
0.037, 3.076e-8
0.036, 3.113e-8
0.035, 3.158e-8
0.034, 3.201e-8
0.033, 3.235e-8
0.032, 3.277e-8
0.031, 3.309e-8
0.030, 3.346e-8
0.029, 3.379e-8
0.028, 3.406e-8
0.027, 3.441e-8
0.026, 3.467e-8
0.025, 3.496e-8
0.024, 3.520e-8
0.023, 3.540e-8
0.022, 3.566e-8
0.021, 3.580e-8
0.020, 3.602e-8
0.019, 3.617e-8
0.018, 3.628e-8
0.017, 3.648e-8
0.016, 3.654e-8
0.015, 3.668e-8
0.014, 3.677e-8
0.013, 3.681e-8
0.012, 3.694e-8
0.011, 3.692e-8
0.010, 3.699e-8
0.009, 3.700e-8
0.008, 3.697e-8
0.007, 3.704e-8
0.006, 3.695e-8
0.005, 3.696e-8
0.004, 3.693e-8
0.003, 3.682e-8
0.002, 3.684e-8
0.001, 3.671e-8
0.000, 3.677e-8
-0.001, 3.669e-8
-0.002, 3.649e-8
-0.003, 3.644e-8
-0.004, 3.626e-8
-0.005, 3.616e-8
-0.006, 3.605e-8
-0.007, 3.587e-8
-0.008, 3.579e-8
-0.009, 3.560e-8
-0.010, 3.547e-8
-0.011, 3.533e-8
-0.012, 3.513e-8
-0.013, 3.503e-8
-0.014, 3.481e-8
-0.015, 3.467e-8
-0.016, 3.450e-8
-0.017, 3.429e-8
-0.018, 3.417e-8
-0.019, 3.394e-8
-0.020, 3.380e-8
-0.021, 3.362e-8
-0.022, 3.340e-8
-0.023, 3.327e-8
-0.024, 3.303e-8
-0.025, 3.289e-8
-0.026, 3.270e-8
-0.027, 3.247e-8
-0.028, 3.236e-8
-0.029, 3.210e-8
-0.030, 3.195e-8
-0.031, 3.177e-8
-0.032, 3.154e-8
-0.033, 3.143e-8
-0.034, 3.117e-8
-0.035, 3.103e-8
-0.036, 3.086e-8
-0.037, 3.064e-8
-0.038, 3.054e-8
-0.039, 3.029e-8
-0.040, 3.016e-8
-0.041, 3.000e-8
-0.042, 2.977e-8
-0.043, 2.968e-8
-0.044, 2.945e-8
-0.045, 2.931e-8
-0.046, 2.917e-8
-0.047, 2.896e-8
-0.048, 2.887e-8
-0.049, 2.866e-8
-0.050, 2.853e-8
-0.051, 2.840e-8
-0.052, 2.820e-8
-0.053, 2.812e-8
-0.054, 2.792e-8
-0.055, 2.781e-8
-0.056, 2.768e-8
-0.057, 2.751e-8
-0.058, 2.743e-8
-0.059, 2.724e-8
-0.060, 2.716e-8
-0.061, 2.703e-8
-0.062, 2.686e-8
-0.063, 2.681e-8
-0.064, 2.663e-8
-0.065, 2.656e-8
-0.066, 2.645e-8
-0.067, 2.629e-8
-0.068, 2.626e-8
-0.069, 2.608e-8
-0.070, 2.602e-8
-0.071, 2.593e-8
-0.072, 2.579e-8
-0.073, 2.577e-8
-0.074, 2.561e-8
-0.075, 2.555e-8
-0.076, 2.548e-8
-0.077, 2.535e-8
-0.078, 2.534e-8
-0.079, 2.520e-8
-0.080, 2.515e-8
-0.081, 2.510e-8
-0.082, 2.498e-8
-0.083, 2.498e-8
-0.084, 2.486e-8
-0.085, 2.483e-8
-0.086, 2.478e-8
-0.087, 2.468e-8
-0.088, 2.469e-8
-0.089, 2.458e-8
-0.090, 2.457e-8
-0.091, 2.453e-8
-0.092, 2.444e-8
-0.093, 2.447e-8
-0.094, 2.436e-8
-0.095, 2.437e-8
-0.096, 2.434e-8
-0.097, 2.426e-8
-0.098, 2.431e-8
-0.099, 2.421e-8
-0.100, 2.423e-8
-0.101, 2.421e-8
-0.102, 2.415e-8
-0.103, 2.421e-8
-0.104, 2.413e-8
-0.105, 2.416e-8
-0.106, 2.415e-8
-0.107, 2.410e-8
-0.108, 2.417e-8
-0.109, 2.410e-8
-0.110, 2.414e-8
-0.111, 2.415e-8
-0.112, 2.411e-8
-0.113, 2.419e-8
-0.114, 2.413e-8
-0.115, 2.419e-8
-0.116, 2.421e-8
-0.117, 2.417e-8
-0.118, 2.427e-8
-0.119, 2.423e-8
-0.120, 2.429e-8
-0.121, 2.433e-8
-0.122, 2.430e-8
-0.123, 2.440e-8
-0.124, 2.437e-8
-0.125, 2.443e-8
-0.126, 2.449e-8
-0.127, 2.447e-8
-0.128, 2.459e-8
-0.129, 2.457e-8
-0.130, 2.464e-8
-0.131, 2.470e-8
-0.132, 2.470e-8
-0.133, 2.481e-8
-0.134, 2.480e-8
-0.135, 2.489e-8
-0.136, 2.495e-8
-0.137, 2.496e-8
-0.138, 2.508e-8
-0.139, 2.508e-8
-0.140, 2.517e-8
-0.141, 2.524e-8
-0.142, 2.526e-8
-0.143, 2.539e-8
-0.144, 2.539e-8
-0.145, 2.549e-8
-0.146, 2.557e-8
-0.147, 2.558e-8
-0.148, 2.573e-8
-0.149, 2.574e-8
-0.150, 2.585e-8
-0.151, 2.593e-8
-0.152, 2.595e-8
-0.153, 2.611e-8
-0.154, 2.612e-8
-0.155, 2.623e-8
-0.156, 2.633e-8
-0.157, 2.635e-8
-0.158, 2.651e-8
-0.159, 2.653e-8
-0.160, 2.664e-8
-0.161, 2.674e-8
-0.162, 2.677e-8
-0.163, 2.693e-8
-0.164, 2.697e-8
-0.165, 2.708e-8
-0.166, 2.719e-8
-0.167, 2.723e-8
-0.168, 2.739e-8
-0.169, 2.743e-8
-0.170, 2.754e-8
-0.171, 2.765e-8
-0.172, 2.769e-8
-0.173, 2.785e-8
-0.174, 2.790e-8
-0.175, 2.802e-8
-0.176, 2.813e-8
-0.177, 2.818e-8
-0.178, 2.834e-8
-0.179, 2.839e-8
-0.180, 2.852e-8
-0.181, 2.864e-8
-0.182, 2.869e-8
-0.183, 2.886e-8
-0.184, 2.890e-8
-0.185, 2.904e-8
-0.186, 2.915e-8
-0.187, 2.920e-8
-0.188, 2.939e-8
-0.189, 2.942e-8
-0.190, 2.956e-8
-0.191, 2.968e-8
-0.192, 2.974e-8
-0.193, 2.993e-8
-0.194, 2.997e-8
-0.195, 3.011e-8
-0.196, 3.023e-8
-0.197, 3.029e-8
-0.198, 3.047e-8
-0.199, 3.052e-8
