Mar. 16, 2023   09:47:18
Cyclic Voltammetry
File: c:/users/oliverrz/desktop/electrolab/data/2023_03_16\fcmeoh_macros_750_um\electrode4_cv_150mvs_750_um.bin
Data Source:  Experiment
Instrument Model:  CHI760E
Header: CV
Note: 

Init E (V) = -0.2
High E (V) = 0.3
Low E (V) = -0.2
Final E (V) = -0.2
Init P/N = P
Scan Rate (V/s) = 0.15
Segment = 3
Sample Interval (V) = 0.001
Quiet Time (sec) = 2
Sensitivity (A/V) = 1e-7

Results:

Channel 1:
Segment 1:
Ep = 0.104V
ip = -5.711e-8A
Ah = -2.285e-8C

Segment 2:
Ep = 0.042V
ip = 5.571e-8A
Ah = 2.344e-8C

Segment 3:

Potential/V, Current/A

-0.200, 1.006e-8
-0.199, 9.188e-9
-0.198, 8.882e-9
-0.197, 8.907e-9
-0.196, 8.513e-9
-0.195, 8.553e-9
-0.194, 8.343e-9
-0.193, 8.139e-9
-0.192, 8.180e-9
-0.191, 7.853e-9
-0.190, 7.907e-9
-0.189, 7.717e-9
-0.188, 7.526e-9
-0.187, 7.601e-9
-0.186, 7.270e-9
-0.185, 7.333e-9
-0.184, 7.173e-9
-0.183, 6.998e-9
-0.182, 7.058e-9
-0.181, 6.750e-9
-0.180, 6.817e-9
-0.179, 6.648e-9
-0.178, 6.498e-9
-0.177, 6.560e-9
-0.176, 6.263e-9
-0.175, 6.355e-9
-0.174, 6.166e-9
-0.173, 6.035e-9
-0.172, 6.115e-9
-0.171, 5.791e-9
-0.170, 5.917e-9
-0.169, 5.719e-9
-0.168, 5.595e-9
-0.167, 5.685e-9
-0.166, 5.368e-9
-0.165, 5.486e-9
-0.164, 5.317e-9
-0.163, 5.177e-9
-0.162, 5.291e-9
-0.161, 4.963e-9
-0.160, 5.097e-9
-0.159, 4.937e-9
-0.158, 4.788e-9
-0.157, 4.901e-9
-0.156, 4.595e-9
-0.155, 4.713e-9
-0.154, 4.566e-9
-0.153, 4.419e-9
-0.152, 4.544e-9
-0.151, 4.254e-9
-0.150, 4.359e-9
-0.149, 4.227e-9
-0.148, 4.086e-9
-0.147, 4.208e-9
-0.146, 3.914e-9
-0.145, 4.027e-9
-0.144, 3.898e-9
-0.143, 3.776e-9
-0.142, 3.871e-9
-0.141, 3.601e-9
-0.140, 3.731e-9
-0.139, 3.576e-9
-0.138, 3.478e-9
-0.137, 3.570e-9
-0.136, 3.304e-9
-0.135, 3.446e-9
-0.134, 3.276e-9
-0.133, 3.184e-9
-0.132, 3.294e-9
-0.131, 3.022e-9
-0.130, 3.153e-9
-0.129, 3.004e-9
-0.128, 2.901e-9
-0.127, 3.022e-9
-0.126, 2.736e-9
-0.125, 2.895e-9
-0.124, 2.741e-9
-0.123, 2.637e-9
-0.122, 2.771e-9
-0.121, 2.476e-9
-0.120, 2.639e-9
-0.119, 2.503e-9
-0.118, 2.379e-9
-0.117, 2.517e-9
-0.116, 2.247e-9
-0.115, 2.377e-9
-0.114, 2.258e-9
-0.113, 2.141e-9
-0.112, 2.285e-9
-0.111, 2.007e-9
-0.110, 2.151e-9
-0.109, 2.025e-9
-0.108, 1.915e-9
-0.107, 2.056e-9
-0.106, 1.780e-9
-0.105, 1.914e-9
-0.104, 1.809e-9
-0.103, 1.684e-9
-0.102, 1.807e-9
-0.101, 1.564e-9
-0.100, 1.695e-9
-0.099, 1.566e-9
-0.098, 1.482e-9
-0.097, 1.586e-9
-0.096, 1.347e-9
-0.095, 1.497e-9
-0.094, 1.339e-9
-0.093, 1.265e-9
-0.092, 1.391e-9
-0.091, 1.113e-9
-0.090, 1.267e-9
-0.089, 1.139e-9
-0.088, 1.045e-9
-0.087, 1.175e-9
-0.086, 9.025e-10
-0.085, 1.052e-9
-0.084, 9.216e-10
-0.083, 8.340e-10
-0.082, 9.503e-10
-0.081, 6.693e-10
-0.080, 8.549e-10
-0.079, 6.990e-10
-0.078, 5.901e-10
-0.077, 7.412e-10
-0.076, 4.513e-10
-0.075, 6.028e-10
-0.074, 4.846e-10
-0.073, 3.526e-10
-0.072, 5.046e-10
-0.071, 2.384e-10
-0.070, 3.636e-10
-0.069, 2.409e-10
-0.068, 1.420e-10
-0.067, 2.582e-10
-0.066, -7.083e-12
-0.065, 1.254e-10
-0.064, -8.709e-12
-0.063, -1.109e-10
-0.062, 5.852e-12
-0.061, -2.604e-10
-0.060, -1.325e-10
-0.059, -2.654e-10
-0.058, -3.687e-10
-0.057, -2.844e-10
-0.056, -5.233e-10
-0.055, -4.032e-10
-0.054, -5.626e-10
-0.053, -6.514e-10
-0.052, -5.642e-10
-0.051, -8.469e-10
-0.050, -7.021e-10
-0.049, -8.871e-10
-0.048, -9.811e-10
-0.047, -8.604e-10
-0.046, -1.187e-9
-0.045, -1.048e-9
-0.044, -1.208e-9
-0.043, -1.336e-9
-0.042, -1.241e-9
-0.041, -1.551e-9
-0.040, -1.418e-9
-0.039, -1.605e-9
-0.038, -1.745e-9
-0.037, -1.648e-9
-0.036, -1.973e-9
-0.035, -1.862e-9
-0.034, -2.047e-9
-0.033, -2.211e-9
-0.032, -2.112e-9
-0.031, -2.444e-9
-0.030, -2.370e-9
-0.029, -2.543e-9
-0.028, -2.722e-9
-0.027, -2.669e-9
-0.026, -3.006e-9
-0.025, -2.943e-9
-0.024, -3.148e-9
-0.023, -3.321e-9
-0.022, -3.300e-9
-0.021, -3.649e-9
-0.020, -3.584e-9
-0.019, -3.821e-9
-0.018, -4.013e-9
-0.017, -4.027e-9
-0.016, -4.384e-9
-0.015, -4.367e-9
-0.014, -4.629e-9
-0.013, -4.842e-9
-0.012, -4.865e-9
-0.011, -5.262e-9
-0.010, -5.264e-9
-0.009, -5.577e-9
-0.008, -5.790e-9
-0.007, -5.848e-9
-0.006, -6.309e-9
-0.005, -6.313e-9
-0.004, -6.657e-9
-0.003, -6.934e-9
-0.002, -7.010e-9
-0.001, -7.503e-9
-0.000, -7.692e-9
0.001, -7.963e-9
0.002, -8.296e-9
0.003, -8.410e-9
0.004, -8.920e-9
0.005, -9.039e-9
0.006, -9.435e-9
0.007, -9.829e-9
0.008, -9.973e-9
0.009, -1.054e-8
0.010, -1.072e-8
0.011, -1.116e-8
0.012, -1.160e-8
0.013, -1.182e-8
0.014, -1.242e-8
0.015, -1.267e-8
0.016, -1.316e-8
0.017, -1.363e-8
0.018, -1.395e-8
0.019, -1.457e-8
0.020, -1.489e-8
0.021, -1.546e-8
0.022, -1.599e-8
0.023, -1.638e-8
0.024, -1.706e-8
0.025, -1.746e-8
0.026, -1.810e-8
0.027, -1.868e-8
0.028, -1.911e-8
0.029, -1.987e-8
0.030, -2.029e-8
0.031, -2.102e-8
0.032, -2.164e-8
0.033, -2.218e-8
0.034, -2.303e-8
0.035, -2.347e-8
0.036, -2.430e-8
0.037, -2.500e-8
0.038, -2.555e-8
0.039, -2.650e-8
0.040, -2.699e-8
0.041, -2.783e-8
0.042, -2.864e-8
0.043, -2.922e-8
0.044, -3.020e-8
0.045, -3.080e-8
0.046, -3.165e-8
0.047, -3.253e-8
0.048, -3.313e-8
0.049, -3.414e-8
0.050, -3.481e-8
0.051, -3.570e-8
0.052, -3.659e-8
0.053, -3.724e-8
0.054, -3.825e-8
0.055, -3.895e-8
0.056, -3.983e-8
0.057, -4.070e-8
0.058, -4.143e-8
0.059, -4.240e-8
0.060, -4.310e-8
0.061, -4.398e-8
0.062, -4.481e-8
0.063, -4.556e-8
0.064, -4.650e-8
0.065, -4.715e-8
0.066, -4.808e-8
0.067, -4.881e-8
0.068, -4.951e-8
0.069, -5.038e-8
0.070, -5.096e-8
0.071, -5.182e-8
0.072, -5.249e-8
0.073, -5.313e-8
0.074, -5.396e-8
0.075, -5.445e-8
0.076, -5.525e-8
0.077, -5.586e-8
0.078, -5.636e-8
0.079, -5.717e-8
0.080, -5.748e-8
0.081, -5.814e-8
0.082, -5.872e-8
0.083, -5.905e-8
0.084, -5.972e-8
0.085, -5.999e-8
0.086, -6.052e-8
0.087, -6.098e-8
0.088, -6.121e-8
0.089, -6.176e-8
0.090, -6.195e-8
0.091, -6.234e-8
0.092, -6.269e-8
0.093, -6.277e-8
0.094, -6.320e-8
0.095, -6.330e-8
0.096, -6.352e-8
0.097, -6.376e-8
0.098, -6.379e-8
0.099, -6.406e-8
0.100, -6.405e-8
0.101, -6.420e-8
0.102, -6.432e-8
0.103, -6.427e-8
0.104, -6.444e-8
0.105, -6.429e-8
0.106, -6.438e-8
0.107, -6.434e-8
0.108, -6.420e-8
0.109, -6.430e-8
0.110, -6.405e-8
0.111, -6.409e-8
0.112, -6.398e-8
0.113, -6.373e-8
0.114, -6.380e-8
0.115, -6.349e-8
0.116, -6.344e-8
0.117, -6.328e-8
0.118, -6.293e-8
0.119, -6.298e-8
0.120, -6.257e-8
0.121, -6.250e-8
0.122, -6.230e-8
0.123, -6.192e-8
0.124, -6.192e-8
0.125, -6.147e-8
0.126, -6.134e-8
0.127, -6.116e-8
0.128, -6.074e-8
0.129, -6.068e-8
0.130, -6.025e-8
0.131, -6.007e-8
0.132, -5.986e-8
0.133, -5.943e-8
0.134, -5.934e-8
0.135, -5.891e-8
0.136, -5.871e-8
0.137, -5.847e-8
0.138, -5.806e-8
0.139, -5.796e-8
0.140, -5.753e-8
0.141, -5.733e-8
0.142, -5.710e-8
0.143, -5.667e-8
0.144, -5.658e-8
0.145, -5.613e-8
0.146, -5.595e-8
0.147, -5.569e-8
0.148, -5.528e-8
0.149, -5.521e-8
0.150, -5.474e-8
0.151, -5.460e-8
0.152, -5.432e-8
0.153, -5.393e-8
0.154, -5.389e-8
0.155, -5.341e-8
0.156, -5.326e-8
0.157, -5.303e-8
0.158, -5.261e-8
0.159, -5.261e-8
0.160, -5.213e-8
0.161, -5.198e-8
0.162, -5.180e-8
0.163, -5.137e-8
0.164, -5.136e-8
0.165, -5.093e-8
0.166, -5.079e-8
0.167, -5.061e-8
0.168, -5.021e-8
0.169, -5.020e-8
0.170, -4.981e-8
0.171, -4.966e-8
0.172, -4.949e-8
0.173, -4.911e-8
0.174, -4.911e-8
0.175, -4.874e-8
0.176, -4.859e-8
0.177, -4.843e-8
0.178, -4.809e-8
0.179, -4.810e-8
0.180, -4.772e-8
0.181, -4.762e-8
0.182, -4.746e-8
0.183, -4.712e-8
0.184, -4.714e-8
0.185, -4.676e-8
0.186, -4.669e-8
0.187, -4.654e-8
0.188, -4.621e-8
0.189, -4.625e-8
0.190, -4.588e-8
0.191, -4.583e-8
0.192, -4.569e-8
0.193, -4.536e-8
0.194, -4.544e-8
0.195, -4.506e-8
0.196, -4.502e-8
0.197, -4.490e-8
0.198, -4.459e-8
0.199, -4.468e-8
0.200, -4.431e-8
0.201, -4.427e-8
0.202, -4.419e-8
0.203, -4.386e-8
0.204, -4.397e-8
0.205, -4.363e-8
0.206, -4.359e-8
0.207, -4.351e-8
0.208, -4.320e-8
0.209, -4.329e-8
0.210, -4.299e-8
0.211, -4.294e-8
0.212, -4.287e-8
0.213, -4.259e-8
0.214, -4.269e-8
0.215, -4.238e-8
0.216, -4.235e-8
0.217, -4.229e-8
0.218, -4.202e-8
0.219, -4.211e-8
0.220, -4.182e-8
0.221, -4.181e-8
0.222, -4.174e-8
0.223, -4.149e-8
0.224, -4.159e-8
0.225, -4.130e-8
0.226, -4.131e-8
0.227, -4.123e-8
0.228, -4.099e-8
0.229, -4.111e-8
0.230, -4.081e-8
0.231, -4.084e-8
0.232, -4.077e-8
0.233, -4.053e-8
0.234, -4.067e-8
0.235, -4.037e-8
0.236, -4.039e-8
0.237, -4.034e-8
0.238, -4.010e-8
0.239, -4.025e-8
0.240, -3.995e-8
0.241, -3.998e-8
0.242, -3.996e-8
0.243, -3.971e-8
0.244, -3.986e-8
0.245, -3.958e-8
0.246, -3.961e-8
0.247, -3.959e-8
0.248, -3.934e-8
0.249, -3.950e-8
0.250, -3.924e-8
0.251, -3.925e-8
0.252, -3.924e-8
0.253, -3.901e-8
0.254, -3.917e-8
0.255, -3.892e-8
0.256, -3.895e-8
0.257, -3.892e-8
0.258, -3.871e-8
0.259, -3.886e-8
0.260, -3.861e-8
0.261, -3.866e-8
0.262, -3.862e-8
0.263, -3.843e-8
0.264, -3.859e-8
0.265, -3.833e-8
0.266, -3.839e-8
0.267, -3.837e-8
0.268, -3.817e-8
0.269, -3.834e-8
0.270, -3.808e-8
0.271, -3.816e-8
0.272, -3.812e-8
0.273, -3.793e-8
0.274, -3.812e-8
0.275, -3.785e-8
0.276, -3.793e-8
0.277, -3.792e-8
0.278, -3.772e-8
0.279, -3.792e-8
0.280, -3.766e-8
0.281, -3.774e-8
0.282, -3.775e-8
0.283, -3.754e-8
0.284, -3.774e-8
0.285, -3.751e-8
0.286, -3.757e-8
0.287, -3.758e-8
0.288, -3.739e-8
0.289, -3.758e-8
0.290, -3.736e-8
0.291, -3.743e-8
0.292, -3.744e-8
0.293, -3.726e-8
0.294, -3.746e-8
0.295, -3.725e-8
0.296, -3.731e-8
0.297, -3.732e-8
0.298, -3.717e-8
0.299, -3.734e-8
0.300, -3.450e-8
0.299, -3.298e-8
0.298, -3.263e-8
0.297, -3.220e-8
0.296, -3.221e-8
0.295, -3.179e-8
0.294, -3.173e-8
0.293, -3.160e-8
0.292, -3.126e-8
0.291, -3.137e-8
0.290, -3.103e-8
0.289, -3.098e-8
0.288, -3.092e-8
0.287, -3.063e-8
0.286, -3.073e-8
0.285, -3.042e-8
0.284, -3.041e-8
0.283, -3.034e-8
0.282, -3.009e-8
0.281, -3.021e-8
0.280, -2.992e-8
0.279, -2.993e-8
0.278, -2.987e-8
0.277, -2.963e-8
0.276, -2.975e-8
0.275, -2.948e-8
0.274, -2.949e-8
0.273, -2.944e-8
0.272, -2.923e-8
0.271, -2.934e-8
0.270, -2.908e-8
0.269, -2.911e-8
0.268, -2.904e-8
0.267, -2.884e-8
0.266, -2.900e-8
0.265, -2.869e-8
0.264, -2.876e-8
0.263, -2.872e-8
0.262, -2.849e-8
0.261, -2.865e-8
0.260, -2.837e-8
0.259, -2.842e-8
0.258, -2.839e-8
0.257, -2.816e-8
0.256, -2.832e-8
0.255, -2.806e-8
0.254, -2.810e-8
0.253, -2.807e-8
0.252, -2.784e-8
0.251, -2.803e-8
0.250, -2.776e-8
0.249, -2.780e-8
0.248, -2.779e-8
0.247, -2.756e-8
0.246, -2.773e-8
0.245, -2.748e-8
0.244, -2.749e-8
0.243, -2.751e-8
0.242, -2.730e-8
0.241, -2.743e-8
0.240, -2.720e-8
0.239, -2.724e-8
0.238, -2.720e-8
0.237, -2.702e-8
0.236, -2.716e-8
0.235, -2.692e-8
0.234, -2.698e-8
0.233, -2.693e-8
0.232, -2.672e-8
0.231, -2.689e-8
0.230, -2.663e-8
0.229, -2.668e-8
0.228, -2.665e-8
0.227, -2.647e-8
0.226, -2.661e-8
0.225, -2.634e-8
0.224, -2.642e-8
0.223, -2.637e-8
0.222, -2.617e-8
0.221, -2.635e-8
0.220, -2.605e-8
0.219, -2.613e-8
0.218, -2.610e-8
0.217, -2.586e-8
0.216, -2.604e-8
0.215, -2.578e-8
0.214, -2.581e-8
0.213, -2.580e-8
0.212, -2.557e-8
0.211, -2.574e-8
0.210, -2.547e-8
0.209, -2.551e-8
0.208, -2.548e-8
0.207, -2.526e-8
0.206, -2.543e-8
0.205, -2.513e-8
0.204, -2.517e-8
0.203, -2.516e-8
0.202, -2.492e-8
0.201, -2.506e-8
0.200, -2.481e-8
0.199, -2.482e-8
0.198, -2.479e-8
0.197, -2.457e-8
0.196, -2.468e-8
0.195, -2.442e-8
0.194, -2.446e-8
0.193, -2.437e-8
0.192, -2.415e-8
0.191, -2.429e-8
0.190, -2.398e-8
0.189, -2.403e-8
0.188, -2.393e-8
0.187, -2.371e-8
0.186, -2.383e-8
0.185, -2.352e-8
0.184, -2.354e-8
0.183, -2.345e-8
0.182, -2.320e-8
0.181, -2.330e-8
0.180, -2.296e-8
0.179, -2.299e-8
0.178, -2.289e-8
0.177, -2.260e-8
0.176, -2.272e-8
0.175, -2.237e-8
0.174, -2.236e-8
0.173, -2.226e-8
0.172, -2.196e-8
0.171, -2.204e-8
0.170, -2.170e-8
0.169, -2.164e-8
0.168, -2.153e-8
0.167, -2.121e-8
0.166, -2.126e-8
0.165, -2.090e-8
0.164, -2.082e-8
0.163, -2.068e-8
0.162, -2.035e-8
0.161, -2.036e-8
0.160, -1.997e-8
0.159, -1.987e-8
0.158, -1.970e-8
0.157, -1.934e-8
0.156, -1.930e-8
0.155, -1.892e-8
0.154, -1.878e-8
0.153, -1.854e-8
0.152, -1.817e-8
0.151, -1.811e-8
0.150, -1.765e-8
0.149, -1.751e-8
0.148, -1.721e-8
0.147, -1.682e-8
0.146, -1.671e-8
0.145, -1.620e-8
0.144, -1.601e-8
0.143, -1.569e-8
0.142, -1.522e-8
0.141, -1.507e-8
0.140, -1.451e-8
0.139, -1.429e-8
0.138, -1.392e-8
0.137, -1.337e-8
0.136, -1.321e-8
0.135, -1.258e-8
0.134, -1.229e-8
0.133, -1.188e-8
0.132, -1.127e-8
0.131, -1.106e-8
0.130, -1.038e-8
0.129, -9.994e-9
0.128, -9.535e-9
0.127, -8.880e-9
0.126, -8.572e-9
0.125, -7.854e-9
0.124, -7.385e-9
0.123, -6.882e-9
0.122, -6.172e-9
0.121, -5.783e-9
0.120, -5.020e-9
0.119, -4.487e-9
0.118, -3.903e-9
0.117, -3.164e-9
0.116, -2.672e-9
0.115, -1.855e-9
0.114, -1.264e-9
0.113, -5.875e-10
0.112, 1.760e-10
0.111, 7.352e-10
0.110, 1.644e-9
0.109, 2.253e-9
0.108, 3.011e-9
0.107, 3.846e-9
0.106, 4.420e-9
0.105, 5.417e-9
0.104, 6.047e-9
0.103, 6.852e-9
0.102, 7.795e-9
0.101, 8.356e-9
0.100, 9.404e-9
0.099, 1.006e-8
0.098, 1.088e-8
0.097, 1.184e-8
0.096, 1.244e-8
0.095, 1.349e-8
0.094, 1.417e-8
0.093, 1.500e-8
0.092, 1.599e-8
0.091, 1.660e-8
0.090, 1.763e-8
0.089, 1.837e-8
0.088, 1.913e-8
0.087, 2.010e-8
0.086, 2.073e-8
0.085, 2.166e-8
0.084, 2.238e-8
0.083, 2.312e-8
0.082, 2.402e-8
0.081, 2.466e-8
0.080, 2.555e-8
0.079, 2.620e-8
0.078, 2.692e-8
0.077, 2.776e-8
0.076, 2.829e-8
0.075, 2.910e-8
0.074, 2.964e-8
0.073, 3.030e-8
0.072, 3.101e-8
0.071, 3.147e-8
0.070, 3.222e-8
0.069, 3.264e-8
0.068, 3.324e-8
0.067, 3.380e-8
0.066, 3.417e-8
0.065, 3.484e-8
0.064, 3.515e-8
0.063, 3.561e-8
0.062, 3.612e-8
0.061, 3.628e-8
0.060, 3.689e-8
0.059, 3.705e-8
0.058, 3.739e-8
0.057, 3.781e-8
0.056, 3.789e-8
0.055, 3.833e-8
0.054, 3.842e-8
0.053, 3.863e-8
0.052, 3.895e-8
0.051, 3.891e-8
0.050, 3.925e-8
0.049, 3.925e-8
0.048, 3.930e-8
0.047, 3.954e-8
0.046, 3.939e-8
0.045, 3.959e-8
0.044, 3.955e-8
0.043, 3.950e-8
0.042, 3.962e-8
0.041, 3.943e-8
0.040, 3.955e-8
0.039, 3.940e-8
0.038, 3.932e-8
0.037, 3.934e-8
0.036, 3.909e-8
0.035, 3.911e-8
0.034, 3.889e-8
0.033, 3.876e-8
0.032, 3.872e-8
0.031, 3.839e-8
0.030, 3.844e-8
0.029, 3.811e-8
0.028, 3.796e-8
0.027, 3.789e-8
0.026, 3.749e-8
0.025, 3.752e-8
0.024, 3.717e-8
0.023, 3.693e-8
0.022, 3.685e-8
0.021, 3.643e-8
0.020, 3.643e-8
0.019, 3.603e-8
0.018, 3.580e-8
0.017, 3.572e-8
0.016, 3.525e-8
0.015, 3.523e-8
0.014, 3.487e-8
0.013, 3.461e-8
0.012, 3.451e-8
0.011, 3.403e-8
0.010, 3.399e-8
0.009, 3.364e-8
0.008, 3.337e-8
0.007, 3.327e-8
0.006, 3.280e-8
0.005, 3.276e-8
0.004, 3.241e-8
0.003, 3.212e-8
0.002, 3.202e-8
0.001, 3.158e-8
0.000, 3.166e-8
-0.001, 3.121e-8
-0.002, 3.095e-8
-0.003, 3.084e-8
-0.004, 3.041e-8
-0.005, 3.036e-8
-0.006, 3.002e-8
-0.007, 2.978e-8
-0.008, 2.968e-8
-0.009, 2.926e-8
-0.010, 2.923e-8
-0.011, 2.889e-8
-0.012, 2.869e-8
-0.013, 2.860e-8
-0.014, 2.817e-8
-0.015, 2.819e-8
-0.016, 2.785e-8
-0.017, 2.765e-8
-0.018, 2.759e-8
-0.019, 2.716e-8
-0.020, 2.720e-8
-0.021, 2.687e-8
-0.022, 2.667e-8
-0.023, 2.664e-8
-0.024, 2.624e-8
-0.025, 2.628e-8
-0.026, 2.598e-8
-0.027, 2.578e-8
-0.028, 2.577e-8
-0.029, 2.536e-8
-0.030, 2.541e-8
-0.031, 2.515e-8
-0.032, 2.495e-8
-0.033, 2.494e-8
-0.034, 2.458e-8
-0.035, 2.462e-8
-0.036, 2.437e-8
-0.037, 2.419e-8
-0.038, 2.419e-8
-0.039, 2.385e-8
-0.040, 2.390e-8
-0.041, 2.365e-8
-0.042, 2.351e-8
-0.043, 2.350e-8
-0.044, 2.317e-8
-0.045, 2.325e-8
-0.046, 2.300e-8
-0.047, 2.288e-8
-0.048, 2.288e-8
-0.049, 2.256e-8
-0.050, 2.266e-8
-0.051, 2.242e-8
-0.052, 2.231e-8
-0.053, 2.232e-8
-0.054, 2.200e-8
-0.055, 2.213e-8
-0.056, 2.189e-8
-0.057, 2.178e-8
-0.058, 2.183e-8
-0.059, 2.151e-8
-0.060, 2.165e-8
-0.061, 2.140e-8
-0.062, 2.131e-8
-0.063, 2.139e-8
-0.064, 2.107e-8
-0.065, 2.120e-8
-0.066, 2.100e-8
-0.067, 2.089e-8
-0.068, 2.097e-8
-0.069, 2.066e-8
-0.070, 2.080e-8
-0.071, 2.062e-8
-0.072, 2.053e-8
-0.073, 2.060e-8
-0.074, 2.032e-8
-0.075, 2.046e-8
-0.076, 2.029e-8
-0.077, 2.021e-8
-0.078, 2.028e-8
-0.079, 2.002e-8
-0.080, 2.016e-8
-0.081, 1.998e-8
-0.082, 1.993e-8
-0.083, 2.000e-8
-0.084, 1.975e-8
-0.085, 1.990e-8
-0.086, 1.971e-8
-0.087, 1.968e-8
-0.088, 1.976e-8
-0.089, 1.950e-8
-0.090, 1.968e-8
-0.091, 1.951e-8
-0.092, 1.946e-8
-0.093, 1.955e-8
-0.094, 1.930e-8
-0.095, 1.950e-8
-0.096, 1.932e-8
-0.097, 1.929e-8
-0.098, 1.939e-8
-0.099, 1.914e-8
-0.100, 1.934e-8
-0.101, 1.917e-8
-0.102, 1.915e-8
-0.103, 1.927e-8
-0.104, 1.901e-8
-0.105, 1.922e-8
-0.106, 1.906e-8
-0.107, 1.902e-8
-0.108, 1.917e-8
-0.109, 1.892e-8
-0.110, 1.911e-8
-0.111, 1.898e-8
-0.112, 1.894e-8
-0.113, 1.908e-8
-0.114, 1.886e-8
-0.115, 1.905e-8
-0.116, 1.893e-8
-0.117, 1.890e-8
-0.118, 1.903e-8
-0.119, 1.882e-8
-0.120, 1.903e-8
-0.121, 1.890e-8
-0.122, 1.888e-8
-0.123, 1.903e-8
-0.124, 1.882e-8
-0.125, 1.902e-8
-0.126, 1.890e-8
-0.127, 1.891e-8
-0.128, 1.904e-8
-0.129, 1.884e-8
-0.130, 1.906e-8
-0.131, 1.892e-8
-0.132, 1.896e-8
-0.133, 1.908e-8
-0.134, 1.888e-8
-0.135, 1.913e-8
-0.136, 1.899e-8
-0.137, 1.902e-8
-0.138, 1.917e-8
-0.139, 1.896e-8
-0.140, 1.922e-8
-0.141, 1.909e-8
-0.142, 1.911e-8
-0.143, 1.928e-8
-0.144, 1.908e-8
-0.145, 1.932e-8
-0.146, 1.922e-8
-0.147, 1.924e-8
-0.148, 1.942e-8
-0.149, 1.922e-8
-0.150, 1.946e-8
-0.151, 1.939e-8
-0.152, 1.940e-8
-0.153, 1.958e-8
-0.154, 1.941e-8
-0.155, 1.964e-8
-0.156, 1.957e-8
-0.157, 1.959e-8
-0.158, 1.977e-8
-0.159, 1.961e-8
-0.160, 1.986e-8
-0.161, 1.978e-8
-0.162, 1.982e-8
-0.163, 1.999e-8
-0.164, 1.984e-8
-0.165, 2.010e-8
-0.166, 2.003e-8
-0.167, 2.008e-8
-0.168, 2.025e-8
-0.169, 2.010e-8
-0.170, 2.037e-8
-0.171, 2.029e-8
-0.172, 2.037e-8
-0.173, 2.054e-8
-0.174, 2.040e-8
-0.175, 2.069e-8
-0.176, 2.059e-8
-0.177, 2.069e-8
-0.178, 2.087e-8
-0.179, 2.074e-8
-0.180, 2.103e-8
-0.181, 2.095e-8
-0.182, 2.103e-8
-0.183, 2.124e-8
-0.184, 2.109e-8
-0.185, 2.140e-8
-0.186, 2.134e-8
-0.187, 2.141e-8
-0.188, 2.164e-8
-0.189, 2.149e-8
-0.190, 2.179e-8
-0.191, 2.176e-8
-0.192, 2.184e-8
-0.193, 2.206e-8
-0.194, 2.194e-8
-0.195, 2.224e-8
-0.196, 2.221e-8
-0.197, 2.230e-8
-0.198, 2.252e-8
-0.199, 2.242e-8
