Mar. 16, 2023   09:44:26
Cyclic Voltammetry
File: c:/users/oliverrz/desktop/electrolab/data/2023_03_16\fcmeoh_macros_750_um\electrode2_cv_100mvs_750_um.bin
Data Source:  Experiment
Instrument Model:  CHI760E
Header: CV
Note: 

Init E (V) = -0.2
High E (V) = 0.3
Low E (V) = -0.2
Final E (V) = -0.2
Init P/N = P
Scan Rate (V/s) = 0.1
Segment = 3
Sample Interval (V) = 0.001
Quiet Time (sec) = 2
Sensitivity (A/V) = 1e-7

Results:

Channel 1:
Segment 1:
Ep = 0.092V
ip = -4.744e-8A
Ah = -3.002e-8C

Segment 2:
Ep = 0.029V
ip = 4.703e-8A
Ah = 2.938e-8C

Segment 3:

Potential/V, Current/A

-0.200, 6.303e-9
-0.199, 5.536e-9
-0.198, 5.260e-9
-0.197, 5.156e-9
-0.196, 5.020e-9
-0.195, 4.938e-9
-0.194, 4.860e-9
-0.193, 4.744e-9
-0.192, 4.702e-9
-0.191, 4.603e-9
-0.190, 4.534e-9
-0.189, 4.482e-9
-0.188, 4.381e-9
-0.187, 4.354e-9
-0.186, 4.261e-9
-0.185, 4.200e-9
-0.184, 4.159e-9
-0.183, 4.061e-9
-0.182, 4.037e-9
-0.181, 3.954e-9
-0.180, 3.895e-9
-0.179, 3.854e-9
-0.178, 3.763e-9
-0.177, 3.738e-9
-0.176, 3.670e-9
-0.175, 3.613e-9
-0.174, 3.581e-9
-0.173, 3.502e-9
-0.172, 3.472e-9
-0.171, 3.409e-9
-0.170, 3.359e-9
-0.169, 3.320e-9
-0.168, 3.247e-9
-0.167, 3.225e-9
-0.166, 3.155e-9
-0.165, 3.115e-9
-0.164, 3.075e-9
-0.163, 3.010e-9
-0.162, 2.994e-9
-0.161, 2.920e-9
-0.160, 2.887e-9
-0.159, 2.852e-9
-0.158, 2.780e-9
-0.157, 2.770e-9
-0.156, 2.702e-9
-0.155, 2.671e-9
-0.154, 2.638e-9
-0.153, 2.568e-9
-0.152, 2.563e-9
-0.151, 2.498e-9
-0.150, 2.463e-9
-0.149, 2.441e-9
-0.148, 2.364e-9
-0.147, 2.366e-9
-0.146, 2.307e-9
-0.145, 2.270e-9
-0.144, 2.254e-9
-0.143, 2.179e-9
-0.142, 2.177e-9
-0.141, 2.119e-9
-0.140, 2.081e-9
-0.139, 2.069e-9
-0.138, 2.000e-9
-0.137, 1.995e-9
-0.136, 1.942e-9
-0.135, 1.906e-9
-0.134, 1.888e-9
-0.133, 1.828e-9
-0.132, 1.820e-9
-0.131, 1.771e-9
-0.130, 1.741e-9
-0.129, 1.720e-9
-0.128, 1.658e-9
-0.127, 1.656e-9
-0.126, 1.600e-9
-0.125, 1.575e-9
-0.124, 1.553e-9
-0.123, 1.496e-9
-0.122, 1.497e-9
-0.121, 1.440e-9
-0.120, 1.414e-9
-0.119, 1.399e-9
-0.118, 1.340e-9
-0.117, 1.338e-9
-0.116, 1.283e-9
-0.115, 1.258e-9
-0.114, 1.244e-9
-0.113, 1.184e-9
-0.112, 1.189e-9
-0.111, 1.133e-9
-0.110, 1.105e-9
-0.109, 1.093e-9
-0.108, 1.027e-9
-0.107, 1.038e-9
-0.106, 9.804e-10
-0.105, 9.496e-10
-0.104, 9.429e-10
-0.103, 8.728e-10
-0.102, 8.707e-10
-0.101, 8.212e-10
-0.100, 7.912e-10
-0.099, 7.825e-10
-0.098, 7.208e-10
-0.097, 7.175e-10
-0.096, 6.706e-10
-0.095, 6.349e-10
-0.094, 6.199e-10
-0.093, 5.580e-10
-0.092, 5.510e-10
-0.091, 5.011e-10
-0.090, 4.683e-10
-0.089, 4.481e-10
-0.088, 3.947e-10
-0.087, 3.843e-10
-0.086, 3.300e-10
-0.085, 3.008e-10
-0.084, 2.757e-10
-0.083, 2.193e-10
-0.082, 2.102e-10
-0.081, 1.516e-10
-0.080, 1.192e-10
-0.079, 9.896e-11
-0.078, 2.601e-11
-0.077, 2.089e-11
-0.076, -4.172e-11
-0.075, -7.549e-11
-0.074, -1.004e-10
-0.073, -1.775e-10
-0.072, -1.771e-10
-0.071, -2.467e-10
-0.070, -2.934e-10
-0.069, -3.153e-10
-0.068, -3.970e-10
-0.067, -4.057e-10
-0.066, -4.777e-10
-0.065, -5.279e-10
-0.064, -5.584e-10
-0.063, -6.371e-10
-0.062, -6.645e-10
-0.061, -7.363e-10
-0.060, -7.922e-10
-0.059, -8.257e-10
-0.058, -9.204e-10
-0.057, -9.517e-10
-0.056, -1.026e-9
-0.055, -1.091e-9
-0.054, -1.137e-9
-0.053, -1.229e-9
-0.052, -1.277e-9
-0.051, -1.361e-9
-0.050, -1.438e-9
-0.049, -1.492e-9
-0.048, -1.594e-9
-0.047, -1.647e-9
-0.046, -1.751e-9
-0.045, -1.826e-9
-0.044, -1.902e-9
-0.043, -2.020e-9
-0.042, -2.076e-9
-0.041, -2.198e-9
-0.040, -2.288e-9
-0.039, -2.379e-9
-0.038, -2.511e-9
-0.037, -2.580e-9
-0.036, -2.718e-9
-0.035, -2.824e-9
-0.034, -2.928e-9
-0.033, -3.085e-9
-0.032, -3.172e-9
-0.031, -3.328e-9
-0.030, -3.457e-9
-0.029, -3.572e-9
-0.028, -3.748e-9
-0.027, -3.856e-9
-0.026, -4.034e-9
-0.025, -4.199e-9
-0.024, -4.337e-9
-0.023, -4.537e-9
-0.022, -4.676e-9
-0.021, -4.871e-9
-0.020, -5.062e-9
-0.019, -5.224e-9
-0.018, -5.448e-9
-0.017, -5.628e-9
-0.016, -5.851e-9
-0.015, -6.069e-9
-0.014, -6.267e-9
-0.013, -6.534e-9
-0.012, -6.742e-9
-0.011, -6.998e-9
-0.010, -7.253e-9
-0.009, -7.501e-9
-0.008, -7.790e-9
-0.007, -8.041e-9
-0.006, -8.341e-9
-0.005, -8.634e-9
-0.004, -8.924e-9
-0.003, -9.251e-9
-0.002, -9.546e-9
-0.001, -9.895e-9
-0.000, -1.032e-8
0.001, -1.063e-8
0.002, -1.099e-8
0.003, -1.131e-8
0.004, -1.171e-8
0.005, -1.208e-8
0.006, -1.247e-8
0.007, -1.290e-8
0.008, -1.329e-8
0.009, -1.373e-8
0.010, -1.417e-8
0.011, -1.459e-8
0.012, -1.510e-8
0.013, -1.553e-8
0.014, -1.604e-8
0.015, -1.653e-8
0.016, -1.701e-8
0.017, -1.756e-8
0.018, -1.804e-8
0.019, -1.859e-8
0.020, -1.914e-8
0.021, -1.967e-8
0.022, -2.026e-8
0.023, -2.082e-8
0.024, -2.141e-8
0.025, -2.201e-8
0.026, -2.261e-8
0.027, -2.323e-8
0.028, -2.385e-8
0.029, -2.446e-8
0.030, -2.511e-8
0.031, -2.573e-8
0.032, -2.639e-8
0.033, -2.703e-8
0.034, -2.769e-8
0.035, -2.836e-8
0.036, -2.901e-8
0.037, -2.969e-8
0.038, -3.037e-8
0.039, -3.107e-8
0.040, -3.174e-8
0.041, -3.242e-8
0.042, -3.311e-8
0.043, -3.375e-8
0.044, -3.445e-8
0.045, -3.511e-8
0.046, -3.577e-8
0.047, -3.646e-8
0.048, -3.709e-8
0.049, -3.776e-8
0.050, -3.842e-8
0.051, -3.907e-8
0.052, -3.974e-8
0.053, -4.033e-8
0.054, -4.096e-8
0.055, -4.157e-8
0.056, -4.213e-8
0.057, -4.275e-8
0.058, -4.329e-8
0.059, -4.387e-8
0.060, -4.443e-8
0.061, -4.491e-8
0.062, -4.546e-8
0.063, -4.594e-8
0.064, -4.643e-8
0.065, -4.692e-8
0.066, -4.734e-8
0.067, -4.779e-8
0.068, -4.820e-8
0.069, -4.858e-8
0.070, -4.898e-8
0.071, -4.931e-8
0.072, -4.966e-8
0.073, -4.997e-8
0.074, -5.027e-8
0.075, -5.057e-8
0.076, -5.081e-8
0.077, -5.108e-8
0.078, -5.130e-8
0.079, -5.152e-8
0.080, -5.168e-8
0.081, -5.186e-8
0.082, -5.201e-8
0.083, -5.212e-8
0.084, -5.227e-8
0.085, -5.236e-8
0.086, -5.243e-8
0.087, -5.253e-8
0.088, -5.254e-8
0.089, -5.260e-8
0.090, -5.263e-8
0.091, -5.262e-8
0.092, -5.264e-8
0.093, -5.259e-8
0.094, -5.258e-8
0.095, -5.255e-8
0.096, -5.245e-8
0.097, -5.242e-8
0.098, -5.232e-8
0.099, -5.224e-8
0.100, -5.215e-8
0.101, -5.200e-8
0.102, -5.193e-8
0.103, -5.179e-8
0.104, -5.165e-8
0.105, -5.152e-8
0.106, -5.134e-8
0.107, -5.122e-8
0.108, -5.103e-8
0.109, -5.087e-8
0.110, -5.070e-8
0.111, -5.052e-8
0.112, -5.035e-8
0.113, -5.015e-8
0.114, -4.997e-8
0.115, -4.978e-8
0.116, -4.958e-8
0.117, -4.940e-8
0.118, -4.917e-8
0.119, -4.899e-8
0.120, -4.877e-8
0.121, -4.856e-8
0.122, -4.837e-8
0.123, -4.813e-8
0.124, -4.794e-8
0.125, -4.773e-8
0.126, -4.751e-8
0.127, -4.732e-8
0.128, -4.708e-8
0.129, -4.690e-8
0.130, -4.668e-8
0.131, -4.644e-8
0.132, -4.627e-8
0.133, -4.602e-8
0.134, -4.583e-8
0.135, -4.563e-8
0.136, -4.540e-8
0.137, -4.523e-8
0.138, -4.499e-8
0.139, -4.481e-8
0.140, -4.462e-8
0.141, -4.440e-8
0.142, -4.424e-8
0.143, -4.401e-8
0.144, -4.383e-8
0.145, -4.365e-8
0.146, -4.343e-8
0.147, -4.327e-8
0.148, -4.307e-8
0.149, -4.290e-8
0.150, -4.272e-8
0.151, -4.252e-8
0.152, -4.238e-8
0.153, -4.218e-8
0.154, -4.202e-8
0.155, -4.186e-8
0.156, -4.167e-8
0.157, -4.152e-8
0.158, -4.134e-8
0.159, -4.119e-8
0.160, -4.103e-8
0.161, -4.086e-8
0.162, -4.073e-8
0.163, -4.055e-8
0.164, -4.042e-8
0.165, -4.026e-8
0.166, -4.010e-8
0.167, -3.999e-8
0.168, -3.981e-8
0.169, -3.969e-8
0.170, -3.956e-8
0.171, -3.939e-8
0.172, -3.929e-8
0.173, -3.912e-8
0.174, -3.901e-8
0.175, -3.889e-8
0.176, -3.873e-8
0.177, -3.864e-8
0.178, -3.848e-8
0.179, -3.838e-8
0.180, -3.827e-8
0.181, -3.812e-8
0.182, -3.803e-8
0.183, -3.789e-8
0.184, -3.779e-8
0.185, -3.769e-8
0.186, -3.756e-8
0.187, -3.748e-8
0.188, -3.735e-8
0.189, -3.725e-8
0.190, -3.716e-8
0.191, -3.704e-8
0.192, -3.696e-8
0.193, -3.684e-8
0.194, -3.675e-8
0.195, -3.666e-8
0.196, -3.655e-8
0.197, -3.648e-8
0.198, -3.636e-8
0.199, -3.629e-8
0.200, -3.621e-8
0.201, -3.610e-8
0.202, -3.605e-8
0.203, -3.593e-8
0.204, -3.587e-8
0.205, -3.579e-8
0.206, -3.568e-8
0.207, -3.564e-8
0.208, -3.553e-8
0.209, -3.548e-8
0.210, -3.540e-8
0.211, -3.530e-8
0.212, -3.526e-8
0.213, -3.516e-8
0.214, -3.510e-8
0.215, -3.504e-8
0.216, -3.494e-8
0.217, -3.492e-8
0.218, -3.482e-8
0.219, -3.477e-8
0.220, -3.471e-8
0.221, -3.462e-8
0.222, -3.459e-8
0.223, -3.450e-8
0.224, -3.445e-8
0.225, -3.440e-8
0.226, -3.432e-8
0.227, -3.429e-8
0.228, -3.421e-8
0.229, -3.416e-8
0.230, -3.412e-8
0.231, -3.405e-8
0.232, -3.402e-8
0.233, -3.394e-8
0.234, -3.391e-8
0.235, -3.386e-8
0.236, -3.380e-8
0.237, -3.378e-8
0.238, -3.371e-8
0.239, -3.368e-8
0.240, -3.364e-8
0.241, -3.357e-8
0.242, -3.356e-8
0.243, -3.348e-8
0.244, -3.346e-8
0.245, -3.342e-8
0.246, -3.335e-8
0.247, -3.335e-8
0.248, -3.328e-8
0.249, -3.326e-8
0.250, -3.323e-8
0.251, -3.316e-8
0.252, -3.316e-8
0.253, -3.309e-8
0.254, -3.307e-8
0.255, -3.306e-8
0.256, -3.299e-8
0.257, -3.300e-8
0.258, -3.294e-8
0.259, -3.292e-8
0.260, -3.290e-8
0.261, -3.284e-8
0.262, -3.284e-8
0.263, -3.280e-8
0.264, -3.277e-8
0.265, -3.276e-8
0.266, -3.271e-8
0.267, -3.271e-8
0.268, -3.267e-8
0.269, -3.266e-8
0.270, -3.264e-8
0.271, -3.259e-8
0.272, -3.260e-8
0.273, -3.256e-8
0.274, -3.255e-8
0.275, -3.253e-8
0.276, -3.250e-8
0.277, -3.251e-8
0.278, -3.246e-8
0.279, -3.247e-8
0.280, -3.245e-8
0.281, -3.242e-8
0.282, -3.244e-8
0.283, -3.239e-8
0.284, -3.239e-8
0.285, -3.238e-8
0.286, -3.235e-8
0.287, -3.237e-8
0.288, -3.232e-8
0.289, -3.233e-8
0.290, -3.233e-8
0.291, -3.229e-8
0.292, -3.232e-8
0.293, -3.228e-8
0.294, -3.229e-8
0.295, -3.229e-8
0.296, -3.226e-8
0.297, -3.229e-8
0.298, -3.225e-8
0.299, -3.226e-8
0.300, -3.133e-8
0.299, -2.968e-8
0.298, -2.919e-8
0.297, -2.891e-8
0.296, -2.873e-8
0.295, -2.856e-8
0.294, -2.838e-8
0.293, -2.828e-8
0.292, -2.812e-8
0.291, -2.802e-8
0.290, -2.791e-8
0.289, -2.778e-8
0.288, -2.771e-8
0.287, -2.758e-8
0.286, -2.750e-8
0.285, -2.742e-8
0.284, -2.731e-8
0.283, -2.726e-8
0.282, -2.715e-8
0.281, -2.708e-8
0.280, -2.702e-8
0.279, -2.691e-8
0.278, -2.688e-8
0.277, -2.678e-8
0.276, -2.672e-8
0.275, -2.667e-8
0.274, -2.658e-8
0.273, -2.655e-8
0.272, -2.647e-8
0.271, -2.641e-8
0.270, -2.636e-8
0.269, -2.627e-8
0.268, -2.625e-8
0.267, -2.617e-8
0.266, -2.612e-8
0.265, -2.608e-8
0.264, -2.600e-8
0.263, -2.598e-8
0.262, -2.591e-8
0.261, -2.587e-8
0.260, -2.582e-8
0.259, -2.575e-8
0.258, -2.573e-8
0.257, -2.565e-8
0.256, -2.562e-8
0.255, -2.558e-8
0.254, -2.551e-8
0.253, -2.550e-8
0.252, -2.542e-8
0.251, -2.540e-8
0.250, -2.536e-8
0.249, -2.529e-8
0.248, -2.529e-8
0.247, -2.521e-8
0.246, -2.519e-8
0.245, -2.515e-8
0.244, -2.508e-8
0.243, -2.508e-8
0.242, -2.501e-8
0.241, -2.498e-8
0.240, -2.495e-8
0.239, -2.488e-8
0.238, -2.487e-8
0.237, -2.481e-8
0.236, -2.477e-8
0.235, -2.475e-8
0.234, -2.468e-8
0.233, -2.468e-8
0.232, -2.461e-8
0.231, -2.458e-8
0.230, -2.455e-8
0.229, -2.449e-8
0.228, -2.448e-8
0.227, -2.442e-8
0.226, -2.439e-8
0.225, -2.436e-8
0.224, -2.430e-8
0.223, -2.429e-8
0.222, -2.423e-8
0.221, -2.420e-8
0.220, -2.417e-8
0.219, -2.411e-8
0.218, -2.410e-8
0.217, -2.403e-8
0.216, -2.401e-8
0.215, -2.398e-8
0.214, -2.392e-8
0.213, -2.391e-8
0.212, -2.384e-8
0.211, -2.382e-8
0.210, -2.378e-8
0.209, -2.372e-8
0.208, -2.372e-8
0.207, -2.364e-8
0.206, -2.362e-8
0.205, -2.358e-8
0.204, -2.351e-8
0.203, -2.351e-8
0.202, -2.344e-8
0.201, -2.341e-8
0.200, -2.338e-8
0.199, -2.330e-8
0.198, -2.330e-8
0.197, -2.322e-8
0.196, -2.319e-8
0.195, -2.316e-8
0.194, -2.308e-8
0.193, -2.307e-8
0.192, -2.298e-8
0.191, -2.294e-8
0.190, -2.290e-8
0.189, -2.282e-8
0.188, -2.281e-8
0.187, -2.273e-8
0.186, -2.268e-8
0.185, -2.263e-8
0.184, -2.255e-8
0.183, -2.252e-8
0.182, -2.244e-8
0.181, -2.238e-8
0.180, -2.233e-8
0.179, -2.224e-8
0.178, -2.221e-8
0.177, -2.212e-8
0.176, -2.206e-8
0.175, -2.199e-8
0.174, -2.190e-8
0.173, -2.186e-8
0.172, -2.176e-8
0.171, -2.169e-8
0.170, -2.162e-8
0.169, -2.151e-8
0.168, -2.147e-8
0.167, -2.135e-8
0.166, -2.127e-8
0.165, -2.120e-8
0.164, -2.107e-8
0.163, -2.102e-8
0.162, -2.088e-8
0.161, -2.079e-8
0.160, -2.071e-8
0.159, -2.056e-8
0.158, -2.049e-8
0.157, -2.036e-8
0.156, -2.025e-8
0.155, -2.014e-8
0.154, -1.998e-8
0.153, -1.989e-8
0.152, -1.973e-8
0.151, -1.960e-8
0.150, -1.948e-8
0.149, -1.930e-8
0.148, -1.919e-8
0.147, -1.902e-8
0.146, -1.886e-8
0.145, -1.871e-8
0.144, -1.852e-8
0.143, -1.837e-8
0.142, -1.818e-8
0.141, -1.800e-8
0.140, -1.781e-8
0.139, -1.760e-8
0.138, -1.742e-8
0.137, -1.719e-8
0.136, -1.698e-8
0.135, -1.677e-8
0.134, -1.652e-8
0.133, -1.631e-8
0.132, -1.604e-8
0.131, -1.581e-8
0.130, -1.555e-8
0.129, -1.526e-8
0.128, -1.500e-8
0.127, -1.469e-8
0.126, -1.441e-8
0.125, -1.412e-8
0.124, -1.379e-8
0.123, -1.351e-8
0.122, -1.315e-8
0.121, -1.283e-8
0.120, -1.250e-8
0.119, -1.210e-8
0.118, -1.178e-8
0.117, -1.139e-8
0.116, -1.100e-8
0.115, -1.062e-8
0.114, -1.019e-8
0.113, -9.799e-9
0.112, -9.363e-9
0.111, -8.917e-9
0.110, -8.493e-9
0.109, -8.007e-9
0.108, -7.564e-9
0.107, -7.062e-9
0.106, -6.563e-9
0.105, -6.086e-9
0.104, -5.537e-9
0.103, -5.035e-9
0.102, -4.474e-9
0.101, -3.930e-9
0.100, -3.402e-9
0.099, -2.821e-9
0.098, -2.263e-9
0.097, -1.676e-9
0.096, -1.091e-9
0.095, -4.882e-10
0.094, 1.436e-10
0.093, 7.404e-10
0.092, 1.401e-9
0.091, 2.024e-9
0.090, 2.680e-9
0.089, 3.339e-9
0.088, 3.971e-9
0.087, 4.662e-9
0.086, 5.306e-9
0.085, 5.982e-9
0.084, 6.680e-9
0.083, 7.319e-9
0.082, 8.039e-9
0.081, 8.717e-9
0.080, 9.384e-9
0.079, 1.011e-8
0.078, 1.075e-8
0.077, 1.149e-8
0.076, 1.217e-8
0.075, 1.280e-8
0.074, 1.352e-8
0.073, 1.416e-8
0.072, 1.483e-8
0.071, 1.551e-8
0.070, 1.614e-8
0.069, 1.682e-8
0.068, 1.745e-8
0.067, 1.807e-8
0.066, 1.870e-8
0.065, 1.929e-8
0.064, 1.991e-8
0.063, 2.049e-8
0.062, 2.105e-8
0.061, 2.161e-8
0.060, 2.214e-8
0.059, 2.268e-8
0.058, 2.319e-8
0.057, 2.368e-8
0.056, 2.417e-8
0.055, 2.463e-8
0.054, 2.507e-8
0.053, 2.549e-8
0.052, 2.593e-8
0.051, 2.632e-8
0.050, 2.667e-8
0.049, 2.704e-8
0.048, 2.734e-8
0.047, 2.768e-8
0.046, 2.796e-8
0.045, 2.823e-8
0.044, 2.852e-8
0.043, 2.872e-8
0.042, 2.897e-8
0.041, 2.917e-8
0.040, 2.932e-8
0.039, 2.953e-8
0.038, 2.964e-8
0.037, 2.981e-8
0.036, 2.992e-8
0.035, 2.997e-8
0.034, 3.010e-8
0.033, 3.013e-8
0.032, 3.019e-8
0.031, 3.023e-8
0.030, 3.023e-8
0.029, 3.026e-8
0.028, 3.024e-8
0.027, 3.024e-8
0.026, 3.022e-8
0.025, 3.016e-8
0.024, 3.012e-8
0.023, 3.004e-8
0.022, 2.996e-8
0.021, 2.988e-8
0.020, 2.978e-8
0.019, 2.968e-8
0.018, 2.955e-8
0.017, 2.944e-8
0.016, 2.930e-8
0.015, 2.917e-8
0.014, 2.904e-8
0.013, 2.889e-8
0.012, 2.876e-8
0.011, 2.858e-8
0.010, 2.840e-8
0.009, 2.826e-8
0.008, 2.806e-8
0.007, 2.791e-8
0.006, 2.772e-8
0.005, 2.753e-8
0.004, 2.738e-8
0.003, 2.715e-8
0.002, 2.700e-8
0.001, 2.680e-8
0.000, 2.666e-8
-0.001, 2.649e-8
-0.002, 2.623e-8
-0.003, 2.606e-8
-0.004, 2.586e-8
-0.005, 2.563e-8
-0.006, 2.547e-8
-0.007, 2.524e-8
-0.008, 2.506e-8
-0.009, 2.488e-8
-0.010, 2.465e-8
-0.011, 2.449e-8
-0.012, 2.427e-8
-0.013, 2.409e-8
-0.014, 2.390e-8
-0.015, 2.369e-8
-0.016, 2.353e-8
-0.017, 2.332e-8
-0.018, 2.315e-8
-0.019, 2.297e-8
-0.020, 2.277e-8
-0.021, 2.261e-8
-0.022, 2.241e-8
-0.023, 2.226e-8
-0.024, 2.208e-8
-0.025, 2.189e-8
-0.026, 2.176e-8
-0.027, 2.155e-8
-0.028, 2.141e-8
-0.029, 2.124e-8
-0.030, 2.107e-8
-0.031, 2.093e-8
-0.032, 2.074e-8
-0.033, 2.061e-8
-0.034, 2.046e-8
-0.035, 2.029e-8
-0.036, 2.017e-8
-0.037, 1.999e-8
-0.038, 1.988e-8
-0.039, 1.973e-8
-0.040, 1.957e-8
-0.041, 1.947e-8
-0.042, 1.930e-8
-0.043, 1.919e-8
-0.044, 1.906e-8
-0.045, 1.891e-8
-0.046, 1.881e-8
-0.047, 1.866e-8
-0.048, 1.855e-8
-0.049, 1.844e-8
-0.050, 1.830e-8
-0.051, 1.822e-8
-0.052, 1.807e-8
-0.053, 1.798e-8
-0.054, 1.787e-8
-0.055, 1.774e-8
-0.056, 1.767e-8
-0.057, 1.753e-8
-0.058, 1.745e-8
-0.059, 1.735e-8
-0.060, 1.723e-8
-0.061, 1.716e-8
-0.062, 1.704e-8
-0.063, 1.696e-8
-0.064, 1.687e-8
-0.065, 1.676e-8
-0.066, 1.670e-8
-0.067, 1.659e-8
-0.068, 1.653e-8
-0.069, 1.644e-8
-0.070, 1.634e-8
-0.071, 1.628e-8
-0.072, 1.617e-8
-0.073, 1.612e-8
-0.074, 1.604e-8
-0.075, 1.595e-8
-0.076, 1.592e-8
-0.077, 1.581e-8
-0.078, 1.576e-8
-0.079, 1.569e-8
-0.080, 1.560e-8
-0.081, 1.557e-8
-0.082, 1.548e-8
-0.083, 1.544e-8
-0.084, 1.538e-8
-0.085, 1.529e-8
-0.086, 1.527e-8
-0.087, 1.518e-8
-0.088, 1.514e-8
-0.089, 1.509e-8
-0.090, 1.502e-8
-0.091, 1.500e-8
-0.092, 1.492e-8
-0.093, 1.488e-8
-0.094, 1.484e-8
-0.095, 1.477e-8
-0.096, 1.476e-8
-0.097, 1.468e-8
-0.098, 1.466e-8
-0.099, 1.461e-8
-0.100, 1.456e-8
-0.101, 1.455e-8
-0.102, 1.449e-8
-0.103, 1.447e-8
-0.104, 1.443e-8
-0.105, 1.438e-8
-0.106, 1.437e-8
-0.107, 1.430e-8
-0.108, 1.430e-8
-0.109, 1.426e-8
-0.110, 1.421e-8
-0.111, 1.421e-8
-0.112, 1.415e-8
-0.113, 1.415e-8
-0.114, 1.412e-8
-0.115, 1.408e-8
-0.116, 1.409e-8
-0.117, 1.403e-8
-0.118, 1.403e-8
-0.119, 1.401e-8
-0.120, 1.396e-8
-0.121, 1.398e-8
-0.122, 1.392e-8
-0.123, 1.393e-8
-0.124, 1.392e-8
-0.125, 1.387e-8
-0.126, 1.390e-8
-0.127, 1.385e-8
-0.128, 1.386e-8
-0.129, 1.385e-8
-0.130, 1.381e-8
-0.131, 1.384e-8
-0.132, 1.380e-8
-0.133, 1.381e-8
-0.134, 1.380e-8
-0.135, 1.378e-8
-0.136, 1.380e-8
-0.137, 1.377e-8
-0.138, 1.378e-8
-0.139, 1.378e-8
-0.140, 1.376e-8
-0.141, 1.379e-8
-0.142, 1.376e-8
-0.143, 1.378e-8
-0.144, 1.378e-8
-0.145, 1.377e-8
-0.146, 1.380e-8
-0.147, 1.377e-8
-0.148, 1.380e-8
-0.149, 1.380e-8
-0.150, 1.379e-8
-0.151, 1.383e-8
-0.152, 1.381e-8
-0.153, 1.384e-8
-0.154, 1.385e-8
-0.155, 1.384e-8
-0.156, 1.389e-8
-0.157, 1.386e-8
-0.158, 1.390e-8
-0.159, 1.391e-8
-0.160, 1.391e-8
-0.161, 1.396e-8
-0.162, 1.395e-8
-0.163, 1.398e-8
-0.164, 1.401e-8
-0.165, 1.400e-8
-0.166, 1.406e-8
-0.167, 1.405e-8
-0.168, 1.409e-8
-0.169, 1.412e-8
-0.170, 1.412e-8
-0.171, 1.418e-8
-0.172, 1.418e-8
-0.173, 1.421e-8
-0.174, 1.425e-8
-0.175, 1.426e-8
-0.176, 1.432e-8
-0.177, 1.432e-8
-0.178, 1.437e-8
-0.179, 1.441e-8
-0.180, 1.442e-8
-0.181, 1.448e-8
-0.182, 1.449e-8
-0.183, 1.455e-8
-0.184, 1.458e-8
-0.185, 1.460e-8
-0.186, 1.467e-8
-0.187, 1.468e-8
-0.188, 1.474e-8
-0.189, 1.478e-8
-0.190, 1.481e-8
-0.191, 1.488e-8
-0.192, 1.490e-8
-0.193, 1.496e-8
-0.194, 1.501e-8
-0.195, 1.503e-8
-0.196, 1.512e-8
-0.197, 1.514e-8
-0.198, 1.521e-8
-0.199, 1.526e-8
