Mar. 16, 2023   09:48:25
Cyclic Voltammetry
File: c:/users/oliverrz/desktop/electrolab/data/2023_03_16\fcmeoh_macros_750_um\electrode5_cv_100mvs_750_um.bin
Data Source:  Experiment
Instrument Model:  CHI760E
Header: CV
Note: 

Init E (V) = -0.2
High E (V) = 0.3
Low E (V) = -0.2
Final E (V) = -0.2
Init P/N = P
Scan Rate (V/s) = 0.1
Segment = 3
Sample Interval (V) = 0.001
Quiet Time (sec) = 2
Sensitivity (A/V) = 1e-7

Results:

Channel 1:
Segment 1:
Ep = 0.108V
ip = -4.721e-8A
Ah = -2.886e-8C

Segment 2:
Ep = 0.043V
ip = 4.600e-8A
Ah = 2.903e-8C

Segment 3:

Potential/V, Current/A

-0.200, 9.748e-9
-0.199, 8.816e-9
-0.198, 8.563e-9
-0.197, 8.306e-9
-0.196, 8.178e-9
-0.195, 8.064e-9
-0.194, 7.878e-9
-0.193, 7.823e-9
-0.192, 7.657e-9
-0.191, 7.571e-9
-0.190, 7.475e-9
-0.189, 7.322e-9
-0.188, 7.282e-9
-0.187, 7.132e-9
-0.186, 7.062e-9
-0.185, 6.973e-9
-0.184, 6.833e-9
-0.183, 6.810e-9
-0.182, 6.662e-9
-0.181, 6.600e-9
-0.180, 6.517e-9
-0.179, 6.385e-9
-0.178, 6.370e-9
-0.177, 6.223e-9
-0.176, 6.174e-9
-0.175, 6.106e-9
-0.174, 5.971e-9
-0.173, 5.964e-9
-0.172, 5.826e-9
-0.171, 5.779e-9
-0.170, 5.716e-9
-0.169, 5.582e-9
-0.168, 5.589e-9
-0.167, 5.447e-9
-0.166, 5.400e-9
-0.165, 5.350e-9
-0.164, 5.220e-9
-0.163, 5.228e-9
-0.162, 5.100e-9
-0.161, 5.052e-9
-0.160, 5.006e-9
-0.159, 4.888e-9
-0.158, 4.890e-9
-0.157, 4.771e-9
-0.156, 4.729e-9
-0.155, 4.687e-9
-0.154, 4.565e-9
-0.153, 4.569e-9
-0.152, 4.451e-9
-0.151, 4.423e-9
-0.150, 4.378e-9
-0.149, 4.270e-9
-0.148, 4.278e-9
-0.147, 4.169e-9
-0.146, 4.135e-9
-0.145, 4.089e-9
-0.144, 3.989e-9
-0.143, 4.004e-9
-0.142, 3.889e-9
-0.141, 3.863e-9
-0.140, 3.816e-9
-0.139, 3.721e-9
-0.138, 3.738e-9
-0.137, 3.621e-9
-0.136, 3.608e-9
-0.135, 3.565e-9
-0.134, 3.465e-9
-0.133, 3.490e-9
-0.132, 3.374e-9
-0.131, 3.363e-9
-0.130, 3.327e-9
-0.129, 3.221e-9
-0.128, 3.244e-9
-0.127, 3.139e-9
-0.126, 3.122e-9
-0.125, 3.095e-9
-0.124, 2.995e-9
-0.123, 3.025e-9
-0.122, 2.919e-9
-0.121, 2.900e-9
-0.120, 2.875e-9
-0.119, 2.779e-9
-0.118, 2.809e-9
-0.117, 2.708e-9
-0.116, 2.691e-9
-0.115, 2.664e-9
-0.114, 2.570e-9
-0.113, 2.600e-9
-0.112, 2.508e-9
-0.111, 2.490e-9
-0.110, 2.465e-9
-0.109, 2.375e-9
-0.108, 2.402e-9
-0.107, 2.310e-9
-0.106, 2.302e-9
-0.105, 2.269e-9
-0.104, 2.189e-9
-0.103, 2.215e-9
-0.102, 2.110e-9
-0.101, 2.109e-9
-0.100, 2.081e-9
-0.099, 2.001e-9
-0.098, 2.031e-9
-0.097, 1.932e-9
-0.096, 1.928e-9
-0.095, 1.901e-9
-0.094, 1.815e-9
-0.093, 1.849e-9
-0.092, 1.751e-9
-0.091, 1.748e-9
-0.090, 1.725e-9
-0.089, 1.630e-9
-0.088, 1.674e-9
-0.087, 1.572e-9
-0.086, 1.565e-9
-0.085, 1.546e-9
-0.084, 1.456e-9
-0.083, 1.498e-9
-0.082, 1.394e-9
-0.081, 1.384e-9
-0.080, 1.368e-9
-0.079, 1.278e-9
-0.078, 1.312e-9
-0.077, 1.214e-9
-0.076, 1.203e-9
-0.075, 1.187e-9
-0.074, 1.097e-9
-0.073, 1.124e-9
-0.072, 1.036e-9
-0.071, 1.023e-9
-0.070, 9.992e-10
-0.069, 9.104e-10
-0.068, 9.368e-10
-0.067, 8.378e-10
-0.066, 8.312e-10
-0.065, 7.997e-10
-0.064, 7.132e-10
-0.063, 7.388e-10
-0.062, 6.349e-10
-0.061, 6.260e-10
-0.060, 5.924e-10
-0.059, 5.002e-10
-0.058, 5.274e-10
-0.057, 4.169e-10
-0.056, 4.071e-10
-0.055, 3.721e-10
-0.054, 2.753e-10
-0.053, 2.999e-10
-0.052, 1.869e-10
-0.051, 1.669e-10
-0.050, 1.312e-10
-0.049, 2.542e-11
-0.048, 5.003e-11
-0.047, -6.309e-11
-0.046, -8.602e-11
-0.045, -1.255e-10
-0.044, -2.403e-10
-0.043, -2.219e-10
-0.042, -3.407e-10
-0.041, -3.780e-10
-0.040, -4.209e-10
-0.039, -5.401e-10
-0.038, -5.367e-10
-0.037, -6.566e-10
-0.036, -7.015e-10
-0.035, -7.520e-10
-0.034, -8.776e-10
-0.033, -8.832e-10
-0.032, -1.014e-9
-0.031, -1.068e-9
-0.030, -1.130e-9
-0.029, -1.259e-9
-0.028, -1.280e-9
-0.027, -1.420e-9
-0.026, -1.489e-9
-0.025, -1.571e-9
-0.024, -1.710e-9
-0.023, -1.743e-9
-0.022, -1.900e-9
-0.021, -1.974e-9
-0.020, -2.073e-9
-0.019, -2.226e-9
-0.018, -2.275e-9
-0.017, -2.450e-9
-0.016, -2.535e-9
-0.015, -2.656e-9
-0.014, -2.833e-9
-0.013, -2.900e-9
-0.012, -3.099e-9
-0.011, -3.202e-9
-0.010, -3.342e-9
-0.009, -3.537e-9
-0.008, -3.617e-9
-0.007, -3.836e-9
-0.006, -3.971e-9
-0.005, -4.130e-9
-0.004, -4.359e-9
-0.003, -4.469e-9
-0.002, -4.715e-9
-0.001, -4.882e-9
-0.000, -5.129e-9
0.001, -5.370e-9
0.002, -5.497e-9
0.003, -5.759e-9
0.004, -5.970e-9
0.005, -6.173e-9
0.006, -6.464e-9
0.007, -6.647e-9
0.008, -6.957e-9
0.009, -7.198e-9
0.010, -7.457e-9
0.011, -7.785e-9
0.012, -8.017e-9
0.013, -8.364e-9
0.014, -8.640e-9
0.015, -8.946e-9
0.016, -9.307e-9
0.017, -9.585e-9
0.018, -9.976e-9
0.019, -1.030e-8
0.020, -1.065e-8
0.021, -1.106e-8
0.022, -1.139e-8
0.023, -1.182e-8
0.024, -1.220e-8
0.025, -1.261e-8
0.026, -1.309e-8
0.027, -1.345e-8
0.028, -1.396e-8
0.029, -1.438e-8
0.030, -1.483e-8
0.031, -1.537e-8
0.032, -1.579e-8
0.033, -1.634e-8
0.034, -1.682e-8
0.035, -1.732e-8
0.036, -1.792e-8
0.037, -1.838e-8
0.038, -1.899e-8
0.039, -1.953e-8
0.040, -2.008e-8
0.041, -2.072e-8
0.042, -2.123e-8
0.043, -2.188e-8
0.044, -2.249e-8
0.045, -2.308e-8
0.046, -2.375e-8
0.047, -2.434e-8
0.048, -2.501e-8
0.049, -2.565e-8
0.050, -2.629e-8
0.051, -2.701e-8
0.052, -2.763e-8
0.053, -2.834e-8
0.054, -2.899e-8
0.055, -2.965e-8
0.056, -3.037e-8
0.057, -3.102e-8
0.058, -3.173e-8
0.059, -3.241e-8
0.060, -3.310e-8
0.061, -3.381e-8
0.062, -3.445e-8
0.063, -3.517e-8
0.064, -3.583e-8
0.065, -3.650e-8
0.066, -3.721e-8
0.067, -3.780e-8
0.068, -3.851e-8
0.069, -3.915e-8
0.070, -3.977e-8
0.071, -4.045e-8
0.072, -4.100e-8
0.073, -4.168e-8
0.074, -4.225e-8
0.075, -4.283e-8
0.076, -4.345e-8
0.077, -4.395e-8
0.078, -4.454e-8
0.079, -4.507e-8
0.080, -4.554e-8
0.081, -4.611e-8
0.082, -4.653e-8
0.083, -4.704e-8
0.084, -4.749e-8
0.085, -4.789e-8
0.086, -4.835e-8
0.087, -4.868e-8
0.088, -4.910e-8
0.089, -4.945e-8
0.090, -4.977e-8
0.091, -5.012e-8
0.092, -5.039e-8
0.093, -5.068e-8
0.094, -5.093e-8
0.095, -5.116e-8
0.096, -5.141e-8
0.097, -5.157e-8
0.098, -5.179e-8
0.099, -5.194e-8
0.100, -5.208e-8
0.101, -5.224e-8
0.102, -5.231e-8
0.103, -5.247e-8
0.104, -5.252e-8
0.105, -5.258e-8
0.106, -5.266e-8
0.107, -5.262e-8
0.108, -5.270e-8
0.109, -5.266e-8
0.110, -5.265e-8
0.111, -5.268e-8
0.112, -5.257e-8
0.113, -5.258e-8
0.114, -5.248e-8
0.115, -5.240e-8
0.116, -5.237e-8
0.117, -5.220e-8
0.118, -5.216e-8
0.119, -5.201e-8
0.120, -5.187e-8
0.121, -5.180e-8
0.122, -5.159e-8
0.123, -5.150e-8
0.124, -5.132e-8
0.125, -5.113e-8
0.126, -5.102e-8
0.127, -5.079e-8
0.128, -5.067e-8
0.129, -5.048e-8
0.130, -5.027e-8
0.131, -5.013e-8
0.132, -4.987e-8
0.133, -4.972e-8
0.134, -4.950e-8
0.135, -4.929e-8
0.136, -4.913e-8
0.137, -4.886e-8
0.138, -4.870e-8
0.139, -4.846e-8
0.140, -4.825e-8
0.141, -4.808e-8
0.142, -4.780e-8
0.143, -4.766e-8
0.144, -4.740e-8
0.145, -4.718e-8
0.146, -4.702e-8
0.147, -4.673e-8
0.148, -4.658e-8
0.149, -4.633e-8
0.150, -4.611e-8
0.151, -4.595e-8
0.152, -4.567e-8
0.153, -4.553e-8
0.154, -4.529e-8
0.155, -4.508e-8
0.156, -4.492e-8
0.157, -4.464e-8
0.158, -4.451e-8
0.159, -4.429e-8
0.160, -4.407e-8
0.161, -4.393e-8
0.162, -4.367e-8
0.163, -4.353e-8
0.164, -4.332e-8
0.165, -4.311e-8
0.166, -4.298e-8
0.167, -4.274e-8
0.168, -4.261e-8
0.169, -4.240e-8
0.170, -4.221e-8
0.171, -4.209e-8
0.172, -4.185e-8
0.173, -4.173e-8
0.174, -4.154e-8
0.175, -4.136e-8
0.176, -4.124e-8
0.177, -4.102e-8
0.178, -4.092e-8
0.179, -4.074e-8
0.180, -4.057e-8
0.181, -4.046e-8
0.182, -4.024e-8
0.183, -4.015e-8
0.184, -3.997e-8
0.185, -3.982e-8
0.186, -3.972e-8
0.187, -3.951e-8
0.188, -3.944e-8
0.189, -3.926e-8
0.190, -3.912e-8
0.191, -3.904e-8
0.192, -3.883e-8
0.193, -3.877e-8
0.194, -3.860e-8
0.195, -3.847e-8
0.196, -3.840e-8
0.197, -3.820e-8
0.198, -3.814e-8
0.199, -3.800e-8
0.200, -3.786e-8
0.201, -3.781e-8
0.202, -3.762e-8
0.203, -3.757e-8
0.204, -3.743e-8
0.205, -3.732e-8
0.206, -3.726e-8
0.207, -3.709e-8
0.208, -3.704e-8
0.209, -3.691e-8
0.210, -3.679e-8
0.211, -3.674e-8
0.212, -3.658e-8
0.213, -3.654e-8
0.214, -3.642e-8
0.215, -3.632e-8
0.216, -3.628e-8
0.217, -3.613e-8
0.218, -3.610e-8
0.219, -3.598e-8
0.220, -3.589e-8
0.221, -3.585e-8
0.222, -3.570e-8
0.223, -3.568e-8
0.224, -3.556e-8
0.225, -3.548e-8
0.226, -3.545e-8
0.227, -3.530e-8
0.228, -3.530e-8
0.229, -3.518e-8
0.230, -3.510e-8
0.231, -3.508e-8
0.232, -3.494e-8
0.233, -3.494e-8
0.234, -3.484e-8
0.235, -3.476e-8
0.236, -3.475e-8
0.237, -3.460e-8
0.238, -3.460e-8
0.239, -3.451e-8
0.240, -3.444e-8
0.241, -3.443e-8
0.242, -3.430e-8
0.243, -3.430e-8
0.244, -3.422e-8
0.245, -3.414e-8
0.246, -3.414e-8
0.247, -3.402e-8
0.248, -3.403e-8
0.249, -3.394e-8
0.250, -3.388e-8
0.251, -3.388e-8
0.252, -3.377e-8
0.253, -3.378e-8
0.254, -3.370e-8
0.255, -3.365e-8
0.256, -3.365e-8
0.257, -3.354e-8
0.258, -3.356e-8
0.259, -3.347e-8
0.260, -3.343e-8
0.261, -3.343e-8
0.262, -3.332e-8
0.263, -3.335e-8
0.264, -3.328e-8
0.265, -3.324e-8
0.266, -3.325e-8
0.267, -3.314e-8
0.268, -3.318e-8
0.269, -3.310e-8
0.270, -3.306e-8
0.271, -3.309e-8
0.272, -3.298e-8
0.273, -3.302e-8
0.274, -3.296e-8
0.275, -3.291e-8
0.276, -3.294e-8
0.277, -3.284e-8
0.278, -3.288e-8
0.279, -3.282e-8
0.280, -3.279e-8
0.281, -3.282e-8
0.282, -3.273e-8
0.283, -3.277e-8
0.284, -3.272e-8
0.285, -3.268e-8
0.286, -3.271e-8
0.287, -3.263e-8
0.288, -3.267e-8
0.289, -3.263e-8
0.290, -3.261e-8
0.291, -3.263e-8
0.292, -3.256e-8
0.293, -3.260e-8
0.294, -3.256e-8
0.295, -3.255e-8
0.296, -3.258e-8
0.297, -3.251e-8
0.298, -3.256e-8
0.299, -3.252e-8
0.300, -3.164e-8
0.299, -3.015e-8
0.298, -2.957e-8
0.297, -2.936e-8
0.296, -2.912e-8
0.295, -2.893e-8
0.294, -2.883e-8
0.293, -2.862e-8
0.292, -2.853e-8
0.291, -2.838e-8
0.290, -2.825e-8
0.289, -2.818e-8
0.288, -2.800e-8
0.287, -2.795e-8
0.286, -2.783e-8
0.285, -2.772e-8
0.284, -2.767e-8
0.283, -2.751e-8
0.282, -2.748e-8
0.281, -2.736e-8
0.280, -2.727e-8
0.279, -2.723e-8
0.278, -2.709e-8
0.277, -2.707e-8
0.276, -2.695e-8
0.275, -2.687e-8
0.274, -2.685e-8
0.273, -2.670e-8
0.272, -2.670e-8
0.271, -2.659e-8
0.270, -2.652e-8
0.269, -2.650e-8
0.268, -2.636e-8
0.267, -2.637e-8
0.266, -2.627e-8
0.265, -2.620e-8
0.264, -2.619e-8
0.263, -2.606e-8
0.262, -2.606e-8
0.261, -2.597e-8
0.260, -2.590e-8
0.259, -2.590e-8
0.258, -2.576e-8
0.257, -2.577e-8
0.256, -2.568e-8
0.255, -2.562e-8
0.254, -2.562e-8
0.253, -2.549e-8
0.252, -2.550e-8
0.251, -2.542e-8
0.250, -2.536e-8
0.249, -2.535e-8
0.248, -2.523e-8
0.247, -2.524e-8
0.246, -2.516e-8
0.245, -2.510e-8
0.244, -2.509e-8
0.243, -2.498e-8
0.242, -2.499e-8
0.241, -2.491e-8
0.240, -2.486e-8
0.239, -2.486e-8
0.238, -2.474e-8
0.237, -2.476e-8
0.236, -2.467e-8
0.235, -2.462e-8
0.234, -2.462e-8
0.233, -2.450e-8
0.232, -2.451e-8
0.231, -2.443e-8
0.230, -2.437e-8
0.229, -2.438e-8
0.228, -2.425e-8
0.227, -2.427e-8
0.226, -2.419e-8
0.225, -2.413e-8
0.224, -2.414e-8
0.223, -2.401e-8
0.222, -2.403e-8
0.221, -2.394e-8
0.220, -2.389e-8
0.219, -2.389e-8
0.218, -2.376e-8
0.217, -2.378e-8
0.216, -2.369e-8
0.215, -2.363e-8
0.214, -2.363e-8
0.213, -2.351e-8
0.212, -2.351e-8
0.211, -2.343e-8
0.210, -2.336e-8
0.209, -2.335e-8
0.208, -2.323e-8
0.207, -2.324e-8
0.206, -2.315e-8
0.205, -2.308e-8
0.204, -2.306e-8
0.203, -2.294e-8
0.202, -2.294e-8
0.201, -2.284e-8
0.200, -2.278e-8
0.199, -2.275e-8
0.198, -2.262e-8
0.197, -2.262e-8
0.196, -2.251e-8
0.195, -2.245e-8
0.194, -2.242e-8
0.193, -2.228e-8
0.192, -2.227e-8
0.191, -2.215e-8
0.190, -2.208e-8
0.189, -2.204e-8
0.188, -2.189e-8
0.187, -2.187e-8
0.186, -2.176e-8
0.185, -2.167e-8
0.184, -2.163e-8
0.183, -2.146e-8
0.182, -2.144e-8
0.181, -2.131e-8
0.180, -2.120e-8
0.179, -2.115e-8
0.178, -2.098e-8
0.177, -2.094e-8
0.176, -2.080e-8
0.175, -2.068e-8
0.174, -2.061e-8
0.173, -2.043e-8
0.172, -2.037e-8
0.171, -2.022e-8
0.170, -2.009e-8
0.169, -2.000e-8
0.168, -1.980e-8
0.167, -1.972e-8
0.166, -1.955e-8
0.165, -1.940e-8
0.164, -1.929e-8
0.163, -1.908e-8
0.162, -1.898e-8
0.161, -1.879e-8
0.160, -1.861e-8
0.159, -1.847e-8
0.158, -1.823e-8
0.157, -1.810e-8
0.156, -1.788e-8
0.155, -1.768e-8
0.154, -1.752e-8
0.153, -1.724e-8
0.152, -1.709e-8
0.151, -1.683e-8
0.150, -1.660e-8
0.149, -1.641e-8
0.148, -1.609e-8
0.147, -1.591e-8
0.146, -1.562e-8
0.145, -1.535e-8
0.144, -1.512e-8
0.143, -1.477e-8
0.142, -1.455e-8
0.141, -1.421e-8
0.140, -1.389e-8
0.139, -1.364e-8
0.138, -1.324e-8
0.137, -1.298e-8
0.136, -1.261e-8
0.135, -1.224e-8
0.134, -1.195e-8
0.133, -1.150e-8
0.132, -1.118e-8
0.131, -1.077e-8
0.130, -1.035e-8
0.129, -9.984e-9
0.128, -9.491e-9
0.127, -9.115e-9
0.126, -8.659e-9
0.125, -8.195e-9
0.124, -7.770e-9
0.123, -7.239e-9
0.122, -6.807e-9
0.121, -6.295e-9
0.120, -5.785e-9
0.119, -5.298e-9
0.118, -4.732e-9
0.117, -4.243e-9
0.116, -3.661e-9
0.115, -3.095e-9
0.114, -2.566e-9
0.113, -1.934e-9
0.112, -1.415e-9
0.111, -7.740e-10
0.110, -1.748e-10
0.109, 4.062e-10
0.108, 1.099e-9
0.107, 1.659e-9
0.106, 2.345e-9
0.105, 2.991e-9
0.104, 3.600e-9
0.103, 4.335e-9
0.102, 4.958e-9
0.101, 5.656e-9
0.100, 6.330e-9
0.099, 6.944e-9
0.098, 7.697e-9
0.097, 8.330e-9
0.096, 9.038e-9
0.095, 9.747e-9
0.094, 1.037e-8
0.093, 1.112e-8
0.092, 1.177e-8
0.091, 1.245e-8
0.090, 1.316e-8
0.089, 1.380e-8
0.088, 1.453e-8
0.087, 1.515e-8
0.086, 1.581e-8
0.085, 1.650e-8
0.084, 1.711e-8
0.083, 1.778e-8
0.082, 1.839e-8
0.081, 1.904e-8
0.080, 1.964e-8
0.079, 2.021e-8
0.078, 2.083e-8
0.077, 2.137e-8
0.076, 2.197e-8
0.075, 2.250e-8
0.074, 2.300e-8
0.073, 2.356e-8
0.072, 2.400e-8
0.071, 2.453e-8
0.070, 2.498e-8
0.069, 2.541e-8
0.068, 2.590e-8
0.067, 2.624e-8
0.066, 2.666e-8
0.065, 2.706e-8
0.064, 2.738e-8
0.063, 2.779e-8
0.062, 2.803e-8
0.061, 2.837e-8
0.060, 2.866e-8
0.059, 2.887e-8
0.058, 2.919e-8
0.057, 2.936e-8
0.056, 2.958e-8
0.055, 2.981e-8
0.054, 2.991e-8
0.053, 3.014e-8
0.052, 3.023e-8
0.051, 3.039e-8
0.050, 3.050e-8
0.049, 3.055e-8
0.048, 3.067e-8
0.047, 3.068e-8
0.046, 3.075e-8
0.045, 3.079e-8
0.044, 3.076e-8
0.043, 3.081e-8
0.042, 3.077e-8
0.041, 3.076e-8
0.040, 3.073e-8
0.039, 3.066e-8
0.038, 3.065e-8
0.037, 3.054e-8
0.036, 3.049e-8
0.035, 3.040e-8
0.034, 3.027e-8
0.033, 3.023e-8
0.032, 3.005e-8
0.031, 2.998e-8
0.030, 2.985e-8
0.029, 2.967e-8
0.028, 2.960e-8
0.027, 2.939e-8
0.026, 2.929e-8
0.025, 2.913e-8
0.024, 2.894e-8
0.023, 2.883e-8
0.022, 2.860e-8
0.021, 2.847e-8
0.020, 2.831e-8
0.019, 2.808e-8
0.018, 2.797e-8
0.017, 2.772e-8
0.016, 2.758e-8
0.015, 2.741e-8
0.014, 2.717e-8
0.013, 2.706e-8
0.012, 2.681e-8
0.011, 2.665e-8
0.010, 2.648e-8
0.009, 2.624e-8
0.008, 2.612e-8
0.007, 2.588e-8
0.006, 2.571e-8
0.005, 2.553e-8
0.004, 2.531e-8
0.003, 2.519e-8
0.002, 2.495e-8
0.001, 2.480e-8
0.000, 2.468e-8
-0.001, 2.444e-8
-0.002, 2.430e-8
-0.003, 2.405e-8
-0.004, 2.391e-8
-0.005, 2.374e-8
-0.006, 2.352e-8
-0.007, 2.342e-8
-0.008, 2.318e-8
-0.009, 2.306e-8
-0.010, 2.289e-8
-0.011, 2.269e-8
-0.012, 2.260e-8
-0.013, 2.237e-8
-0.014, 2.225e-8
-0.015, 2.210e-8
-0.016, 2.190e-8
-0.017, 2.182e-8
-0.018, 2.160e-8
-0.019, 2.150e-8
-0.020, 2.136e-8
-0.021, 2.117e-8
-0.022, 2.110e-8
-0.023, 2.089e-8
-0.024, 2.080e-8
-0.025, 2.067e-8
-0.026, 2.050e-8
-0.027, 2.044e-8
-0.028, 2.024e-8
-0.029, 2.015e-8
-0.030, 2.004e-8
-0.031, 1.988e-8
-0.032, 1.982e-8
-0.033, 1.964e-8
-0.034, 1.957e-8
-0.035, 1.945e-8
-0.036, 1.930e-8
-0.037, 1.926e-8
-0.038, 1.909e-8
-0.039, 1.903e-8
-0.040, 1.892e-8
-0.041, 1.878e-8
-0.042, 1.875e-8
-0.043, 1.859e-8
-0.044, 1.854e-8
-0.045, 1.844e-8
-0.046, 1.831e-8
-0.047, 1.829e-8
-0.048, 1.813e-8
-0.049, 1.810e-8
-0.050, 1.801e-8
-0.051, 1.789e-8
-0.052, 1.788e-8
-0.053, 1.772e-8
-0.054, 1.769e-8
-0.055, 1.762e-8
-0.056, 1.750e-8
-0.057, 1.750e-8
-0.058, 1.735e-8
-0.059, 1.733e-8
-0.060, 1.726e-8
-0.061, 1.715e-8
-0.062, 1.716e-8
-0.063, 1.703e-8
-0.064, 1.701e-8
-0.065, 1.695e-8
-0.066, 1.685e-8
-0.067, 1.686e-8
-0.068, 1.674e-8
-0.069, 1.672e-8
-0.070, 1.667e-8
-0.071, 1.658e-8
-0.072, 1.659e-8
-0.073, 1.648e-8
-0.074, 1.647e-8
-0.075, 1.642e-8
-0.076, 1.634e-8
-0.077, 1.636e-8
-0.078, 1.625e-8
-0.079, 1.625e-8
-0.080, 1.621e-8
-0.081, 1.613e-8
-0.082, 1.616e-8
-0.083, 1.605e-8
-0.084, 1.606e-8
-0.085, 1.602e-8
-0.086, 1.595e-8
-0.087, 1.599e-8
-0.088, 1.589e-8
-0.089, 1.591e-8
-0.090, 1.588e-8
-0.091, 1.581e-8
-0.092, 1.585e-8
-0.093, 1.576e-8
-0.094, 1.578e-8
-0.095, 1.576e-8
-0.096, 1.569e-8
-0.097, 1.575e-8
-0.098, 1.565e-8
-0.099, 1.568e-8
-0.100, 1.566e-8
-0.101, 1.560e-8
-0.102, 1.566e-8
-0.103, 1.559e-8
-0.104, 1.561e-8
-0.105, 1.560e-8
-0.106, 1.555e-8
-0.107, 1.560e-8
-0.108, 1.553e-8
-0.109, 1.556e-8
-0.110, 1.556e-8
-0.111, 1.551e-8
-0.112, 1.557e-8
-0.113, 1.550e-8
-0.114, 1.554e-8
-0.115, 1.554e-8
-0.116, 1.551e-8
-0.117, 1.557e-8
-0.118, 1.551e-8
-0.119, 1.555e-8
-0.120, 1.555e-8
-0.121, 1.552e-8
-0.122, 1.559e-8
-0.123, 1.553e-8
-0.124, 1.558e-8
-0.125, 1.558e-8
-0.126, 1.556e-8
-0.127, 1.563e-8
-0.128, 1.558e-8
-0.129, 1.564e-8
-0.130, 1.564e-8
-0.131, 1.562e-8
-0.132, 1.570e-8
-0.133, 1.565e-8
-0.134, 1.571e-8
-0.135, 1.573e-8
-0.136, 1.571e-8
-0.137, 1.580e-8
-0.138, 1.575e-8
-0.139, 1.581e-8
-0.140, 1.584e-8
-0.141, 1.582e-8
-0.142, 1.592e-8
-0.143, 1.588e-8
-0.144, 1.594e-8
-0.145, 1.597e-8
-0.146, 1.596e-8
-0.147, 1.605e-8
-0.148, 1.602e-8
-0.149, 1.609e-8
-0.150, 1.613e-8
-0.151, 1.612e-8
-0.152, 1.622e-8
-0.153, 1.620e-8
-0.154, 1.628e-8
-0.155, 1.631e-8
-0.156, 1.632e-8
-0.157, 1.642e-8
-0.158, 1.640e-8
-0.159, 1.649e-8
-0.160, 1.653e-8
-0.161, 1.654e-8
-0.162, 1.665e-8
-0.163, 1.662e-8
-0.164, 1.672e-8
-0.165, 1.676e-8
-0.166, 1.678e-8
-0.167, 1.689e-8
-0.168, 1.688e-8
-0.169, 1.698e-8
-0.170, 1.702e-8
-0.171, 1.704e-8
-0.172, 1.717e-8
-0.173, 1.715e-8
-0.174, 1.726e-8
-0.175, 1.731e-8
-0.176, 1.734e-8
-0.177, 1.747e-8
-0.178, 1.746e-8
-0.179, 1.758e-8
-0.180, 1.764e-8
-0.181, 1.766e-8
-0.182, 1.780e-8
-0.183, 1.780e-8
-0.184, 1.791e-8
-0.185, 1.799e-8
-0.186, 1.802e-8
-0.187, 1.816e-8
-0.188, 1.817e-8
-0.189, 1.828e-8
-0.190, 1.836e-8
-0.191, 1.840e-8
-0.192, 1.855e-8
-0.193, 1.856e-8
-0.194, 1.868e-8
-0.195, 1.877e-8
-0.196, 1.882e-8
-0.197, 1.897e-8
-0.198, 1.899e-8
-0.199, 1.912e-8
