Mar. 16, 2023   09:51:17
Cyclic Voltammetry
File: c:/users/oliverrz/desktop/electrolab/data/2023_03_16\fcmeoh_macros_750_um\electrode7_cv_150mvs_750_um.bin
Data Source:  Experiment
Instrument Model:  CHI760E
Header: CV
Note: 

Init E (V) = -0.2
High E (V) = 0.3
Low E (V) = -0.2
Final E (V) = -0.2
Init P/N = P
Scan Rate (V/s) = 0.15
Segment = 3
Sample Interval (V) = 0.001
Quiet Time (sec) = 2
Sensitivity (A/V) = 1e-7

Results:

Channel 1:
Segment 1:
Ep = 0.111V
ip = -6.084e-8A
Ah = -2.556e-8C

Segment 2:
Ep = 0.050V
ip = 5.566e-8A
Ah = 2.240e-8C

Segment 3:

Potential/V, Current/A

-0.200, 2.683e-9
-0.199, 2.099e-9
-0.198, 2.224e-9
-0.197, 2.131e-9
-0.196, 2.000e-9
-0.195, 2.168e-9
-0.194, 1.909e-9
-0.193, 2.050e-9
-0.192, 1.971e-9
-0.191, 1.863e-9
-0.190, 2.024e-9
-0.189, 1.772e-9
-0.188, 1.939e-9
-0.187, 1.841e-9
-0.186, 1.746e-9
-0.185, 1.916e-9
-0.184, 1.661e-9
-0.183, 1.828e-9
-0.182, 1.739e-9
-0.181, 1.637e-9
-0.180, 1.814e-9
-0.179, 1.558e-9
-0.178, 1.727e-9
-0.177, 1.637e-9
-0.176, 1.551e-9
-0.175, 1.726e-9
-0.174, 1.458e-9
-0.173, 1.648e-9
-0.172, 1.550e-9
-0.171, 1.449e-9
-0.170, 1.647e-9
-0.169, 1.374e-9
-0.168, 1.553e-9
-0.167, 1.478e-9
-0.166, 1.360e-9
-0.165, 1.560e-9
-0.164, 1.301e-9
-0.163, 1.469e-9
-0.162, 1.400e-9
-0.161, 1.290e-9
-0.160, 1.488e-9
-0.159, 1.231e-9
-0.158, 1.400e-9
-0.157, 1.320e-9
-0.156, 1.221e-9
-0.155, 1.407e-9
-0.154, 1.153e-9
-0.153, 1.320e-9
-0.152, 1.257e-9
-0.151, 1.154e-9
-0.150, 1.330e-9
-0.149, 1.091e-9
-0.148, 1.261e-9
-0.147, 1.181e-9
-0.146, 1.090e-9
-0.145, 1.265e-9
-0.144, 1.024e-9
-0.143, 1.206e-9
-0.142, 1.108e-9
-0.141, 1.022e-9
-0.140, 1.214e-9
-0.139, 9.535e-10
-0.138, 1.139e-9
-0.137, 1.056e-9
-0.136, 9.574e-10
-0.135, 1.151e-9
-0.134, 8.923e-10
-0.133, 1.074e-9
-0.132, 9.952e-10
-0.131, 8.991e-10
-0.130, 1.092e-9
-0.129, 8.290e-10
-0.128, 1.018e-9
-0.127, 9.360e-10
-0.126, 8.314e-10
-0.125, 1.037e-9
-0.124, 7.710e-10
-0.123, 9.543e-10
-0.122, 8.886e-10
-0.121, 7.750e-10
-0.120, 9.729e-10
-0.119, 7.257e-10
-0.118, 8.896e-10
-0.117, 8.256e-10
-0.116, 7.228e-10
-0.115, 9.087e-10
-0.114, 6.617e-10
-0.113, 8.326e-10
-0.112, 7.627e-10
-0.111, 6.635e-10
-0.110, 8.514e-10
-0.109, 6.024e-10
-0.108, 7.795e-10
-0.107, 7.025e-10
-0.106, 6.010e-10
-0.105, 7.909e-10
-0.104, 5.426e-10
-0.103, 7.108e-10
-0.102, 6.304e-10
-0.101, 5.475e-10
-0.100, 7.261e-10
-0.099, 4.707e-10
-0.098, 6.609e-10
-0.097, 5.645e-10
-0.096, 4.764e-10
-0.095, 6.750e-10
-0.094, 4.022e-10
-0.093, 5.876e-10
-0.092, 5.027e-10
-0.091, 4.006e-10
-0.090, 6.005e-10
-0.089, 3.327e-10
-0.088, 5.146e-10
-0.087, 4.362e-10
-0.086, 3.304e-10
-0.085, 5.201e-10
-0.084, 2.628e-10
-0.083, 4.342e-10
-0.082, 3.555e-10
-0.081, 2.435e-10
-0.080, 4.446e-10
-0.079, 1.822e-10
-0.078, 3.448e-10
-0.077, 2.693e-10
-0.076, 1.557e-10
-0.075, 3.433e-10
-0.074, 9.765e-11
-0.073, 2.430e-10
-0.072, 1.803e-10
-0.071, 7.126e-11
-0.070, 2.311e-10
-0.069, -9.891e-12
-0.068, 1.541e-10
-0.067, 5.515e-11
-0.066, -4.071e-11
-0.065, 1.273e-10
-0.064, -1.339e-10
-0.063, 3.024e-11
-0.062, -6.104e-11
-0.061, -1.746e-10
-0.060, 1.195e-12
-0.059, -2.658e-10
-0.058, -1.094e-10
-0.057, -2.072e-10
-0.056, -3.122e-10
-0.055, -1.553e-10
-0.054, -4.243e-10
-0.053, -2.658e-10
-0.052, -3.803e-10
-0.051, -4.956e-10
-0.050, -3.228e-10
-0.049, -6.184e-10
-0.048, -4.516e-10
-0.047, -5.675e-10
-0.046, -7.095e-10
-0.045, -5.293e-10
-0.044, -8.233e-10
-0.043, -6.868e-10
-0.042, -7.897e-10
-0.041, -9.367e-10
-0.040, -7.820e-10
-0.039, -1.070e-9
-0.038, -9.548e-10
-0.037, -1.067e-9
-0.036, -1.207e-9
-0.035, -1.073e-9
-0.034, -1.370e-9
-0.033, -1.259e-9
-0.032, -1.383e-9
-0.031, -1.546e-9
-0.030, -1.414e-9
-0.029, -1.723e-9
-0.028, -1.628e-9
-0.027, -1.765e-9
-0.026, -1.937e-9
-0.025, -1.844e-9
-0.024, -2.148e-9
-0.023, -2.061e-9
-0.022, -2.233e-9
-0.021, -2.400e-9
-0.020, -2.318e-9
-0.019, -2.661e-9
-0.018, -2.575e-9
-0.017, -2.767e-9
-0.016, -2.969e-9
-0.015, -2.885e-9
-0.014, -3.264e-9
-0.013, -3.219e-9
-0.012, -3.404e-9
-0.011, -3.627e-9
-0.010, -3.582e-9
-0.009, -3.969e-9
-0.008, -3.930e-9
-0.007, -4.176e-9
-0.006, -4.428e-9
-0.005, -4.399e-9
-0.004, -4.825e-9
-0.003, -4.815e-9
-0.002, -5.079e-9
-0.001, -5.376e-9
-0.000, -5.456e-9
0.001, -5.856e-9
0.002, -5.914e-9
0.003, -6.170e-9
0.004, -6.509e-9
0.005, -6.564e-9
0.006, -7.024e-9
0.007, -7.129e-9
0.008, -7.466e-9
0.009, -7.819e-9
0.010, -7.927e-9
0.011, -8.456e-9
0.012, -8.581e-9
0.013, -8.967e-9
0.014, -9.377e-9
0.015, -9.535e-9
0.016, -1.009e-8
0.017, -1.029e-8
0.018, -1.071e-8
0.019, -1.118e-8
0.020, -1.140e-8
0.021, -1.200e-8
0.022, -1.224e-8
0.023, -1.278e-8
0.024, -1.325e-8
0.025, -1.355e-8
0.026, -1.425e-8
0.027, -1.453e-8
0.028, -1.510e-8
0.029, -1.568e-8
0.030, -1.601e-8
0.031, -1.678e-8
0.032, -1.713e-8
0.033, -1.775e-8
0.034, -1.841e-8
0.035, -1.881e-8
0.036, -1.960e-8
0.037, -2.005e-8
0.038, -2.075e-8
0.039, -2.146e-8
0.040, -2.191e-8
0.041, -2.280e-8
0.042, -2.332e-8
0.043, -2.405e-8
0.044, -2.485e-8
0.045, -2.535e-8
0.046, -2.627e-8
0.047, -2.689e-8
0.048, -2.766e-8
0.049, -2.848e-8
0.050, -2.911e-8
0.051, -3.004e-8
0.052, -3.071e-8
0.053, -3.156e-8
0.054, -3.238e-8
0.055, -3.307e-8
0.056, -3.402e-8
0.057, -3.469e-8
0.058, -3.558e-8
0.059, -3.645e-8
0.060, -3.713e-8
0.061, -3.813e-8
0.062, -3.879e-8
0.063, -3.970e-8
0.064, -4.058e-8
0.065, -4.126e-8
0.066, -4.226e-8
0.067, -4.289e-8
0.068, -4.381e-8
0.069, -4.462e-8
0.070, -4.526e-8
0.071, -4.627e-8
0.072, -4.683e-8
0.073, -4.770e-8
0.074, -4.854e-8
0.075, -4.907e-8
0.076, -5.003e-8
0.077, -5.060e-8
0.078, -5.134e-8
0.079, -5.213e-8
0.080, -5.258e-8
0.081, -5.339e-8
0.082, -5.392e-8
0.083, -5.456e-8
0.084, -5.521e-8
0.085, -5.562e-8
0.086, -5.636e-8
0.087, -5.674e-8
0.088, -5.728e-8
0.089, -5.788e-8
0.090, -5.816e-8
0.091, -5.875e-8
0.092, -5.906e-8
0.093, -5.946e-8
0.094, -5.989e-8
0.095, -6.012e-8
0.096, -6.055e-8
0.097, -6.071e-8
0.098, -6.108e-8
0.099, -6.132e-8
0.100, -6.143e-8
0.101, -6.180e-8
0.102, -6.186e-8
0.103, -6.210e-8
0.104, -6.227e-8
0.105, -6.220e-8
0.106, -6.251e-8
0.107, -6.242e-8
0.108, -6.253e-8
0.109, -6.262e-8
0.110, -6.246e-8
0.111, -6.268e-8
0.112, -6.246e-8
0.113, -6.250e-8
0.114, -6.252e-8
0.115, -6.227e-8
0.116, -6.240e-8
0.117, -6.212e-8
0.118, -6.206e-8
0.119, -6.203e-8
0.120, -6.165e-8
0.121, -6.174e-8
0.122, -6.142e-8
0.123, -6.127e-8
0.124, -6.121e-8
0.125, -6.080e-8
0.126, -6.080e-8
0.127, -6.046e-8
0.128, -6.030e-8
0.129, -6.013e-8
0.130, -5.973e-8
0.131, -5.970e-8
0.132, -5.929e-8
0.133, -5.909e-8
0.134, -5.892e-8
0.135, -5.849e-8
0.136, -5.844e-8
0.137, -5.800e-8
0.138, -5.779e-8
0.139, -5.760e-8
0.140, -5.716e-8
0.141, -5.708e-8
0.142, -5.663e-8
0.143, -5.645e-8
0.144, -5.621e-8
0.145, -5.576e-8
0.146, -5.573e-8
0.147, -5.523e-8
0.148, -5.504e-8
0.149, -5.485e-8
0.150, -5.435e-8
0.151, -5.433e-8
0.152, -5.386e-8
0.153, -5.364e-8
0.154, -5.348e-8
0.155, -5.301e-8
0.156, -5.295e-8
0.157, -5.252e-8
0.158, -5.231e-8
0.159, -5.213e-8
0.160, -5.167e-8
0.161, -5.164e-8
0.162, -5.121e-8
0.163, -5.100e-8
0.164, -5.086e-8
0.165, -5.040e-8
0.166, -5.039e-8
0.167, -4.998e-8
0.168, -4.977e-8
0.169, -4.963e-8
0.170, -4.921e-8
0.171, -4.918e-8
0.172, -4.879e-8
0.173, -4.861e-8
0.174, -4.847e-8
0.175, -4.807e-8
0.176, -4.807e-8
0.177, -4.767e-8
0.178, -4.752e-8
0.179, -4.740e-8
0.180, -4.698e-8
0.181, -4.702e-8
0.182, -4.663e-8
0.183, -4.648e-8
0.184, -4.637e-8
0.185, -4.598e-8
0.186, -4.601e-8
0.187, -4.565e-8
0.188, -4.553e-8
0.189, -4.542e-8
0.190, -4.504e-8
0.191, -4.511e-8
0.192, -4.474e-8
0.193, -4.463e-8
0.194, -4.456e-8
0.195, -4.416e-8
0.196, -4.425e-8
0.197, -4.391e-8
0.198, -4.379e-8
0.199, -4.373e-8
0.200, -4.337e-8
0.201, -4.343e-8
0.202, -4.312e-8
0.203, -4.302e-8
0.204, -4.296e-8
0.205, -4.262e-8
0.206, -4.271e-8
0.207, -4.239e-8
0.208, -4.230e-8
0.209, -4.227e-8
0.210, -4.192e-8
0.211, -4.202e-8
0.212, -4.172e-8
0.213, -4.163e-8
0.214, -4.160e-8
0.215, -4.129e-8
0.216, -4.137e-8
0.217, -4.109e-8
0.218, -4.103e-8
0.219, -4.098e-8
0.220, -4.068e-8
0.221, -4.080e-8
0.222, -4.049e-8
0.223, -4.045e-8
0.224, -4.043e-8
0.225, -4.010e-8
0.226, -4.025e-8
0.227, -3.995e-8
0.228, -3.990e-8
0.229, -3.990e-8
0.230, -3.960e-8
0.231, -3.974e-8
0.232, -3.946e-8
0.233, -3.941e-8
0.234, -3.941e-8
0.235, -3.911e-8
0.236, -3.926e-8
0.237, -3.897e-8
0.238, -3.895e-8
0.239, -3.897e-8
0.240, -3.864e-8
0.241, -3.881e-8
0.242, -3.855e-8
0.243, -3.850e-8
0.244, -3.853e-8
0.245, -3.825e-8
0.246, -3.838e-8
0.247, -3.815e-8
0.248, -3.811e-8
0.249, -3.812e-8
0.250, -3.786e-8
0.251, -3.801e-8
0.252, -3.775e-8
0.253, -3.774e-8
0.254, -3.776e-8
0.255, -3.748e-8
0.256, -3.765e-8
0.257, -3.741e-8
0.258, -3.739e-8
0.259, -3.742e-8
0.260, -3.715e-8
0.261, -3.731e-8
0.262, -3.708e-8
0.263, -3.707e-8
0.264, -3.709e-8
0.265, -3.683e-8
0.266, -3.702e-8
0.267, -3.676e-8
0.268, -3.677e-8
0.269, -3.681e-8
0.270, -3.652e-8
0.271, -3.673e-8
0.272, -3.648e-8
0.273, -3.647e-8
0.274, -3.654e-8
0.275, -3.626e-8
0.276, -3.644e-8
0.277, -3.622e-8
0.278, -3.622e-8
0.279, -3.626e-8
0.280, -3.601e-8
0.281, -3.620e-8
0.282, -3.597e-8
0.283, -3.598e-8
0.284, -3.603e-8
0.285, -3.576e-8
0.286, -3.597e-8
0.287, -3.575e-8
0.288, -3.573e-8
0.289, -3.580e-8
0.290, -3.555e-8
0.291, -3.573e-8
0.292, -3.553e-8
0.293, -3.554e-8
0.294, -3.558e-8
0.295, -3.535e-8
0.296, -3.554e-8
0.297, -3.531e-8
0.298, -3.535e-8
0.299, -3.540e-8
0.300, -3.372e-8
0.299, -3.314e-8
0.298, -3.275e-8
0.297, -3.261e-8
0.296, -3.258e-8
0.295, -3.224e-8
0.294, -3.233e-8
0.293, -3.206e-8
0.292, -3.198e-8
0.291, -3.198e-8
0.290, -3.168e-8
0.289, -3.181e-8
0.288, -3.154e-8
0.287, -3.150e-8
0.286, -3.152e-8
0.285, -3.121e-8
0.284, -3.137e-8
0.283, -3.111e-8
0.282, -3.107e-8
0.281, -3.110e-8
0.280, -3.081e-8
0.279, -3.096e-8
0.278, -3.072e-8
0.277, -3.070e-8
0.276, -3.070e-8
0.275, -3.045e-8
0.274, -3.062e-8
0.273, -3.035e-8
0.272, -3.035e-8
0.271, -3.038e-8
0.270, -3.010e-8
0.269, -3.028e-8
0.268, -3.004e-8
0.267, -3.002e-8
0.266, -3.007e-8
0.265, -2.979e-8
0.264, -2.996e-8
0.263, -2.974e-8
0.262, -2.973e-8
0.261, -2.976e-8
0.260, -2.950e-8
0.259, -2.968e-8
0.258, -2.944e-8
0.257, -2.943e-8
0.256, -2.949e-8
0.255, -2.921e-8
0.254, -2.939e-8
0.253, -2.916e-8
0.252, -2.913e-8
0.251, -2.920e-8
0.250, -2.894e-8
0.249, -2.909e-8
0.248, -2.889e-8
0.247, -2.887e-8
0.246, -2.891e-8
0.245, -2.866e-8
0.244, -2.883e-8
0.243, -2.860e-8
0.242, -2.860e-8
0.241, -2.865e-8
0.240, -2.838e-8
0.239, -2.857e-8
0.238, -2.834e-8
0.237, -2.832e-8
0.236, -2.837e-8
0.235, -2.812e-8
0.234, -2.828e-8
0.233, -2.806e-8
0.232, -2.805e-8
0.231, -2.809e-8
0.230, -2.783e-8
0.229, -2.801e-8
0.228, -2.777e-8
0.227, -2.778e-8
0.226, -2.782e-8
0.225, -2.754e-8
0.224, -2.774e-8
0.223, -2.750e-8
0.222, -2.747e-8
0.221, -2.753e-8
0.220, -2.725e-8
0.219, -2.743e-8
0.218, -2.720e-8
0.217, -2.718e-8
0.216, -2.722e-8
0.215, -2.696e-8
0.214, -2.713e-8
0.213, -2.689e-8
0.212, -2.687e-8
0.211, -2.692e-8
0.210, -2.662e-8
0.209, -2.680e-8
0.208, -2.658e-8
0.207, -2.652e-8
0.206, -2.657e-8
0.205, -2.629e-8
0.204, -2.643e-8
0.203, -2.620e-8
0.202, -2.617e-8
0.201, -2.618e-8
0.200, -2.591e-8
0.199, -2.605e-8
0.198, -2.579e-8
0.197, -2.576e-8
0.196, -2.578e-8
0.195, -2.548e-8
0.194, -2.562e-8
0.193, -2.536e-8
0.192, -2.530e-8
0.191, -2.532e-8
0.190, -2.501e-8
0.189, -2.513e-8
0.188, -2.486e-8
0.187, -2.481e-8
0.186, -2.480e-8
0.185, -2.447e-8
0.184, -2.461e-8
0.183, -2.430e-8
0.182, -2.423e-8
0.181, -2.421e-8
0.180, -2.385e-8
0.179, -2.397e-8
0.178, -2.367e-8
0.177, -2.355e-8
0.176, -2.353e-8
0.175, -2.318e-8
0.174, -2.323e-8
0.173, -2.293e-8
0.172, -2.280e-8
0.171, -2.274e-8
0.170, -2.237e-8
0.169, -2.241e-8
0.168, -2.207e-8
0.167, -2.193e-8
0.166, -2.184e-8
0.165, -2.143e-8
0.164, -2.145e-8
0.163, -2.111e-8
0.162, -2.091e-8
0.161, -2.079e-8
0.160, -2.037e-8
0.159, -2.035e-8
0.158, -1.994e-8
0.157, -1.975e-8
0.156, -1.956e-8
0.155, -1.913e-8
0.154, -1.908e-8
0.153, -1.861e-8
0.152, -1.838e-8
0.151, -1.818e-8
0.150, -1.766e-8
0.149, -1.758e-8
0.148, -1.707e-8
0.147, -1.680e-8
0.146, -1.656e-8
0.145, -1.599e-8
0.144, -1.585e-8
0.143, -1.530e-8
0.142, -1.496e-8
0.141, -1.465e-8
0.140, -1.403e-8
0.139, -1.385e-8
0.138, -1.325e-8
0.137, -1.284e-8
0.136, -1.251e-8
0.135, -1.181e-8
0.134, -1.157e-8
0.133, -1.093e-8
0.132, -1.043e-8
0.131, -1.004e-8
0.130, -9.312e-9
0.129, -8.959e-9
0.128, -8.254e-9
0.127, -7.726e-9
0.126, -7.232e-9
0.125, -6.454e-9
0.124, -6.042e-9
0.123, -5.284e-9
0.122, -4.698e-9
0.121, -4.136e-9
0.120, -3.307e-9
0.119, -2.810e-9
0.118, -2.010e-9
0.117, -1.329e-9
0.116, -6.998e-10
0.115, 1.611e-10
0.114, 7.321e-10
0.113, 1.623e-9
0.112, 2.290e-9
0.111, 3.017e-9
0.110, 3.937e-9
0.109, 4.502e-9
0.108, 5.497e-9
0.107, 6.186e-9
0.106, 6.919e-9
0.105, 7.941e-9
0.104, 8.513e-9
0.103, 9.535e-9
0.102, 1.031e-8
0.101, 1.104e-8
0.100, 1.206e-8
0.099, 1.265e-8
0.098, 1.362e-8
0.097, 1.442e-8
0.096, 1.513e-8
0.095, 1.614e-8
0.094, 1.680e-8
0.093, 1.774e-8
0.092, 1.853e-8
0.091, 1.921e-8
0.090, 2.023e-8
0.089, 2.082e-8
0.088, 2.169e-8
0.087, 2.248e-8
0.086, 2.311e-8
0.085, 2.401e-8
0.084, 2.463e-8
0.083, 2.542e-8
0.082, 2.607e-8
0.081, 2.672e-8
0.080, 2.753e-8
0.079, 2.802e-8
0.078, 2.879e-8
0.077, 2.933e-8
0.076, 2.992e-8
0.075, 3.061e-8
0.074, 3.098e-8
0.073, 3.167e-8
0.072, 3.210e-8
0.071, 3.257e-8
0.070, 3.314e-8
0.069, 3.341e-8
0.068, 3.401e-8
0.067, 3.429e-8
0.066, 3.463e-8
0.065, 3.517e-8
0.064, 3.529e-8
0.063, 3.577e-8
0.062, 3.598e-8
0.061, 3.611e-8
0.060, 3.660e-8
0.059, 3.655e-8
0.058, 3.689e-8
0.057, 3.704e-8
0.056, 3.707e-8
0.055, 3.740e-8
0.054, 3.731e-8
0.053, 3.751e-8
0.052, 3.758e-8
0.051, 3.752e-8
0.050, 3.773e-8
0.049, 3.755e-8
0.048, 3.767e-8
0.047, 3.761e-8
0.046, 3.746e-8
0.045, 3.760e-8
0.044, 3.734e-8
0.043, 3.738e-8
0.042, 3.725e-8
0.041, 3.705e-8
0.040, 3.710e-8
0.039, 3.679e-8
0.038, 3.676e-8
0.037, 3.656e-8
0.036, 3.633e-8
0.035, 3.630e-8
0.034, 3.592e-8
0.033, 3.591e-8
0.032, 3.563e-8
0.031, 3.533e-8
0.030, 3.532e-8
0.029, 3.488e-8
0.028, 3.481e-8
0.027, 3.452e-8
0.026, 3.419e-8
0.025, 3.418e-8
0.024, 3.370e-8
0.023, 3.360e-8
0.022, 3.331e-8
0.021, 3.295e-8
0.020, 3.293e-8
0.019, 3.241e-8
0.018, 3.232e-8
0.017, 3.203e-8
0.016, 3.164e-8
0.015, 3.160e-8
0.014, 3.110e-8
0.013, 3.100e-8
0.012, 3.073e-8
0.011, 3.032e-8
0.010, 3.027e-8
0.009, 2.981e-8
0.008, 2.969e-8
0.007, 2.940e-8
0.006, 2.904e-8
0.005, 2.898e-8
0.004, 2.851e-8
0.003, 2.841e-8
0.002, 2.813e-8
0.001, 2.777e-8
0.000, 2.781e-8
-0.001, 2.729e-8
-0.002, 2.719e-8
-0.003, 2.692e-8
-0.004, 2.657e-8
-0.005, 2.652e-8
-0.006, 2.608e-8
-0.007, 2.600e-8
-0.008, 2.573e-8
-0.009, 2.540e-8
-0.010, 2.538e-8
-0.011, 2.493e-8
-0.012, 2.490e-8
-0.013, 2.463e-8
-0.014, 2.428e-8
-0.015, 2.431e-8
-0.016, 2.385e-8
-0.017, 2.381e-8
-0.018, 2.358e-8
-0.019, 2.325e-8
-0.020, 2.328e-8
-0.021, 2.285e-8
-0.022, 2.281e-8
-0.023, 2.260e-8
-0.024, 2.230e-8
-0.025, 2.233e-8
-0.026, 2.192e-8
-0.027, 2.190e-8
-0.028, 2.169e-8
-0.029, 2.139e-8
-0.030, 2.145e-8
-0.031, 2.105e-8
-0.032, 2.102e-8
-0.033, 2.085e-8
-0.034, 2.056e-8
-0.035, 2.061e-8
-0.036, 2.025e-8
-0.037, 2.022e-8
-0.038, 2.005e-8
-0.039, 1.980e-8
-0.040, 1.985e-8
-0.041, 1.948e-8
-0.042, 1.950e-8
-0.043, 1.932e-8
-0.044, 1.907e-8
-0.045, 1.915e-8
-0.046, 1.877e-8
-0.047, 1.881e-8
-0.048, 1.865e-8
-0.049, 1.839e-8
-0.050, 1.849e-8
-0.051, 1.814e-8
-0.052, 1.817e-8
-0.053, 1.802e-8
-0.054, 1.779e-8
-0.055, 1.788e-8
-0.056, 1.753e-8
-0.057, 1.759e-8
-0.058, 1.744e-8
-0.059, 1.720e-8
-0.060, 1.733e-8
-0.061, 1.697e-8
-0.062, 1.702e-8
-0.063, 1.691e-8
-0.064, 1.667e-8
-0.065, 1.679e-8
-0.066, 1.646e-8
-0.067, 1.651e-8
-0.068, 1.639e-8
-0.069, 1.617e-8
-0.070, 1.629e-8
-0.071, 1.597e-8
-0.072, 1.604e-8
-0.073, 1.592e-8
-0.074, 1.570e-8
-0.075, 1.585e-8
-0.076, 1.552e-8
-0.077, 1.559e-8
-0.078, 1.549e-8
-0.079, 1.528e-8
-0.080, 1.541e-8
-0.081, 1.511e-8
-0.082, 1.518e-8
-0.083, 1.507e-8
-0.084, 1.488e-8
-0.085, 1.501e-8
-0.086, 1.471e-8
-0.087, 1.481e-8
-0.088, 1.470e-8
-0.089, 1.450e-8
-0.090, 1.466e-8
-0.091, 1.435e-8
-0.092, 1.445e-8
-0.093, 1.435e-8
-0.094, 1.415e-8
-0.095, 1.432e-8
-0.096, 1.402e-8
-0.097, 1.410e-8
-0.098, 1.402e-8
-0.099, 1.383e-8
-0.100, 1.400e-8
-0.101, 1.369e-8
-0.102, 1.380e-8
-0.103, 1.372e-8
-0.104, 1.352e-8
-0.105, 1.370e-8
-0.106, 1.340e-8
-0.107, 1.350e-8
-0.108, 1.344e-8
-0.109, 1.324e-8
-0.110, 1.341e-8
-0.111, 1.314e-8
-0.112, 1.322e-8
-0.113, 1.315e-8
-0.114, 1.299e-8
-0.115, 1.315e-8
-0.116, 1.288e-8
-0.117, 1.298e-8
-0.118, 1.290e-8
-0.119, 1.273e-8
-0.120, 1.292e-8
-0.121, 1.262e-8
-0.122, 1.274e-8
-0.123, 1.267e-8
-0.124, 1.250e-8
-0.125, 1.267e-8
-0.126, 1.241e-8
-0.127, 1.251e-8
-0.128, 1.245e-8
-0.129, 1.229e-8
-0.130, 1.246e-8
-0.131, 1.219e-8
-0.132, 1.232e-8
-0.133, 1.224e-8
-0.134, 1.208e-8
-0.135, 1.228e-8
-0.136, 1.199e-8
-0.137, 1.211e-8
-0.138, 1.207e-8
-0.139, 1.189e-8
-0.140, 1.209e-8
-0.141, 1.182e-8
-0.142, 1.193e-8
-0.143, 1.188e-8
-0.144, 1.172e-8
-0.145, 1.191e-8
-0.146, 1.164e-8
-0.147, 1.176e-8
-0.148, 1.172e-8
-0.149, 1.155e-8
-0.150, 1.175e-8
-0.151, 1.148e-8
-0.152, 1.160e-8
-0.153, 1.156e-8
-0.154, 1.140e-8
-0.155, 1.159e-8
-0.156, 1.134e-8
-0.157, 1.145e-8
-0.158, 1.141e-8
-0.159, 1.127e-8
-0.160, 1.144e-8
-0.161, 1.119e-8
-0.162, 1.132e-8
-0.163, 1.127e-8
-0.164, 1.113e-8
-0.165, 1.132e-8
-0.166, 1.106e-8
-0.167, 1.120e-8
-0.168, 1.115e-8
-0.169, 1.099e-8
-0.170, 1.120e-8
-0.171, 1.095e-8
-0.172, 1.108e-8
-0.173, 1.103e-8
-0.174, 1.088e-8
-0.175, 1.110e-8
-0.176, 1.083e-8
-0.177, 1.097e-8
-0.178, 1.093e-8
-0.179, 1.078e-8
-0.180, 1.099e-8
-0.181, 1.073e-8
-0.182, 1.086e-8
-0.183, 1.085e-8
-0.184, 1.068e-8
-0.185, 1.089e-8
-0.186, 1.065e-8
-0.187, 1.078e-8
-0.188, 1.076e-8
-0.189, 1.060e-8
-0.190, 1.081e-8
-0.191, 1.057e-8
-0.192, 1.070e-8
-0.193, 1.067e-8
-0.194, 1.053e-8
-0.195, 1.074e-8
-0.196, 1.051e-8
-0.197, 1.062e-8
-0.198, 1.061e-8
-0.199, 1.046e-8
