Mar. 16, 2023   09:43:30
Cyclic Voltammetry
File: c:/users/oliverrz/desktop/electrolab/data/2023_03_16\fcmeoh_macros_750_um\electrode1_cv_200mvs_750_um.bin
Data Source:  Experiment
Instrument Model:  CHI760E
Header: CV
Note: 

Init E (V) = -0.2
High E (V) = 0.3
Low E (V) = -0.2
Final E (V) = -0.2
Init P/N = P
Scan Rate (V/s) = 0.2
Segment = 3
Sample Interval (V) = 0.001
Quiet Time (sec) = 2
Sensitivity (A/V) = 1e-7

Results:

Channel 1:
Segment 1:
Ep = 0.119V
ip = -6.938e-8A
Ah = -2.211e-8C

Segment 2:
Ep = 0.057V
ip = 6.281e-8A
Ah = 1.904e-8C

Segment 3:

Potential/V, Current/A

-0.200, 3.022e-9
-0.199, 2.220e-9
-0.198, 1.905e-9
-0.197, 1.942e-9
-0.196, 2.002e-9
-0.195, 1.757e-9
-0.194, 1.692e-9
-0.193, 1.835e-9
-0.192, 1.690e-9
-0.191, 1.499e-9
-0.190, 1.674e-9
-0.189, 1.640e-9
-0.188, 1.401e-9
-0.187, 1.478e-9
-0.186, 1.591e-9
-0.185, 1.341e-9
-0.184, 1.314e-9
-0.183, 1.478e-9
-0.182, 1.342e-9
-0.181, 1.176e-9
-0.180, 1.346e-9
-0.179, 1.314e-9
-0.178, 1.107e-9
-0.177, 1.172e-9
-0.176, 1.297e-9
-0.175, 1.066e-9
-0.174, 1.027e-9
-0.173, 1.219e-9
-0.172, 1.072e-9
-0.171, 9.084e-10
-0.170, 1.102e-9
-0.169, 1.057e-9
-0.168, 8.611e-10
-0.167, 9.363e-10
-0.166, 1.042e-9
-0.165, 8.289e-10
-0.164, 7.879e-10
-0.163, 9.790e-10
-0.162, 8.580e-10
-0.161, 6.675e-10
-0.160, 8.862e-10
-0.159, 8.539e-10
-0.158, 6.245e-10
-0.157, 7.291e-10
-0.156, 8.300e-10
-0.155, 6.125e-10
-0.154, 5.958e-10
-0.153, 7.633e-10
-0.152, 6.414e-10
-0.151, 4.771e-10
-0.150, 6.722e-10
-0.149, 6.546e-10
-0.148, 4.287e-10
-0.147, 5.250e-10
-0.146, 6.608e-10
-0.145, 4.181e-10
-0.144, 4.086e-10
-0.143, 5.931e-10
-0.142, 4.489e-10
-0.141, 3.046e-10
-0.140, 4.877e-10
-0.139, 4.701e-10
-0.138, 2.683e-10
-0.137, 3.400e-10
-0.136, 4.738e-10
-0.135, 2.619e-10
-0.134, 2.302e-10
-0.133, 4.305e-10
-0.132, 2.817e-10
-0.131, 1.386e-10
-0.130, 3.365e-10
-0.129, 3.011e-10
-0.128, 1.037e-10
-0.127, 1.947e-10
-0.126, 3.032e-10
-0.125, 1.055e-10
-0.124, 8.104e-11
-0.123, 2.614e-10
-0.122, 1.444e-10
-0.121, -2.863e-11
-0.120, 1.952e-10
-0.119, 1.553e-10
-0.118, -6.387e-11
-0.117, 5.131e-11
-0.116, 1.623e-10
-0.115, -5.501e-11
-0.114, -5.994e-11
-0.113, 1.003e-10
-0.112, 1.299e-12
-0.111, -1.658e-10
-0.110, 3.261e-11
-0.109, 1.114e-11
-0.108, -1.952e-10
-0.107, -9.488e-11
-0.106, 2.424e-11
-0.105, -2.142e-10
-0.104, -1.994e-10
-0.103, -2.696e-11
-0.102, -1.718e-10
-0.101, -3.119e-10
-0.100, -1.133e-10
-0.099, -1.415e-10
-0.098, -3.349e-10
-0.097, -2.526e-10
-0.096, -1.190e-10
-0.095, -3.485e-10
-0.094, -3.631e-10
-0.093, -1.725e-10
-0.092, -3.165e-10
-0.091, -4.594e-10
-0.090, -2.646e-10
-0.089, -3.120e-10
-0.088, -4.923e-10
-0.087, -3.977e-10
-0.086, -2.912e-10
-0.085, -5.047e-10
-0.084, -5.298e-10
-0.083, -3.336e-10
-0.082, -4.718e-10
-0.081, -6.436e-10
-0.080, -4.217e-10
-0.079, -4.671e-10
-0.078, -6.827e-10
-0.077, -5.654e-10
-0.076, -4.783e-10
-0.075, -6.977e-10
-0.074, -6.929e-10
-0.073, -5.344e-10
-0.072, -6.611e-10
-0.071, -8.236e-10
-0.070, -6.351e-10
-0.069, -6.595e-10
-0.068, -8.845e-10
-0.067, -7.725e-10
-0.066, -6.855e-10
-0.065, -9.186e-10
-0.064, -9.166e-10
-0.063, -7.615e-10
-0.062, -9.062e-10
-0.061, -1.061e-9
-0.060, -8.733e-10
-0.059, -9.188e-10
-0.058, -1.114e-9
-0.057, -1.053e-9
-0.056, -9.348e-10
-0.055, -1.189e-9
-0.054, -1.200e-9
-0.053, -1.037e-9
-0.052, -1.202e-9
-0.051, -1.364e-9
-0.050, -1.171e-9
-0.049, -1.246e-9
-0.048, -1.450e-9
-0.047, -1.371e-9
-0.046, -1.298e-9
-0.045, -1.530e-9
-0.044, -1.575e-9
-0.043, -1.416e-9
-0.042, -1.581e-9
-0.041, -1.777e-9
-0.040, -1.584e-9
-0.039, -1.667e-9
-0.038, -1.909e-9
-0.037, -1.820e-9
-0.036, -1.774e-9
-0.035, -2.025e-9
-0.034, -2.060e-9
-0.033, -1.948e-9
-0.032, -2.115e-9
-0.031, -2.316e-9
-0.030, -2.170e-9
-0.029, -2.243e-9
-0.028, -2.517e-9
-0.027, -2.451e-9
-0.026, -2.420e-9
-0.025, -2.718e-9
-0.024, -2.762e-9
-0.023, -2.654e-9
-0.022, -2.879e-9
-0.021, -3.080e-9
-0.020, -2.961e-9
-0.019, -3.081e-9
-0.018, -3.370e-9
-0.017, -3.355e-9
-0.016, -3.332e-9
-0.015, -3.642e-9
-0.014, -3.750e-9
-0.013, -3.674e-9
-0.012, -3.923e-9
-0.011, -4.163e-9
-0.010, -4.076e-9
-0.009, -4.257e-9
-0.008, -4.563e-9
-0.007, -4.584e-9
-0.006, -4.639e-9
-0.005, -4.982e-9
-0.004, -5.135e-9
-0.003, -5.112e-9
-0.002, -5.398e-9
-0.001, -5.724e-9
-0.000, -5.782e-9
0.001, -5.943e-9
0.002, -6.305e-9
0.003, -6.372e-9
0.004, -6.494e-9
0.005, -6.904e-9
0.006, -7.102e-9
0.007, -7.180e-9
0.008, -7.536e-9
0.009, -7.905e-9
0.010, -7.966e-9
0.011, -8.257e-9
0.012, -8.729e-9
0.013, -8.883e-9
0.014, -9.080e-9
0.015, -9.587e-9
0.016, -9.861e-9
0.017, -1.002e-8
0.018, -1.050e-8
0.019, -1.095e-8
0.020, -1.112e-8
0.021, -1.151e-8
0.022, -1.205e-8
0.023, -1.236e-8
0.024, -1.263e-8
0.025, -1.327e-8
0.026, -1.369e-8
0.027, -1.394e-8
0.028, -1.455e-8
0.029, -1.511e-8
0.030, -1.538e-8
0.031, -1.596e-8
0.032, -1.661e-8
0.033, -1.702e-8
0.034, -1.749e-8
0.035, -1.820e-8
0.036, -1.879e-8
0.037, -1.918e-8
0.038, -1.990e-8
0.039, -2.065e-8
0.040, -2.105e-8
0.041, -2.175e-8
0.042, -2.259e-8
0.043, -2.312e-8
0.044, -2.376e-8
0.045, -2.462e-8
0.046, -2.532e-8
0.047, -2.592e-8
0.048, -2.676e-8
0.049, -2.765e-8
0.050, -2.823e-8
0.051, -2.909e-8
0.052, -3.005e-8
0.053, -3.075e-8
0.054, -3.151e-8
0.055, -3.254e-8
0.056, -3.334e-8
0.057, -3.406e-8
0.058, -3.508e-8
0.059, -3.601e-8
0.060, -3.679e-8
0.061, -3.768e-8
0.062, -3.874e-8
0.063, -3.962e-8
0.064, -4.042e-8
0.065, -4.153e-8
0.066, -4.245e-8
0.067, -4.321e-8
0.068, -4.436e-8
0.069, -4.531e-8
0.070, -4.608e-8
0.071, -4.712e-8
0.072, -4.813e-8
0.073, -4.899e-8
0.074, -4.986e-8
0.075, -5.091e-8
0.076, -5.186e-8
0.077, -5.260e-8
0.078, -5.364e-8
0.079, -5.462e-8
0.080, -5.527e-8
0.081, -5.625e-8
0.082, -5.720e-8
0.083, -5.791e-8
0.084, -5.871e-8
0.085, -5.964e-8
0.086, -6.040e-8
0.087, -6.104e-8
0.088, -6.188e-8
0.089, -6.272e-8
0.090, -6.323e-8
0.091, -6.396e-8
0.092, -6.476e-8
0.093, -6.525e-8
0.094, -6.581e-8
0.095, -6.659e-8
0.096, -6.705e-8
0.097, -6.748e-8
0.098, -6.810e-8
0.099, -6.860e-8
0.100, -6.895e-8
0.101, -6.939e-8
0.102, -6.995e-8
0.103, -7.024e-8
0.104, -7.045e-8
0.105, -7.095e-8
0.106, -7.121e-8
0.107, -7.129e-8
0.108, -7.169e-8
0.109, -7.192e-8
0.110, -7.194e-8
0.111, -7.218e-8
0.112, -7.238e-8
0.113, -7.240e-8
0.114, -7.242e-8
0.115, -7.262e-8
0.116, -7.267e-8
0.117, -7.251e-8
0.118, -7.262e-8
0.119, -7.270e-8
0.120, -7.241e-8
0.121, -7.241e-8
0.122, -7.250e-8
0.123, -7.222e-8
0.124, -7.208e-8
0.125, -7.207e-8
0.126, -7.189e-8
0.127, -7.160e-8
0.128, -7.154e-8
0.129, -7.144e-8
0.130, -7.103e-8
0.131, -7.082e-8
0.132, -7.078e-8
0.133, -7.039e-8
0.134, -7.005e-8
0.135, -6.999e-8
0.136, -6.967e-8
0.137, -6.922e-8
0.138, -6.910e-8
0.139, -6.886e-8
0.140, -6.840e-8
0.141, -6.814e-8
0.142, -6.798e-8
0.143, -6.756e-8
0.144, -6.713e-8
0.145, -6.701e-8
0.146, -6.665e-8
0.147, -6.615e-8
0.148, -6.601e-8
0.149, -6.573e-8
0.150, -6.519e-8
0.151, -6.493e-8
0.152, -6.474e-8
0.153, -6.429e-8
0.154, -6.388e-8
0.155, -6.372e-8
0.156, -6.338e-8
0.157, -6.285e-8
0.158, -6.267e-8
0.159, -6.244e-8
0.160, -6.188e-8
0.161, -6.160e-8
0.162, -6.147e-8
0.163, -6.098e-8
0.164, -6.060e-8
0.165, -6.045e-8
0.166, -6.012e-8
0.167, -5.963e-8
0.168, -5.946e-8
0.169, -5.924e-8
0.170, -5.875e-8
0.171, -5.848e-8
0.172, -5.838e-8
0.173, -5.790e-8
0.174, -5.754e-8
0.175, -5.745e-8
0.176, -5.712e-8
0.177, -5.665e-8
0.178, -5.654e-8
0.179, -5.635e-8
0.180, -5.587e-8
0.181, -5.564e-8
0.182, -5.555e-8
0.183, -5.514e-8
0.184, -5.479e-8
0.185, -5.472e-8
0.186, -5.445e-8
0.187, -5.401e-8
0.188, -5.392e-8
0.189, -5.375e-8
0.190, -5.330e-8
0.191, -5.313e-8
0.192, -5.306e-8
0.193, -5.268e-8
0.194, -5.238e-8
0.195, -5.233e-8
0.196, -5.210e-8
0.197, -5.169e-8
0.198, -5.163e-8
0.199, -5.152e-8
0.200, -5.109e-8
0.201, -5.092e-8
0.202, -5.092e-8
0.203, -5.055e-8
0.204, -5.031e-8
0.205, -5.030e-8
0.206, -5.007e-8
0.207, -4.970e-8
0.208, -4.967e-8
0.209, -4.956e-8
0.210, -4.920e-8
0.211, -4.904e-8
0.212, -4.907e-8
0.213, -4.873e-8
0.214, -4.849e-8
0.215, -4.853e-8
0.216, -4.831e-8
0.217, -4.797e-8
0.218, -4.799e-8
0.219, -4.789e-8
0.220, -4.754e-8
0.221, -4.742e-8
0.222, -4.746e-8
0.223, -4.716e-8
0.224, -4.693e-8
0.225, -4.699e-8
0.226, -4.682e-8
0.227, -4.647e-8
0.228, -4.651e-8
0.229, -4.645e-8
0.230, -4.612e-8
0.231, -4.603e-8
0.232, -4.607e-8
0.233, -4.578e-8
0.234, -4.561e-8
0.235, -4.566e-8
0.236, -4.552e-8
0.237, -4.520e-8
0.238, -4.525e-8
0.239, -4.522e-8
0.240, -4.489e-8
0.241, -4.482e-8
0.242, -4.491e-8
0.243, -4.463e-8
0.244, -4.446e-8
0.245, -4.454e-8
0.246, -4.441e-8
0.247, -4.412e-8
0.248, -4.417e-8
0.249, -4.415e-8
0.250, -4.387e-8
0.251, -4.379e-8
0.252, -4.391e-8
0.253, -4.363e-8
0.254, -4.347e-8
0.255, -4.359e-8
0.256, -4.345e-8
0.257, -4.318e-8
0.258, -4.327e-8
0.259, -4.324e-8
0.260, -4.297e-8
0.261, -4.292e-8
0.262, -4.302e-8
0.263, -4.279e-8
0.264, -4.263e-8
0.265, -4.275e-8
0.266, -4.265e-8
0.267, -4.237e-8
0.268, -4.248e-8
0.269, -4.246e-8
0.270, -4.219e-8
0.271, -4.219e-8
0.272, -4.229e-8
0.273, -4.205e-8
0.274, -4.194e-8
0.275, -4.204e-8
0.276, -4.196e-8
0.277, -4.170e-8
0.278, -4.180e-8
0.279, -4.183e-8
0.280, -4.155e-8
0.281, -4.155e-8
0.282, -4.168e-8
0.283, -4.143e-8
0.284, -4.133e-8
0.285, -4.146e-8
0.286, -4.136e-8
0.287, -4.114e-8
0.288, -4.124e-8
0.289, -4.126e-8
0.290, -4.102e-8
0.291, -4.100e-8
0.292, -4.115e-8
0.293, -4.093e-8
0.294, -4.082e-8
0.295, -4.098e-8
0.296, -4.087e-8
0.297, -4.065e-8
0.298, -4.079e-8
0.299, -4.080e-8
0.300, -3.810e-8
0.299, -3.627e-8
0.298, -3.610e-8
0.297, -3.563e-8
0.296, -3.538e-8
0.295, -3.535e-8
0.294, -3.513e-8
0.293, -3.479e-8
0.292, -3.478e-8
0.291, -3.472e-8
0.290, -3.437e-8
0.289, -3.426e-8
0.288, -3.435e-8
0.287, -3.402e-8
0.286, -3.386e-8
0.285, -3.393e-8
0.284, -3.375e-8
0.283, -3.348e-8
0.282, -3.354e-8
0.281, -3.348e-8
0.280, -3.320e-8
0.279, -3.314e-8
0.278, -3.322e-8
0.277, -3.295e-8
0.276, -3.278e-8
0.275, -3.290e-8
0.274, -3.277e-8
0.273, -3.248e-8
0.272, -3.258e-8
0.271, -3.255e-8
0.270, -3.226e-8
0.269, -3.223e-8
0.268, -3.232e-8
0.267, -3.207e-8
0.266, -3.194e-8
0.265, -3.204e-8
0.264, -3.192e-8
0.263, -3.165e-8
0.262, -3.176e-8
0.261, -3.175e-8
0.260, -3.144e-8
0.259, -3.144e-8
0.258, -3.154e-8
0.257, -3.129e-8
0.256, -3.116e-8
0.255, -3.128e-8
0.254, -3.116e-8
0.253, -3.091e-8
0.252, -3.099e-8
0.251, -3.101e-8
0.250, -3.072e-8
0.249, -3.069e-8
0.248, -3.082e-8
0.247, -3.056e-8
0.246, -3.044e-8
0.245, -3.056e-8
0.244, -3.044e-8
0.243, -3.019e-8
0.242, -3.030e-8
0.241, -3.028e-8
0.240, -3.002e-8
0.239, -2.999e-8
0.238, -3.011e-8
0.237, -2.987e-8
0.236, -2.973e-8
0.235, -2.987e-8
0.234, -2.975e-8
0.233, -2.948e-8
0.232, -2.960e-8
0.231, -2.957e-8
0.230, -2.931e-8
0.229, -2.929e-8
0.228, -2.939e-8
0.227, -2.915e-8
0.226, -2.903e-8
0.225, -2.913e-8
0.224, -2.903e-8
0.223, -2.876e-8
0.222, -2.886e-8
0.221, -2.884e-8
0.220, -2.856e-8
0.219, -2.854e-8
0.218, -2.864e-8
0.217, -2.836e-8
0.216, -2.825e-8
0.215, -2.835e-8
0.214, -2.822e-8
0.213, -2.795e-8
0.212, -2.803e-8
0.211, -2.802e-8
0.210, -2.772e-8
0.209, -2.767e-8
0.208, -2.778e-8
0.207, -2.748e-8
0.206, -2.736e-8
0.205, -2.744e-8
0.204, -2.728e-8
0.203, -2.703e-8
0.202, -2.709e-8
0.201, -2.702e-8
0.200, -2.673e-8
0.199, -2.667e-8
0.198, -2.674e-8
0.197, -2.643e-8
0.196, -2.626e-8
0.195, -2.635e-8
0.194, -2.616e-8
0.193, -2.585e-8
0.192, -2.591e-8
0.191, -2.580e-8
0.190, -2.548e-8
0.189, -2.541e-8
0.188, -2.543e-8
0.187, -2.510e-8
0.186, -2.491e-8
0.185, -2.492e-8
0.184, -2.473e-8
0.183, -2.437e-8
0.182, -2.439e-8
0.181, -2.425e-8
0.180, -2.386e-8
0.179, -2.375e-8
0.178, -2.374e-8
0.177, -2.333e-8
0.176, -2.312e-8
0.175, -2.308e-8
0.174, -2.280e-8
0.173, -2.242e-8
0.172, -2.234e-8
0.171, -2.219e-8
0.170, -2.174e-8
0.169, -2.154e-8
0.168, -2.148e-8
0.167, -2.099e-8
0.166, -2.071e-8
0.165, -2.062e-8
0.164, -2.024e-8
0.163, -1.980e-8
0.162, -1.968e-8
0.161, -1.938e-8
0.160, -1.890e-8
0.159, -1.861e-8
0.158, -1.844e-8
0.157, -1.790e-8
0.156, -1.750e-8
0.155, -1.731e-8
0.154, -1.685e-8
0.153, -1.629e-8
0.152, -1.606e-8
0.151, -1.568e-8
0.150, -1.505e-8
0.149, -1.468e-8
0.148, -1.434e-8
0.147, -1.374e-8
0.146, -1.321e-8
0.145, -1.286e-8
0.144, -1.232e-8
0.143, -1.161e-8
0.142, -1.126e-8
0.141, -1.074e-8
0.140, -9.956e-9
0.139, -9.494e-9
0.138, -9.023e-9
0.137, -8.242e-9
0.136, -7.594e-9
0.135, -7.104e-9
0.134, -6.424e-9
0.133, -5.576e-9
0.132, -5.033e-9
0.131, -4.422e-9
0.130, -3.495e-9
0.129, -2.837e-9
0.128, -2.245e-9
0.127, -1.278e-9
0.126, -5.459e-10
0.125, 1.076e-10
0.124, 9.833e-10
0.123, 1.920e-9
0.122, 2.605e-9
0.121, 3.397e-9
0.120, 4.411e-9
0.119, 5.239e-9
0.118, 5.934e-9
0.117, 7.009e-9
0.116, 7.945e-9
0.115, 8.675e-9
0.114, 9.661e-9
0.113, 1.073e-8
0.112, 1.145e-8
0.111, 1.242e-8
0.110, 1.349e-8
0.109, 1.435e-8
0.108, 1.520e-8
0.107, 1.626e-8
0.106, 1.725e-8
0.105, 1.808e-8
0.104, 1.906e-8
0.103, 2.019e-8
0.102, 2.096e-8
0.101, 2.188e-8
0.100, 2.304e-8
0.099, 2.379e-8
0.098, 2.466e-8
0.097, 2.574e-8
0.096, 2.659e-8
0.095, 2.741e-8
0.094, 2.829e-8
0.093, 2.929e-8
0.092, 3.001e-8
0.091, 3.078e-8
0.090, 3.183e-8
0.089, 3.255e-8
0.088, 3.320e-8
0.087, 3.417e-8
0.086, 3.485e-8
0.085, 3.545e-8
0.084, 3.627e-8
0.083, 3.698e-8
0.082, 3.751e-8
0.081, 3.814e-8
0.080, 3.890e-8
0.079, 3.942e-8
0.078, 3.984e-8
0.077, 4.055e-8
0.076, 4.107e-8
0.075, 4.138e-8
0.074, 4.189e-8
0.073, 4.245e-8
0.072, 4.266e-8
0.071, 4.305e-8
0.070, 4.353e-8
0.069, 4.375e-8
0.068, 4.396e-8
0.067, 4.433e-8
0.066, 4.461e-8
0.065, 4.465e-8
0.064, 4.491e-8
0.063, 4.522e-8
0.062, 4.517e-8
0.061, 4.524e-8
0.060, 4.554e-8
0.059, 4.547e-8
0.058, 4.541e-8
0.057, 4.561e-8
0.056, 4.560e-8
0.055, 4.545e-8
0.054, 4.547e-8
0.053, 4.554e-8
0.052, 4.533e-8
0.051, 4.518e-8
0.050, 4.529e-8
0.049, 4.505e-8
0.048, 4.476e-8
0.047, 4.482e-8
0.046, 4.464e-8
0.045, 4.428e-8
0.044, 4.421e-8
0.043, 4.408e-8
0.042, 4.372e-8
0.041, 4.348e-8
0.040, 4.341e-8
0.039, 4.311e-8
0.038, 4.271e-8
0.037, 4.263e-8
0.036, 4.239e-8
0.035, 4.189e-8
0.034, 4.172e-8
0.033, 4.159e-8
0.032, 4.110e-8
0.031, 4.079e-8
0.030, 4.068e-8
0.029, 4.029e-8
0.028, 3.986e-8
0.027, 3.971e-8
0.026, 3.945e-8
0.025, 3.896e-8
0.024, 3.870e-8
0.023, 3.855e-8
0.022, 3.805e-8
0.021, 3.770e-8
0.020, 3.762e-8
0.019, 3.718e-8
0.018, 3.674e-8
0.017, 3.661e-8
0.016, 3.630e-8
0.015, 3.583e-8
0.014, 3.560e-8
0.013, 3.544e-8
0.012, 3.498e-8
0.011, 3.461e-8
0.010, 3.452e-8
0.009, 3.414e-8
0.008, 3.368e-8
0.007, 3.358e-8
0.006, 3.332e-8
0.005, 3.282e-8
0.004, 3.266e-8
0.003, 3.248e-8
0.002, 3.203e-8
0.001, 3.172e-8
0.000, 3.175e-8
-0.001, 3.131e-8
-0.002, 3.088e-8
-0.003, 3.079e-8
-0.004, 3.058e-8
-0.005, 3.009e-8
-0.006, 2.994e-8
-0.007, 2.984e-8
-0.008, 2.939e-8
-0.009, 2.912e-8
-0.010, 2.908e-8
-0.011, 2.874e-8
-0.012, 2.837e-8
-0.013, 2.832e-8
-0.014, 2.811e-8
-0.015, 2.770e-8
-0.016, 2.755e-8
-0.017, 2.748e-8
-0.018, 2.708e-8
-0.019, 2.683e-8
-0.020, 2.684e-8
-0.021, 2.652e-8
-0.022, 2.617e-8
-0.023, 2.617e-8
-0.024, 2.598e-8
-0.025, 2.560e-8
-0.026, 2.550e-8
-0.027, 2.544e-8
-0.028, 2.510e-8
-0.029, 2.485e-8
-0.030, 2.488e-8
-0.031, 2.462e-8
-0.032, 2.428e-8
-0.033, 2.431e-8
-0.034, 2.415e-8
-0.035, 2.377e-8
-0.036, 2.373e-8
-0.037, 2.368e-8
-0.038, 2.336e-8
-0.039, 2.316e-8
-0.040, 2.321e-8
-0.041, 2.295e-8
-0.042, 2.266e-8
-0.043, 2.270e-8
-0.044, 2.260e-8
-0.045, 2.222e-8
-0.046, 2.219e-8
-0.047, 2.219e-8
-0.048, 2.187e-8
-0.049, 2.170e-8
-0.050, 2.179e-8
-0.051, 2.156e-8
-0.052, 2.128e-8
-0.053, 2.134e-8
-0.054, 2.123e-8
-0.055, 2.092e-8
-0.056, 2.088e-8
-0.057, 2.092e-8
-0.058, 2.061e-8
-0.059, 2.045e-8
-0.060, 2.057e-8
-0.061, 2.034e-8
-0.062, 2.008e-8
-0.063, 2.018e-8
-0.064, 2.008e-8
-0.065, 1.979e-8
-0.066, 1.977e-8
-0.067, 1.980e-8
-0.068, 1.954e-8
-0.069, 1.939e-8
-0.070, 1.951e-8
-0.071, 1.931e-8
-0.072, 1.906e-8
-0.073, 1.917e-8
-0.074, 1.910e-8
-0.075, 1.879e-8
-0.076, 1.883e-8
-0.077, 1.887e-8
-0.078, 1.859e-8
-0.079, 1.849e-8
-0.080, 1.860e-8
-0.081, 1.842e-8
-0.082, 1.820e-8
-0.083, 1.830e-8
-0.084, 1.826e-8
-0.085, 1.796e-8
-0.086, 1.799e-8
-0.087, 1.806e-8
-0.088, 1.779e-8
-0.089, 1.770e-8
-0.090, 1.784e-8
-0.091, 1.765e-8
-0.092, 1.746e-8
-0.093, 1.755e-8
-0.094, 1.753e-8
-0.095, 1.725e-8
-0.096, 1.728e-8
-0.097, 1.736e-8
-0.098, 1.711e-8
-0.099, 1.701e-8
-0.100, 1.717e-8
-0.101, 1.699e-8
-0.102, 1.680e-8
-0.103, 1.694e-8
-0.104, 1.689e-8
-0.105, 1.663e-8
-0.106, 1.668e-8
-0.107, 1.675e-8
-0.108, 1.652e-8
-0.109, 1.643e-8
-0.110, 1.659e-8
-0.111, 1.643e-8
-0.112, 1.622e-8
-0.113, 1.638e-8
-0.114, 1.635e-8
-0.115, 1.608e-8
-0.116, 1.616e-8
-0.117, 1.622e-8
-0.118, 1.599e-8
-0.119, 1.593e-8
-0.120, 1.608e-8
-0.121, 1.593e-8
-0.122, 1.575e-8
-0.123, 1.590e-8
-0.124, 1.589e-8
-0.125, 1.561e-8
-0.126, 1.569e-8
-0.127, 1.579e-8
-0.128, 1.556e-8
-0.129, 1.550e-8
-0.130, 1.567e-8
-0.131, 1.551e-8
-0.132, 1.535e-8
-0.133, 1.549e-8
-0.134, 1.548e-8
-0.135, 1.524e-8
-0.136, 1.530e-8
-0.137, 1.541e-8
-0.138, 1.519e-8
-0.139, 1.512e-8
-0.140, 1.532e-8
-0.141, 1.516e-8
-0.142, 1.499e-8
-0.143, 1.517e-8
-0.144, 1.514e-8
-0.145, 1.491e-8
-0.146, 1.499e-8
-0.147, 1.509e-8
-0.148, 1.489e-8
-0.149, 1.482e-8
-0.150, 1.501e-8
-0.151, 1.487e-8
-0.152, 1.470e-8
-0.153, 1.488e-8
-0.154, 1.487e-8
-0.155, 1.463e-8
-0.156, 1.473e-8
-0.157, 1.482e-8
-0.158, 1.463e-8
-0.159, 1.459e-8
-0.160, 1.476e-8
-0.161, 1.463e-8
-0.162, 1.448e-8
-0.163, 1.465e-8
-0.164, 1.465e-8
-0.165, 1.442e-8
-0.166, 1.452e-8
-0.167, 1.463e-8
-0.168, 1.442e-8
-0.169, 1.439e-8
-0.170, 1.458e-8
-0.171, 1.444e-8
-0.172, 1.431e-8
-0.173, 1.446e-8
-0.174, 1.447e-8
-0.175, 1.427e-8
-0.176, 1.435e-8
-0.177, 1.448e-8
-0.178, 1.428e-8
-0.179, 1.424e-8
-0.180, 1.446e-8
-0.181, 1.430e-8
-0.182, 1.417e-8
-0.183, 1.436e-8
-0.184, 1.435e-8
-0.185, 1.415e-8
-0.186, 1.425e-8
-0.187, 1.436e-8
-0.188, 1.419e-8
-0.189, 1.414e-8
-0.190, 1.436e-8
-0.191, 1.423e-8
-0.192, 1.409e-8
-0.193, 1.429e-8
-0.194, 1.429e-8
-0.195, 1.407e-8
-0.196, 1.421e-8
-0.197, 1.431e-8
-0.198, 1.413e-8
-0.199, 1.411e-8
