Mar. 16, 2023   09:52:47
Cyclic Voltammetry
File: c:/users/oliverrz/desktop/electrolab/data/2023_03_16\fcmeoh_macros_750_um\electrode8_cv_200mvs_750_um.bin
Data Source:  Experiment
Instrument Model:  CHI760E
Header: CV
Note: 

Init E (V) = -0.2
High E (V) = 0.3
Low E (V) = -0.2
Final E (V) = -0.2
Init P/N = P
Scan Rate (V/s) = 0.2
Segment = 3
Sample Interval (V) = 0.001
Quiet Time (sec) = 2
Sensitivity (A/V) = 1e-7

Results:

Channel 1:
Segment 1:
Ep = 0.108V
ip = -6.842e-8A
Ah = -2.084e-8C

Segment 2:
Ep = 0.047V
ip = 6.345e-8A
Ah = 1.968e-8C

Segment 3:

Potential/V, Current/A

-0.200, 4.740e-9
-0.199, 3.806e-9
-0.198, 3.584e-9
-0.197, 3.746e-9
-0.196, 3.578e-9
-0.195, 3.320e-9
-0.194, 3.442e-9
-0.193, 3.434e-9
-0.192, 3.158e-9
-0.191, 3.160e-9
-0.190, 3.288e-9
-0.189, 3.057e-9
-0.188, 2.921e-9
-0.187, 3.116e-9
-0.186, 2.991e-9
-0.185, 2.734e-9
-0.184, 2.898e-9
-0.183, 2.913e-9
-0.182, 2.636e-9
-0.181, 2.667e-9
-0.180, 2.800e-9
-0.179, 2.573e-9
-0.178, 2.463e-9
-0.177, 2.642e-9
-0.176, 2.549e-9
-0.175, 2.300e-9
-0.174, 2.449e-9
-0.173, 2.492e-9
-0.172, 2.221e-9
-0.171, 2.242e-9
-0.170, 2.410e-9
-0.169, 2.164e-9
-0.168, 2.067e-9
-0.167, 2.257e-9
-0.166, 2.147e-9
-0.165, 1.930e-9
-0.164, 2.078e-9
-0.163, 2.115e-9
-0.162, 1.865e-9
-0.161, 1.870e-9
-0.160, 2.054e-9
-0.159, 1.823e-9
-0.158, 1.706e-9
-0.157, 1.928e-9
-0.156, 1.807e-9
-0.155, 1.583e-9
-0.154, 1.749e-9
-0.153, 1.764e-9
-0.152, 1.530e-9
-0.151, 1.563e-9
-0.150, 1.721e-9
-0.149, 1.503e-9
-0.148, 1.391e-9
-0.147, 1.609e-9
-0.146, 1.511e-9
-0.145, 1.263e-9
-0.144, 1.459e-9
-0.143, 1.482e-9
-0.142, 1.228e-9
-0.141, 1.260e-9
-0.140, 1.430e-9
-0.139, 1.213e-9
-0.138, 1.123e-9
-0.137, 1.314e-9
-0.136, 1.231e-9
-0.135, 1.004e-9
-0.134, 1.168e-9
-0.133, 1.215e-9
-0.132, 9.589e-10
-0.131, 1.005e-9
-0.130, 1.177e-9
-0.129, 9.389e-10
-0.128, 8.499e-10
-0.127, 1.062e-9
-0.126, 9.602e-10
-0.125, 7.511e-10
-0.124, 9.188e-10
-0.123, 9.560e-10
-0.122, 7.217e-10
-0.121, 7.343e-10
-0.120, 9.352e-10
-0.119, 7.010e-10
-0.118, 6.002e-10
-0.117, 8.218e-10
-0.116, 7.164e-10
-0.115, 4.930e-10
-0.114, 6.812e-10
-0.113, 7.030e-10
-0.112, 4.675e-10
-0.111, 5.065e-10
-0.110, 6.810e-10
-0.109, 4.582e-10
-0.108, 3.632e-10
-0.107, 5.786e-10
-0.106, 4.906e-10
-0.105, 2.453e-10
-0.104, 4.511e-10
-0.103, 4.623e-10
-0.102, 2.178e-10
-0.101, 2.686e-10
-0.100, 4.376e-10
-0.099, 2.173e-10
-0.098, 1.372e-10
-0.097, 3.258e-10
-0.096, 2.549e-10
-0.095, 1.961e-11
-0.094, 1.970e-10
-0.093, 2.386e-10
-0.092, -1.189e-11
-0.091, 2.985e-11
-0.090, 2.002e-10
-0.089, -3.660e-11
-0.088, -1.047e-10
-0.087, 9.040e-11
-0.086, -9.727e-12
-0.085, -2.219e-10
-0.084, -5.580e-11
-0.083, -1.859e-11
-0.082, -2.610e-10
-0.081, -2.407e-10
-0.080, -6.122e-11
-0.079, -2.872e-10
-0.078, -3.827e-10
-0.077, -1.816e-10
-0.076, -2.858e-10
-0.075, -5.067e-10
-0.074, -3.217e-10
-0.073, -3.198e-10
-0.072, -5.509e-10
-0.071, -5.195e-10
-0.070, -3.696e-10
-0.069, -5.912e-10
-0.068, -6.940e-10
-0.067, -4.940e-10
-0.066, -5.997e-10
-0.065, -8.400e-10
-0.064, -6.643e-10
-0.063, -6.504e-10
-0.062, -9.116e-10
-0.061, -8.727e-10
-0.060, -7.326e-10
-0.059, -9.669e-10
-0.058, -1.054e-9
-0.057, -8.959e-10
-0.056, -9.863e-10
-0.055, -1.230e-9
-0.054, -1.082e-9
-0.053, -1.065e-9
-0.052, -1.354e-9
-0.051, -1.321e-9
-0.050, -1.170e-9
-0.049, -1.445e-9
-0.048, -1.536e-9
-0.047, -1.374e-9
-0.046, -1.510e-9
-0.045, -1.754e-9
-0.044, -1.614e-9
-0.043, -1.633e-9
-0.042, -1.895e-9
-0.041, -1.917e-9
-0.040, -1.767e-9
-0.039, -2.063e-9
-0.038, -2.196e-9
-0.037, -2.023e-9
-0.036, -2.188e-9
-0.035, -2.450e-9
-0.034, -2.326e-9
-0.033, -2.383e-9
-0.032, -2.657e-9
-0.031, -2.698e-9
-0.030, -2.604e-9
-0.029, -2.893e-9
-0.028, -3.060e-9
-0.027, -2.929e-9
-0.026, -3.115e-9
-0.025, -3.434e-9
-0.024, -3.313e-9
-0.023, -3.408e-9
-0.022, -3.727e-9
-0.021, -3.779e-9
-0.020, -3.731e-9
-0.019, -4.061e-9
-0.018, -4.257e-9
-0.017, -4.189e-9
-0.016, -4.397e-9
-0.015, -4.742e-9
-0.014, -4.703e-9
-0.013, -4.826e-9
-0.012, -5.213e-9
-0.011, -5.308e-9
-0.010, -5.299e-9
-0.009, -5.712e-9
-0.008, -5.932e-9
-0.007, -5.923e-9
-0.006, -6.222e-9
-0.005, -6.613e-9
-0.004, -6.634e-9
-0.003, -6.818e-9
-0.002, -7.266e-9
-0.001, -7.468e-9
-0.000, -7.633e-9
0.001, -8.036e-9
0.002, -8.352e-9
0.003, -8.371e-9
0.004, -8.782e-9
0.005, -9.246e-9
0.006, -9.338e-9
0.007, -9.653e-9
0.008, -1.015e-8
0.009, -1.044e-8
0.010, -1.063e-8
0.011, -1.116e-8
0.012, -1.160e-8
0.013, -1.176e-8
0.014, -1.224e-8
0.015, -1.285e-8
0.016, -1.303e-8
0.017, -1.346e-8
0.018, -1.411e-8
0.019, -1.447e-8
0.020, -1.479e-8
0.021, -1.547e-8
0.022, -1.601e-8
0.023, -1.634e-8
0.024, -1.693e-8
0.025, -1.766e-8
0.026, -1.804e-8
0.027, -1.856e-8
0.028, -1.937e-8
0.029, -1.986e-8
0.030, -2.033e-8
0.031, -2.116e-8
0.032, -2.183e-8
0.033, -2.230e-8
0.034, -2.307e-8
0.035, -2.391e-8
0.036, -2.444e-8
0.037, -2.514e-8
0.038, -2.605e-8
0.039, -2.678e-8
0.040, -2.733e-8
0.041, -2.833e-8
0.042, -2.917e-8
0.043, -2.974e-8
0.044, -3.069e-8
0.045, -3.164e-8
0.046, -3.232e-8
0.047, -3.319e-8
0.048, -3.419e-8
0.049, -3.503e-8
0.050, -3.577e-8
0.051, -3.684e-8
0.052, -3.783e-8
0.053, -3.850e-8
0.054, -3.952e-8
0.055, -4.063e-8
0.056, -4.134e-8
0.057, -4.230e-8
0.058, -4.340e-8
0.059, -4.426e-8
0.060, -4.510e-8
0.061, -4.617e-8
0.062, -4.717e-8
0.063, -4.795e-8
0.064, -4.895e-8
0.065, -5.006e-8
0.066, -5.079e-8
0.067, -5.171e-8
0.068, -5.279e-8
0.069, -5.361e-8
0.070, -5.437e-8
0.071, -5.549e-8
0.072, -5.632e-8
0.073, -5.701e-8
0.074, -5.797e-8
0.075, -5.891e-8
0.076, -5.960e-8
0.077, -6.035e-8
0.078, -6.128e-8
0.079, -6.200e-8
0.080, -6.255e-8
0.081, -6.349e-8
0.082, -6.419e-8
0.083, -6.464e-8
0.084, -6.542e-8
0.085, -6.611e-8
0.086, -6.654e-8
0.087, -6.714e-8
0.088, -6.780e-8
0.089, -6.827e-8
0.090, -6.862e-8
0.091, -6.922e-8
0.092, -6.974e-8
0.093, -6.989e-8
0.094, -7.039e-8
0.095, -7.092e-8
0.096, -7.097e-8
0.097, -7.133e-8
0.098, -7.175e-8
0.099, -7.191e-8
0.100, -7.203e-8
0.101, -7.234e-8
0.102, -7.258e-8
0.103, -7.256e-8
0.104, -7.271e-8
0.105, -7.296e-8
0.106, -7.284e-8
0.107, -7.286e-8
0.108, -7.310e-8
0.109, -7.298e-8
0.110, -7.282e-8
0.111, -7.299e-8
0.112, -7.292e-8
0.113, -7.265e-8
0.114, -7.267e-8
0.115, -7.269e-8
0.116, -7.242e-8
0.117, -7.223e-8
0.118, -7.222e-8
0.119, -7.201e-8
0.120, -7.163e-8
0.121, -7.163e-8
0.122, -7.147e-8
0.123, -7.099e-8
0.124, -7.089e-8
0.125, -7.077e-8
0.126, -7.031e-8
0.127, -7.006e-8
0.128, -6.996e-8
0.129, -6.963e-8
0.130, -6.917e-8
0.131, -6.904e-8
0.132, -6.882e-8
0.133, -6.827e-8
0.134, -6.806e-8
0.135, -6.793e-8
0.136, -6.740e-8
0.137, -6.706e-8
0.138, -6.695e-8
0.139, -6.653e-8
0.140, -6.607e-8
0.141, -6.592e-8
0.142, -6.563e-8
0.143, -6.510e-8
0.144, -6.485e-8
0.145, -6.469e-8
0.146, -6.416e-8
0.147, -6.379e-8
0.148, -6.369e-8
0.149, -6.327e-8
0.150, -6.276e-8
0.151, -6.266e-8
0.152, -6.235e-8
0.153, -6.182e-8
0.154, -6.160e-8
0.155, -6.144e-8
0.156, -6.092e-8
0.157, -6.058e-8
0.158, -6.047e-8
0.159, -6.010e-8
0.160, -5.960e-8
0.161, -5.951e-8
0.162, -5.926e-8
0.163, -5.872e-8
0.164, -5.854e-8
0.165, -5.841e-8
0.166, -5.792e-8
0.167, -5.762e-8
0.168, -5.752e-8
0.169, -5.717e-8
0.170, -5.673e-8
0.171, -5.665e-8
0.172, -5.643e-8
0.173, -5.595e-8
0.174, -5.576e-8
0.175, -5.570e-8
0.176, -5.521e-8
0.177, -5.494e-8
0.178, -5.491e-8
0.179, -5.457e-8
0.180, -5.416e-8
0.181, -5.413e-8
0.182, -5.392e-8
0.183, -5.348e-8
0.184, -5.332e-8
0.185, -5.328e-8
0.186, -5.285e-8
0.187, -5.260e-8
0.188, -5.261e-8
0.189, -5.229e-8
0.190, -5.190e-8
0.191, -5.193e-8
0.192, -5.175e-8
0.193, -5.133e-8
0.194, -5.122e-8
0.195, -5.120e-8
0.196, -5.080e-8
0.197, -5.058e-8
0.198, -5.060e-8
0.199, -5.035e-8
0.200, -4.997e-8
0.201, -5.001e-8
0.202, -4.988e-8
0.203, -4.946e-8
0.204, -4.941e-8
0.205, -4.941e-8
0.206, -4.901e-8
0.207, -4.885e-8
0.208, -4.888e-8
0.209, -4.864e-8
0.210, -4.832e-8
0.211, -4.835e-8
0.212, -4.826e-8
0.213, -4.787e-8
0.214, -4.783e-8
0.215, -4.787e-8
0.216, -4.749e-8
0.217, -4.734e-8
0.218, -4.742e-8
0.219, -4.718e-8
0.220, -4.689e-8
0.221, -4.696e-8
0.222, -4.685e-8
0.223, -4.651e-8
0.224, -4.646e-8
0.225, -4.651e-8
0.226, -4.618e-8
0.227, -4.603e-8
0.228, -4.613e-8
0.229, -4.591e-8
0.230, -4.563e-8
0.231, -4.573e-8
0.232, -4.564e-8
0.233, -4.530e-8
0.234, -4.531e-8
0.235, -4.536e-8
0.236, -4.504e-8
0.237, -4.490e-8
0.238, -4.502e-8
0.239, -4.484e-8
0.240, -4.454e-8
0.241, -4.467e-8
0.242, -4.461e-8
0.243, -4.428e-8
0.244, -4.430e-8
0.245, -4.438e-8
0.246, -4.405e-8
0.247, -4.396e-8
0.248, -4.407e-8
0.249, -4.388e-8
0.250, -4.363e-8
0.251, -4.376e-8
0.252, -4.372e-8
0.253, -4.340e-8
0.254, -4.341e-8
0.255, -4.352e-8
0.256, -4.321e-8
0.257, -4.313e-8
0.258, -4.327e-8
0.259, -4.307e-8
0.260, -4.285e-8
0.261, -4.297e-8
0.262, -4.293e-8
0.263, -4.265e-8
0.264, -4.267e-8
0.265, -4.278e-8
0.266, -4.248e-8
0.267, -4.239e-8
0.268, -4.256e-8
0.269, -4.239e-8
0.270, -4.215e-8
0.271, -4.232e-8
0.272, -4.227e-8
0.273, -4.199e-8
0.274, -4.204e-8
0.275, -4.214e-8
0.276, -4.189e-8
0.277, -4.181e-8
0.278, -4.195e-8
0.279, -4.183e-8
0.280, -4.157e-8
0.281, -4.176e-8
0.282, -4.173e-8
0.283, -4.144e-8
0.284, -4.151e-8
0.285, -4.162e-8
0.286, -4.133e-8
0.287, -4.130e-8
0.288, -4.145e-8
0.289, -4.130e-8
0.290, -4.111e-8
0.291, -4.126e-8
0.292, -4.126e-8
0.293, -4.098e-8
0.294, -4.105e-8
0.295, -4.120e-8
0.296, -4.091e-8
0.297, -4.087e-8
0.298, -4.105e-8
0.299, -4.090e-8
0.300, -3.833e-8
0.299, -3.669e-8
0.298, -3.633e-8
0.297, -3.582e-8
0.296, -3.569e-8
0.295, -3.565e-8
0.294, -3.524e-8
0.293, -3.505e-8
0.292, -3.510e-8
0.291, -3.486e-8
0.290, -3.455e-8
0.289, -3.460e-8
0.288, -3.452e-8
0.287, -3.414e-8
0.286, -3.413e-8
0.285, -3.418e-8
0.284, -3.383e-8
0.283, -3.373e-8
0.282, -3.381e-8
0.281, -3.361e-8
0.280, -3.335e-8
0.279, -3.345e-8
0.278, -3.338e-8
0.277, -3.307e-8
0.276, -3.306e-8
0.275, -3.315e-8
0.274, -3.282e-8
0.273, -3.271e-8
0.272, -3.284e-8
0.271, -3.265e-8
0.270, -3.241e-8
0.269, -3.254e-8
0.268, -3.246e-8
0.267, -3.218e-8
0.266, -3.220e-8
0.265, -3.229e-8
0.264, -3.199e-8
0.263, -3.190e-8
0.262, -3.203e-8
0.261, -3.185e-8
0.260, -3.160e-8
0.259, -3.177e-8
0.258, -3.171e-8
0.257, -3.140e-8
0.256, -3.144e-8
0.255, -3.153e-8
0.254, -3.123e-8
0.253, -3.116e-8
0.252, -3.129e-8
0.251, -3.113e-8
0.250, -3.089e-8
0.249, -3.102e-8
0.248, -3.100e-8
0.247, -3.068e-8
0.246, -3.073e-8
0.245, -3.083e-8
0.244, -3.052e-8
0.243, -3.046e-8
0.242, -3.060e-8
0.241, -3.042e-8
0.240, -3.020e-8
0.239, -3.034e-8
0.238, -3.030e-8
0.237, -3.001e-8
0.236, -3.004e-8
0.235, -3.016e-8
0.234, -2.985e-8
0.233, -2.977e-8
0.232, -2.993e-8
0.231, -2.974e-8
0.230, -2.953e-8
0.229, -2.969e-8
0.228, -2.963e-8
0.227, -2.934e-8
0.226, -2.939e-8
0.225, -2.948e-8
0.224, -2.919e-8
0.223, -2.910e-8
0.222, -2.927e-8
0.221, -2.908e-8
0.220, -2.884e-8
0.219, -2.900e-8
0.218, -2.894e-8
0.217, -2.863e-8
0.216, -2.870e-8
0.215, -2.877e-8
0.214, -2.847e-8
0.213, -2.839e-8
0.212, -2.852e-8
0.211, -2.835e-8
0.210, -2.811e-8
0.209, -2.824e-8
0.208, -2.819e-8
0.207, -2.787e-8
0.206, -2.791e-8
0.205, -2.798e-8
0.204, -2.765e-8
0.203, -2.759e-8
0.202, -2.770e-8
0.201, -2.749e-8
0.200, -2.725e-8
0.199, -2.737e-8
0.198, -2.729e-8
0.197, -2.699e-8
0.196, -2.699e-8
0.195, -2.706e-8
0.194, -2.672e-8
0.193, -2.660e-8
0.192, -2.672e-8
0.191, -2.648e-8
0.190, -2.622e-8
0.189, -2.633e-8
0.188, -2.621e-8
0.187, -2.588e-8
0.186, -2.588e-8
0.185, -2.589e-8
0.184, -2.555e-8
0.183, -2.541e-8
0.182, -2.549e-8
0.181, -2.523e-8
0.180, -2.492e-8
0.179, -2.501e-8
0.178, -2.487e-8
0.177, -2.448e-8
0.176, -2.447e-8
0.175, -2.444e-8
0.174, -2.405e-8
0.173, -2.387e-8
0.172, -2.389e-8
0.171, -2.361e-8
0.170, -2.327e-8
0.169, -2.327e-8
0.168, -2.310e-8
0.167, -2.265e-8
0.166, -2.256e-8
0.165, -2.250e-8
0.164, -2.202e-8
0.163, -2.184e-8
0.162, -2.178e-8
0.161, -2.141e-8
0.160, -2.103e-8
0.159, -2.096e-8
0.158, -2.072e-8
0.157, -2.022e-8
0.156, -2.004e-8
0.155, -1.992e-8
0.154, -1.938e-8
0.153, -1.906e-8
0.152, -1.897e-8
0.151, -1.851e-8
0.150, -1.803e-8
0.149, -1.790e-8
0.148, -1.751e-8
0.147, -1.696e-8
0.146, -1.669e-8
0.145, -1.642e-8
0.144, -1.582e-8
0.143, -1.539e-8
0.142, -1.516e-8
0.141, -1.460e-8
0.140, -1.398e-8
0.139, -1.376e-8
0.138, -1.327e-8
0.137, -1.255e-8
0.136, -1.220e-8
0.135, -1.178e-8
0.134, -1.107e-8
0.133, -1.053e-8
0.132, -1.013e-8
0.131, -9.466e-9
0.130, -8.742e-9
0.129, -8.299e-9
0.128, -7.700e-9
0.127, -6.834e-9
0.126, -6.334e-9
0.125, -5.803e-9
0.124, -4.886e-9
0.123, -4.250e-9
0.122, -3.692e-9
0.121, -2.868e-9
0.120, -2.018e-9
0.119, -1.413e-9
0.118, -6.932e-10
0.117, 3.024e-10
0.116, 1.014e-9
0.115, 1.667e-9
0.114, 2.706e-9
0.113, 3.533e-9
0.112, 4.168e-9
0.111, 5.192e-9
0.110, 6.132e-9
0.109, 6.836e-9
0.108, 7.750e-9
0.107, 8.838e-9
0.106, 9.618e-9
0.105, 1.043e-8
0.104, 1.157e-8
0.103, 1.248e-8
0.102, 1.323e-8
0.101, 1.429e-8
0.100, 1.539e-8
0.099, 1.611e-8
0.098, 1.708e-8
0.097, 1.827e-8
0.096, 1.902e-8
0.095, 1.994e-8
0.094, 2.102e-8
0.093, 2.197e-8
0.092, 2.274e-8
0.091, 2.375e-8
0.090, 2.483e-8
0.089, 2.559e-8
0.088, 2.646e-8
0.087, 2.760e-8
0.086, 2.833e-8
0.085, 2.909e-8
0.084, 3.019e-8
0.083, 3.093e-8
0.082, 3.166e-8
0.081, 3.258e-8
0.080, 3.345e-8
0.079, 3.412e-8
0.078, 3.485e-8
0.077, 3.580e-8
0.076, 3.641e-8
0.075, 3.693e-8
0.074, 3.784e-8
0.073, 3.844e-8
0.072, 3.887e-8
0.071, 3.963e-8
0.070, 4.025e-8
0.069, 4.065e-8
0.068, 4.117e-8
0.067, 4.181e-8
0.066, 4.217e-8
0.065, 4.255e-8
0.064, 4.311e-8
0.063, 4.351e-8
0.062, 4.366e-8
0.061, 4.409e-8
0.060, 4.455e-8
0.059, 4.458e-8
0.058, 4.485e-8
0.057, 4.530e-8
0.056, 4.532e-8
0.055, 4.543e-8
0.054, 4.574e-8
0.053, 4.585e-8
0.052, 4.583e-8
0.051, 4.601e-8
0.050, 4.616e-8
0.049, 4.601e-8
0.048, 4.599e-8
0.047, 4.625e-8
0.046, 4.602e-8
0.045, 4.590e-8
0.044, 4.604e-8
0.043, 4.591e-8
0.042, 4.564e-8
0.041, 4.565e-8
0.040, 4.561e-8
0.039, 4.532e-8
0.038, 4.512e-8
0.037, 4.515e-8
0.036, 4.486e-8
0.035, 4.451e-8
0.034, 4.453e-8
0.033, 4.430e-8
0.032, 4.385e-8
0.031, 4.379e-8
0.030, 4.362e-8
0.029, 4.318e-8
0.028, 4.294e-8
0.027, 4.287e-8
0.026, 4.248e-8
0.025, 4.208e-8
0.024, 4.197e-8
0.023, 4.170e-8
0.022, 4.117e-8
0.021, 4.102e-8
0.020, 4.086e-8
0.019, 4.032e-8
0.018, 4.002e-8
0.017, 3.994e-8
0.016, 3.947e-8
0.015, 3.906e-8
0.014, 3.895e-8
0.013, 3.862e-8
0.012, 3.813e-8
0.011, 3.794e-8
0.010, 3.775e-8
0.009, 3.725e-8
0.008, 3.692e-8
0.007, 3.686e-8
0.006, 3.638e-8
0.005, 3.595e-8
0.004, 3.589e-8
0.003, 3.555e-8
0.002, 3.505e-8
0.001, 3.491e-8
0.000, 3.482e-8
-0.001, 3.427e-8
-0.002, 3.394e-8
-0.003, 3.389e-8
-0.004, 3.346e-8
-0.005, 3.303e-8
-0.006, 3.296e-8
-0.007, 3.271e-8
-0.008, 3.218e-8
-0.009, 3.208e-8
-0.010, 3.191e-8
-0.011, 3.144e-8
-0.012, 3.119e-8
-0.013, 3.114e-8
-0.014, 3.074e-8
-0.015, 3.037e-8
-0.016, 3.033e-8
-0.017, 3.009e-8
-0.018, 2.962e-8
-0.019, 2.953e-8
-0.020, 2.942e-8
-0.021, 2.898e-8
-0.022, 2.874e-8
-0.023, 2.876e-8
-0.024, 2.836e-8
-0.025, 2.805e-8
-0.026, 2.804e-8
-0.027, 2.782e-8
-0.028, 2.740e-8
-0.029, 2.733e-8
-0.030, 2.724e-8
-0.031, 2.684e-8
-0.032, 2.663e-8
-0.033, 2.668e-8
-0.034, 2.632e-8
-0.035, 2.602e-8
-0.036, 2.606e-8
-0.037, 2.586e-8
-0.038, 2.546e-8
-0.039, 2.545e-8
-0.040, 2.538e-8
-0.041, 2.500e-8
-0.042, 2.482e-8
-0.043, 2.489e-8
-0.044, 2.459e-8
-0.045, 2.428e-8
-0.046, 2.435e-8
-0.047, 2.420e-8
-0.048, 2.380e-8
-0.049, 2.382e-8
-0.050, 2.378e-8
-0.051, 2.342e-8
-0.052, 2.329e-8
-0.053, 2.336e-8
-0.054, 2.307e-8
-0.055, 2.282e-8
-0.056, 2.290e-8
-0.057, 2.277e-8
-0.058, 2.241e-8
-0.059, 2.243e-8
-0.060, 2.243e-8
-0.061, 2.209e-8
-0.062, 2.196e-8
-0.063, 2.209e-8
-0.064, 2.179e-8
-0.065, 2.157e-8
-0.066, 2.168e-8
-0.067, 2.155e-8
-0.068, 2.123e-8
-0.069, 2.127e-8
-0.070, 2.127e-8
-0.071, 2.097e-8
-0.072, 2.085e-8
-0.073, 2.099e-8
-0.074, 2.073e-8
-0.075, 2.051e-8
-0.076, 2.065e-8
-0.077, 2.053e-8
-0.078, 2.021e-8
-0.079, 2.029e-8
-0.080, 2.029e-8
-0.081, 2.001e-8
-0.082, 1.992e-8
-0.083, 2.006e-8
-0.084, 1.982e-8
-0.085, 1.961e-8
-0.086, 1.976e-8
-0.087, 1.968e-8
-0.088, 1.935e-8
-0.089, 1.946e-8
-0.090, 1.948e-8
-0.091, 1.918e-8
-0.092, 1.913e-8
-0.093, 1.927e-8
-0.094, 1.904e-8
-0.095, 1.887e-8
-0.096, 1.901e-8
-0.097, 1.894e-8
-0.098, 1.864e-8
-0.099, 1.873e-8
-0.100, 1.879e-8
-0.101, 1.850e-8
-0.102, 1.846e-8
-0.103, 1.863e-8
-0.104, 1.839e-8
-0.105, 1.823e-8
-0.106, 1.838e-8
-0.107, 1.831e-8
-0.108, 1.804e-8
-0.109, 1.814e-8
-0.110, 1.819e-8
-0.111, 1.796e-8
-0.112, 1.788e-8
-0.113, 1.807e-8
-0.114, 1.785e-8
-0.115, 1.769e-8
-0.116, 1.788e-8
-0.117, 1.781e-8
-0.118, 1.753e-8
-0.119, 1.767e-8
-0.120, 1.771e-8
-0.121, 1.747e-8
-0.122, 1.742e-8
-0.123, 1.761e-8
-0.124, 1.742e-8
-0.125, 1.725e-8
-0.126, 1.743e-8
-0.127, 1.739e-8
-0.128, 1.712e-8
-0.129, 1.726e-8
-0.130, 1.732e-8
-0.131, 1.707e-8
-0.132, 1.706e-8
-0.133, 1.724e-8
-0.134, 1.704e-8
-0.135, 1.691e-8
-0.136, 1.709e-8
-0.137, 1.705e-8
-0.138, 1.678e-8
-0.139, 1.693e-8
-0.140, 1.702e-8
-0.141, 1.677e-8
-0.142, 1.674e-8
-0.143, 1.696e-8
-0.144, 1.674e-8
-0.145, 1.663e-8
-0.146, 1.681e-8
-0.147, 1.678e-8
-0.148, 1.655e-8
-0.149, 1.668e-8
-0.150, 1.676e-8
-0.151, 1.655e-8
-0.152, 1.651e-8
-0.153, 1.674e-8
-0.154, 1.654e-8
-0.155, 1.642e-8
-0.156, 1.664e-8
-0.157, 1.659e-8
-0.158, 1.635e-8
-0.159, 1.652e-8
-0.160, 1.658e-8
-0.161, 1.637e-8
-0.162, 1.637e-8
-0.163, 1.658e-8
-0.164, 1.641e-8
-0.165, 1.628e-8
-0.166, 1.651e-8
-0.167, 1.649e-8
-0.168, 1.622e-8
-0.169, 1.642e-8
-0.170, 1.649e-8
-0.171, 1.627e-8
-0.172, 1.629e-8
-0.173, 1.651e-8
-0.174, 1.632e-8
-0.175, 1.623e-8
-0.176, 1.643e-8
-0.177, 1.643e-8
-0.178, 1.618e-8
-0.179, 1.638e-8
-0.180, 1.648e-8
-0.181, 1.625e-8
-0.182, 1.626e-8
-0.183, 1.650e-8
-0.184, 1.632e-8
-0.185, 1.623e-8
-0.186, 1.646e-8
-0.187, 1.643e-8
-0.188, 1.622e-8
-0.189, 1.640e-8
-0.190, 1.650e-8
-0.191, 1.631e-8
-0.192, 1.633e-8
-0.193, 1.656e-8
-0.194, 1.640e-8
-0.195, 1.630e-8
-0.196, 1.656e-8
-0.197, 1.653e-8
-0.198, 1.631e-8
-0.199, 1.653e-8
