Mar. 16, 2023   09:51:04
Cyclic Voltammetry
File: c:/users/oliverrz/desktop/electrolab/data/2023_03_16\fcmeoh_macros_750_um\electrode7_cv_100mvs_750_um.bin
Data Source:  Experiment
Instrument Model:  CHI760E
Header: CV
Note: 

Init E (V) = -0.2
High E (V) = 0.3
Low E (V) = -0.2
Final E (V) = -0.2
Init P/N = P
Scan Rate (V/s) = 0.1
Segment = 3
Sample Interval (V) = 0.001
Quiet Time (sec) = 2
Sensitivity (A/V) = 1e-7

Results:

Channel 1:
Segment 1:
Ep = 0.110V
ip = -5.045e-8A
Ah = -3.088e-8C

Segment 2:
Ep = 0.046V
ip = 4.636e-8A
Ah = 2.959e-8C

Segment 3:

Potential/V, Current/A

-0.200, 2.599e-9
-0.199, 2.295e-9
-0.198, 2.123e-9
-0.197, 2.121e-9
-0.196, 2.091e-9
-0.195, 2.010e-9
-0.194, 2.061e-9
-0.193, 1.958e-9
-0.192, 1.974e-9
-0.191, 1.959e-9
-0.190, 1.882e-9
-0.189, 1.940e-9
-0.188, 1.842e-9
-0.187, 1.864e-9
-0.186, 1.852e-9
-0.185, 1.773e-9
-0.184, 1.837e-9
-0.183, 1.743e-9
-0.182, 1.763e-9
-0.181, 1.756e-9
-0.180, 1.678e-9
-0.179, 1.741e-9
-0.178, 1.647e-9
-0.177, 1.671e-9
-0.176, 1.666e-9
-0.175, 1.591e-9
-0.174, 1.654e-9
-0.173, 1.564e-9
-0.172, 1.586e-9
-0.171, 1.583e-9
-0.170, 1.508e-9
-0.169, 1.570e-9
-0.168, 1.487e-9
-0.167, 1.504e-9
-0.166, 1.503e-9
-0.165, 1.435e-9
-0.164, 1.495e-9
-0.163, 1.411e-9
-0.162, 1.436e-9
-0.161, 1.431e-9
-0.160, 1.360e-9
-0.159, 1.427e-9
-0.158, 1.342e-9
-0.157, 1.365e-9
-0.156, 1.362e-9
-0.155, 1.294e-9
-0.154, 1.360e-9
-0.153, 1.273e-9
-0.152, 1.299e-9
-0.151, 1.298e-9
-0.150, 1.229e-9
-0.149, 1.297e-9
-0.148, 1.213e-9
-0.147, 1.240e-9
-0.146, 1.237e-9
-0.145, 1.170e-9
-0.144, 1.236e-9
-0.143, 1.155e-9
-0.142, 1.178e-9
-0.141, 1.182e-9
-0.140, 1.108e-9
-0.139, 1.179e-9
-0.138, 1.096e-9
-0.137, 1.121e-9
-0.136, 1.125e-9
-0.135, 1.052e-9
-0.134, 1.123e-9
-0.133, 1.041e-9
-0.132, 1.063e-9
-0.131, 1.072e-9
-0.130, 9.986e-10
-0.129, 1.068e-9
-0.128, 9.851e-10
-0.127, 1.011e-9
-0.126, 1.015e-9
-0.125, 9.472e-10
-0.124, 1.014e-9
-0.123, 9.352e-10
-0.122, 9.583e-10
-0.121, 9.608e-10
-0.120, 8.923e-10
-0.119, 9.639e-10
-0.118, 8.802e-10
-0.117, 9.082e-10
-0.116, 9.081e-10
-0.115, 8.378e-10
-0.114, 9.110e-10
-0.113, 8.247e-10
-0.112, 8.560e-10
-0.111, 8.567e-10
-0.110, 7.863e-10
-0.109, 8.568e-10
-0.108, 7.735e-10
-0.107, 7.986e-10
-0.106, 8.046e-10
-0.105, 7.327e-10
-0.104, 8.061e-10
-0.103, 7.183e-10
-0.102, 7.404e-10
-0.101, 7.482e-10
-0.100, 6.743e-10
-0.099, 7.478e-10
-0.098, 6.683e-10
-0.097, 6.871e-10
-0.096, 6.962e-10
-0.095, 6.187e-10
-0.094, 6.918e-10
-0.093, 6.074e-10
-0.092, 6.245e-10
-0.091, 6.347e-10
-0.090, 5.549e-10
-0.089, 6.257e-10
-0.088, 5.444e-10
-0.087, 5.633e-10
-0.086, 5.692e-10
-0.085, 4.937e-10
-0.084, 5.601e-10
-0.083, 4.792e-10
-0.082, 4.984e-10
-0.081, 4.987e-10
-0.080, 4.271e-10
-0.079, 4.880e-10
-0.078, 4.067e-10
-0.077, 4.202e-10
-0.076, 4.202e-10
-0.075, 3.464e-10
-0.074, 4.117e-10
-0.073, 3.243e-10
-0.072, 3.417e-10
-0.071, 3.417e-10
-0.070, 2.625e-10
-0.069, 3.248e-10
-0.068, 2.373e-10
-0.067, 2.506e-10
-0.066, 2.472e-10
-0.065, 1.642e-10
-0.064, 2.271e-10
-0.063, 1.340e-10
-0.062, 1.434e-10
-0.061, 1.440e-10
-0.060, 5.387e-11
-0.059, 1.153e-10
-0.058, 2.434e-11
-0.057, 2.325e-11
-0.056, 2.010e-11
-0.055, -6.722e-11
-0.054, -1.475e-11
-0.053, -1.105e-10
-0.052, -1.118e-10
-0.051, -1.221e-10
-0.050, -2.142e-10
-0.049, -1.682e-10
-0.048, -2.650e-10
-0.047, -2.734e-10
-0.046, -2.869e-10
-0.045, -3.870e-10
-0.044, -3.465e-10
-0.043, -4.479e-10
-0.042, -4.612e-10
-0.041, -4.829e-10
-0.040, -5.854e-10
-0.039, -5.540e-10
-0.038, -6.656e-10
-0.037, -6.841e-10
-0.036, -7.135e-10
-0.035, -8.222e-10
-0.034, -7.957e-10
-0.033, -9.192e-10
-0.032, -9.456e-10
-0.031, -9.833e-10
-0.030, -1.105e-9
-0.029, -1.085e-9
-0.028, -1.217e-9
-0.027, -1.252e-9
-0.026, -1.304e-9
-0.025, -1.440e-9
-0.024, -1.432e-9
-0.023, -1.574e-9
-0.022, -1.628e-9
-0.021, -1.688e-9
-0.020, -1.839e-9
-0.019, -1.844e-9
-0.018, -2.002e-9
-0.017, -2.074e-9
-0.016, -2.141e-9
-0.015, -2.311e-9
-0.014, -2.334e-9
-0.013, -2.508e-9
-0.012, -2.599e-9
-0.011, -2.684e-9
-0.010, -2.872e-9
-0.009, -2.918e-9
-0.008, -3.108e-9
-0.007, -3.225e-9
-0.006, -3.341e-9
-0.005, -3.536e-9
-0.004, -3.607e-9
-0.003, -3.821e-9
-0.002, -3.956e-9
-0.001, -4.099e-9
-0.000, -4.376e-9
0.001, -4.463e-9
0.002, -4.698e-9
0.003, -4.854e-9
0.004, -5.028e-9
0.005, -5.287e-9
0.006, -5.415e-9
0.007, -5.693e-9
0.008, -5.891e-9
0.009, -6.100e-9
0.010, -6.398e-9
0.011, -6.564e-9
0.012, -6.881e-9
0.013, -7.118e-9
0.014, -7.370e-9
0.015, -7.714e-9
0.016, -7.918e-9
0.017, -8.272e-9
0.018, -8.552e-9
0.019, -8.841e-9
0.020, -9.230e-9
0.021, -9.480e-9
0.022, -9.880e-9
0.023, -1.022e-8
0.024, -1.054e-8
0.025, -1.099e-8
0.026, -1.130e-8
0.027, -1.174e-8
0.028, -1.214e-8
0.029, -1.251e-8
0.030, -1.300e-8
0.031, -1.337e-8
0.032, -1.386e-8
0.033, -1.431e-8
0.034, -1.474e-8
0.035, -1.529e-8
0.036, -1.571e-8
0.037, -1.626e-8
0.038, -1.675e-8
0.039, -1.726e-8
0.040, -1.784e-8
0.041, -1.833e-8
0.042, -1.892e-8
0.043, -1.947e-8
0.044, -2.002e-8
0.045, -2.065e-8
0.046, -2.118e-8
0.047, -2.184e-8
0.048, -2.242e-8
0.049, -2.303e-8
0.050, -2.371e-8
0.051, -2.429e-8
0.052, -2.500e-8
0.053, -2.561e-8
0.054, -2.625e-8
0.055, -2.697e-8
0.056, -2.757e-8
0.057, -2.829e-8
0.058, -2.893e-8
0.059, -2.960e-8
0.060, -3.035e-8
0.061, -3.095e-8
0.062, -3.168e-8
0.063, -3.236e-8
0.064, -3.301e-8
0.065, -3.377e-8
0.066, -3.437e-8
0.067, -3.509e-8
0.068, -3.576e-8
0.069, -3.637e-8
0.070, -3.710e-8
0.071, -3.769e-8
0.072, -3.837e-8
0.073, -3.903e-8
0.074, -3.962e-8
0.075, -4.030e-8
0.076, -4.085e-8
0.077, -4.150e-8
0.078, -4.210e-8
0.079, -4.264e-8
0.080, -4.323e-8
0.081, -4.373e-8
0.082, -4.429e-8
0.083, -4.480e-8
0.084, -4.528e-8
0.085, -4.580e-8
0.086, -4.621e-8
0.087, -4.671e-8
0.088, -4.713e-8
0.089, -4.753e-8
0.090, -4.799e-8
0.091, -4.830e-8
0.092, -4.871e-8
0.093, -4.901e-8
0.094, -4.931e-8
0.095, -4.967e-8
0.096, -4.986e-8
0.097, -5.019e-8
0.098, -5.042e-8
0.099, -5.061e-8
0.100, -5.086e-8
0.101, -5.097e-8
0.102, -5.122e-8
0.103, -5.138e-8
0.104, -5.145e-8
0.105, -5.163e-8
0.106, -5.166e-8
0.107, -5.178e-8
0.108, -5.184e-8
0.109, -5.184e-8
0.110, -5.195e-8
0.111, -5.190e-8
0.112, -5.193e-8
0.113, -5.192e-8
0.114, -5.186e-8
0.115, -5.189e-8
0.116, -5.179e-8
0.117, -5.175e-8
0.118, -5.168e-8
0.119, -5.155e-8
0.120, -5.152e-8
0.121, -5.134e-8
0.122, -5.128e-8
0.123, -5.114e-8
0.124, -5.099e-8
0.125, -5.090e-8
0.126, -5.069e-8
0.127, -5.059e-8
0.128, -5.042e-8
0.129, -5.023e-8
0.130, -5.012e-8
0.131, -4.986e-8
0.132, -4.973e-8
0.133, -4.953e-8
0.134, -4.931e-8
0.135, -4.919e-8
0.136, -4.891e-8
0.137, -4.877e-8
0.138, -4.855e-8
0.139, -4.831e-8
0.140, -4.818e-8
0.141, -4.789e-8
0.142, -4.773e-8
0.143, -4.751e-8
0.144, -4.726e-8
0.145, -4.712e-8
0.146, -4.683e-8
0.147, -4.666e-8
0.148, -4.644e-8
0.149, -4.618e-8
0.150, -4.604e-8
0.151, -4.575e-8
0.152, -4.559e-8
0.153, -4.537e-8
0.154, -4.513e-8
0.155, -4.498e-8
0.156, -4.471e-8
0.157, -4.454e-8
0.158, -4.433e-8
0.159, -4.409e-8
0.160, -4.395e-8
0.161, -4.368e-8
0.162, -4.353e-8
0.163, -4.332e-8
0.164, -4.310e-8
0.165, -4.296e-8
0.166, -4.270e-8
0.167, -4.256e-8
0.168, -4.236e-8
0.169, -4.214e-8
0.170, -4.202e-8
0.171, -4.177e-8
0.172, -4.164e-8
0.173, -4.145e-8
0.174, -4.124e-8
0.175, -4.114e-8
0.176, -4.089e-8
0.177, -4.077e-8
0.178, -4.060e-8
0.179, -4.040e-8
0.180, -4.031e-8
0.181, -4.006e-8
0.182, -3.996e-8
0.183, -3.980e-8
0.184, -3.960e-8
0.185, -3.952e-8
0.186, -3.929e-8
0.187, -3.920e-8
0.188, -3.904e-8
0.189, -3.886e-8
0.190, -3.879e-8
0.191, -3.857e-8
0.192, -3.848e-8
0.193, -3.834e-8
0.194, -3.817e-8
0.195, -3.810e-8
0.196, -3.790e-8
0.197, -3.782e-8
0.198, -3.769e-8
0.199, -3.753e-8
0.200, -3.747e-8
0.201, -3.728e-8
0.202, -3.721e-8
0.203, -3.708e-8
0.204, -3.694e-8
0.205, -3.689e-8
0.206, -3.670e-8
0.207, -3.665e-8
0.208, -3.653e-8
0.209, -3.638e-8
0.210, -3.635e-8
0.211, -3.617e-8
0.212, -3.612e-8
0.213, -3.601e-8
0.214, -3.587e-8
0.215, -3.585e-8
0.216, -3.567e-8
0.217, -3.563e-8
0.218, -3.553e-8
0.219, -3.540e-8
0.220, -3.538e-8
0.221, -3.521e-8
0.222, -3.518e-8
0.223, -3.508e-8
0.224, -3.496e-8
0.225, -3.495e-8
0.226, -3.479e-8
0.227, -3.476e-8
0.228, -3.467e-8
0.229, -3.455e-8
0.230, -3.454e-8
0.231, -3.439e-8
0.232, -3.436e-8
0.233, -3.428e-8
0.234, -3.416e-8
0.235, -3.416e-8
0.236, -3.402e-8
0.237, -3.399e-8
0.238, -3.392e-8
0.239, -3.381e-8
0.240, -3.381e-8
0.241, -3.367e-8
0.242, -3.366e-8
0.243, -3.359e-8
0.244, -3.348e-8
0.245, -3.349e-8
0.246, -3.335e-8
0.247, -3.334e-8
0.248, -3.327e-8
0.249, -3.317e-8
0.250, -3.319e-8
0.251, -3.305e-8
0.252, -3.304e-8
0.253, -3.298e-8
0.254, -3.288e-8
0.255, -3.291e-8
0.256, -3.277e-8
0.257, -3.277e-8
0.258, -3.272e-8
0.259, -3.262e-8
0.260, -3.264e-8
0.261, -3.251e-8
0.262, -3.251e-8
0.263, -3.247e-8
0.264, -3.237e-8
0.265, -3.241e-8
0.266, -3.228e-8
0.267, -3.228e-8
0.268, -3.224e-8
0.269, -3.215e-8
0.270, -3.218e-8
0.271, -3.206e-8
0.272, -3.206e-8
0.273, -3.202e-8
0.274, -3.194e-8
0.275, -3.197e-8
0.276, -3.186e-8
0.277, -3.186e-8
0.278, -3.182e-8
0.279, -3.174e-8
0.280, -3.177e-8
0.281, -3.166e-8
0.282, -3.168e-8
0.283, -3.164e-8
0.284, -3.156e-8
0.285, -3.159e-8
0.286, -3.148e-8
0.287, -3.150e-8
0.288, -3.146e-8
0.289, -3.138e-8
0.290, -3.142e-8
0.291, -3.131e-8
0.292, -3.133e-8
0.293, -3.130e-8
0.294, -3.123e-8
0.295, -3.127e-8
0.296, -3.116e-8
0.297, -3.118e-8
0.298, -3.115e-8
0.299, -3.108e-8
0.300, -3.061e-8
0.299, -2.965e-8
0.298, -2.941e-8
0.297, -2.925e-8
0.296, -2.908e-8
0.295, -2.904e-8
0.294, -2.887e-8
0.293, -2.882e-8
0.292, -2.873e-8
0.291, -2.860e-8
0.290, -2.860e-8
0.289, -2.844e-8
0.288, -2.841e-8
0.287, -2.834e-8
0.286, -2.822e-8
0.285, -2.823e-8
0.284, -2.808e-8
0.283, -2.807e-8
0.282, -2.800e-8
0.281, -2.789e-8
0.280, -2.791e-8
0.279, -2.777e-8
0.278, -2.776e-8
0.277, -2.770e-8
0.276, -2.759e-8
0.275, -2.762e-8
0.274, -2.748e-8
0.273, -2.747e-8
0.272, -2.742e-8
0.271, -2.731e-8
0.270, -2.734e-8
0.269, -2.721e-8
0.268, -2.721e-8
0.267, -2.716e-8
0.266, -2.706e-8
0.265, -2.709e-8
0.264, -2.697e-8
0.263, -2.696e-8
0.262, -2.692e-8
0.261, -2.682e-8
0.260, -2.685e-8
0.259, -2.673e-8
0.258, -2.673e-8
0.257, -2.668e-8
0.256, -2.659e-8
0.255, -2.662e-8
0.254, -2.650e-8
0.253, -2.650e-8
0.252, -2.645e-8
0.251, -2.636e-8
0.250, -2.640e-8
0.249, -2.627e-8
0.248, -2.628e-8
0.247, -2.624e-8
0.246, -2.615e-8
0.245, -2.618e-8
0.244, -2.606e-8
0.243, -2.606e-8
0.242, -2.602e-8
0.241, -2.593e-8
0.240, -2.596e-8
0.239, -2.584e-8
0.238, -2.585e-8
0.237, -2.581e-8
0.236, -2.571e-8
0.235, -2.575e-8
0.234, -2.563e-8
0.233, -2.563e-8
0.232, -2.559e-8
0.231, -2.550e-8
0.230, -2.553e-8
0.229, -2.541e-8
0.228, -2.541e-8
0.227, -2.537e-8
0.226, -2.527e-8
0.225, -2.530e-8
0.224, -2.518e-8
0.223, -2.518e-8
0.222, -2.514e-8
0.221, -2.504e-8
0.220, -2.507e-8
0.219, -2.495e-8
0.218, -2.494e-8
0.217, -2.489e-8
0.216, -2.480e-8
0.215, -2.482e-8
0.214, -2.470e-8
0.213, -2.469e-8
0.212, -2.465e-8
0.211, -2.455e-8
0.210, -2.457e-8
0.209, -2.444e-8
0.208, -2.442e-8
0.207, -2.437e-8
0.206, -2.426e-8
0.205, -2.428e-8
0.204, -2.414e-8
0.203, -2.413e-8
0.202, -2.407e-8
0.201, -2.396e-8
0.200, -2.397e-8
0.199, -2.383e-8
0.198, -2.381e-8
0.197, -2.375e-8
0.196, -2.363e-8
0.195, -2.364e-8
0.194, -2.350e-8
0.193, -2.346e-8
0.192, -2.339e-8
0.191, -2.326e-8
0.190, -2.327e-8
0.189, -2.311e-8
0.188, -2.306e-8
0.187, -2.299e-8
0.186, -2.285e-8
0.185, -2.284e-8
0.184, -2.267e-8
0.183, -2.261e-8
0.182, -2.253e-8
0.181, -2.237e-8
0.180, -2.235e-8
0.179, -2.217e-8
0.178, -2.210e-8
0.177, -2.200e-8
0.176, -2.183e-8
0.175, -2.179e-8
0.174, -2.160e-8
0.173, -2.151e-8
0.172, -2.140e-8
0.171, -2.121e-8
0.170, -2.115e-8
0.169, -2.094e-8
0.168, -2.084e-8
0.167, -2.069e-8
0.166, -2.049e-8
0.165, -2.041e-8
0.164, -2.017e-8
0.163, -2.005e-8
0.162, -1.988e-8
0.161, -1.965e-8
0.160, -1.954e-8
0.159, -1.928e-8
0.158, -1.913e-8
0.157, -1.894e-8
0.156, -1.868e-8
0.155, -1.855e-8
0.154, -1.825e-8
0.153, -1.806e-8
0.152, -1.784e-8
0.151, -1.754e-8
0.150, -1.738e-8
0.149, -1.705e-8
0.148, -1.682e-8
0.147, -1.657e-8
0.146, -1.623e-8
0.145, -1.602e-8
0.144, -1.566e-8
0.143, -1.538e-8
0.142, -1.508e-8
0.141, -1.469e-8
0.140, -1.444e-8
0.139, -1.404e-8
0.138, -1.371e-8
0.137, -1.337e-8
0.136, -1.295e-8
0.135, -1.263e-8
0.134, -1.219e-8
0.133, -1.182e-8
0.132, -1.142e-8
0.131, -1.096e-8
0.130, -1.059e-8
0.129, -1.009e-8
0.128, -9.657e-9
0.127, -9.202e-9
0.126, -8.694e-9
0.125, -8.277e-9
0.124, -7.717e-9
0.123, -7.252e-9
0.122, -6.734e-9
0.121, -6.174e-9
0.120, -5.702e-9
0.119, -5.081e-9
0.118, -4.572e-9
0.117, -4.010e-9
0.116, -3.374e-9
0.115, -2.861e-9
0.114, -2.206e-9
0.113, -1.637e-9
0.112, -1.041e-9
0.111, -3.565e-10
0.110, 1.872e-10
0.109, 9.031e-10
0.108, 1.525e-9
0.107, 2.149e-9
0.106, 2.873e-9
0.105, 3.445e-9
0.104, 4.187e-9
0.103, 4.847e-9
0.102, 5.523e-9
0.101, 6.244e-9
0.100, 6.867e-9
0.099, 7.586e-9
0.098, 8.253e-9
0.097, 8.916e-9
0.096, 9.647e-9
0.095, 1.028e-8
0.094, 1.098e-8
0.093, 1.166e-8
0.092, 1.231e-8
0.091, 1.302e-8
0.090, 1.364e-8
0.089, 1.434e-8
0.088, 1.498e-8
0.087, 1.561e-8
0.086, 1.627e-8
0.085, 1.684e-8
0.084, 1.753e-8
0.083, 1.808e-8
0.082, 1.868e-8
0.081, 1.930e-8
0.080, 1.980e-8
0.079, 2.041e-8
0.078, 2.093e-8
0.077, 2.144e-8
0.076, 2.201e-8
0.075, 2.240e-8
0.074, 2.294e-8
0.073, 2.337e-8
0.072, 2.379e-8
0.071, 2.428e-8
0.070, 2.459e-8
0.069, 2.505e-8
0.068, 2.540e-8
0.067, 2.570e-8
0.066, 2.610e-8
0.065, 2.634e-8
0.064, 2.669e-8
0.063, 2.697e-8
0.062, 2.717e-8
0.061, 2.746e-8
0.060, 2.762e-8
0.059, 2.786e-8
0.058, 2.803e-8
0.057, 2.816e-8
0.056, 2.836e-8
0.055, 2.844e-8
0.054, 2.858e-8
0.053, 2.867e-8
0.052, 2.873e-8
0.051, 2.884e-8
0.050, 2.883e-8
0.049, 2.891e-8
0.048, 2.890e-8
0.047, 2.890e-8
0.046, 2.893e-8
0.045, 2.883e-8
0.044, 2.886e-8
0.043, 2.879e-8
0.042, 2.872e-8
0.041, 2.870e-8
0.040, 2.854e-8
0.039, 2.852e-8
0.038, 2.840e-8
0.037, 2.826e-8
0.036, 2.820e-8
0.035, 2.800e-8
0.034, 2.794e-8
0.033, 2.777e-8
0.032, 2.760e-8
0.031, 2.751e-8
0.030, 2.728e-8
0.029, 2.717e-8
0.028, 2.699e-8
0.027, 2.678e-8
0.026, 2.668e-8
0.025, 2.643e-8
0.024, 2.630e-8
0.023, 2.609e-8
0.022, 2.587e-8
0.021, 2.574e-8
0.020, 2.548e-8
0.019, 2.534e-8
0.018, 2.512e-8
0.017, 2.490e-8
0.016, 2.476e-8
0.015, 2.448e-8
0.014, 2.434e-8
0.013, 2.411e-8
0.012, 2.389e-8
0.011, 2.374e-8
0.010, 2.347e-8
0.009, 2.333e-8
0.008, 2.310e-8
0.007, 2.288e-8
0.006, 2.273e-8
0.005, 2.246e-8
0.004, 2.233e-8
0.003, 2.211e-8
0.002, 2.189e-8
0.001, 2.176e-8
0.000, 2.153e-8
-0.001, 2.140e-8
-0.002, 2.116e-8
-0.003, 2.095e-8
-0.004, 2.082e-8
-0.005, 2.055e-8
-0.006, 2.044e-8
-0.007, 2.023e-8
-0.008, 2.003e-8
-0.009, 1.992e-8
-0.010, 1.966e-8
-0.011, 1.955e-8
-0.012, 1.935e-8
-0.013, 1.916e-8
-0.014, 1.906e-8
-0.015, 1.881e-8
-0.016, 1.871e-8
-0.017, 1.853e-8
-0.018, 1.834e-8
-0.019, 1.825e-8
-0.020, 1.802e-8
-0.021, 1.793e-8
-0.022, 1.775e-8
-0.023, 1.758e-8
-0.024, 1.749e-8
-0.025, 1.727e-8
-0.026, 1.719e-8
-0.027, 1.703e-8
-0.028, 1.687e-8
-0.029, 1.679e-8
-0.030, 1.657e-8
-0.031, 1.651e-8
-0.032, 1.635e-8
-0.033, 1.619e-8
-0.034, 1.613e-8
-0.035, 1.592e-8
-0.036, 1.586e-8
-0.037, 1.571e-8
-0.038, 1.557e-8
-0.039, 1.552e-8
-0.040, 1.532e-8
-0.041, 1.527e-8
-0.042, 1.513e-8
-0.043, 1.499e-8
-0.044, 1.495e-8
-0.045, 1.476e-8
-0.046, 1.472e-8
-0.047, 1.459e-8
-0.048, 1.446e-8
-0.049, 1.443e-8
-0.050, 1.425e-8
-0.051, 1.422e-8
-0.052, 1.409e-8
-0.053, 1.397e-8
-0.054, 1.394e-8
-0.055, 1.377e-8
-0.056, 1.374e-8
-0.057, 1.363e-8
-0.058, 1.351e-8
-0.059, 1.349e-8
-0.060, 1.332e-8
-0.061, 1.330e-8
-0.062, 1.320e-8
-0.063, 1.309e-8
-0.064, 1.307e-8
-0.065, 1.291e-8
-0.066, 1.290e-8
-0.067, 1.279e-8
-0.068, 1.269e-8
-0.069, 1.268e-8
-0.070, 1.253e-8
-0.071, 1.252e-8
-0.072, 1.242e-8
-0.073, 1.233e-8
-0.074, 1.232e-8
-0.075, 1.218e-8
-0.076, 1.218e-8
-0.077, 1.209e-8
-0.078, 1.199e-8
-0.079, 1.199e-8
-0.080, 1.185e-8
-0.081, 1.185e-8
-0.082, 1.176e-8
-0.083, 1.167e-8
-0.084, 1.168e-8
-0.085, 1.154e-8
-0.086, 1.154e-8
-0.087, 1.146e-8
-0.088, 1.138e-8
-0.089, 1.139e-8
-0.090, 1.125e-8
-0.091, 1.126e-8
-0.092, 1.118e-8
-0.093, 1.110e-8
-0.094, 1.111e-8
-0.095, 1.098e-8
-0.096, 1.099e-8
-0.097, 1.092e-8
-0.098, 1.084e-8
-0.099, 1.086e-8
-0.100, 1.073e-8
-0.101, 1.075e-8
-0.102, 1.068e-8
-0.103, 1.061e-8
-0.104, 1.063e-8
-0.105, 1.050e-8
-0.106, 1.052e-8
-0.107, 1.045e-8
-0.108, 1.038e-8
-0.109, 1.040e-8
-0.110, 1.028e-8
-0.111, 1.030e-8
-0.112, 1.024e-8
-0.113, 1.017e-8
-0.114, 1.020e-8
-0.115, 1.008e-8
-0.116, 1.010e-8
-0.117, 1.004e-8
-0.118, 9.974e-9
-0.119, 1.001e-8
-0.120, 9.885e-9
-0.121, 9.916e-9
-0.122, 9.855e-9
-0.123, 9.788e-9
-0.124, 9.826e-9
-0.125, 9.706e-9
-0.126, 9.737e-9
-0.127, 9.683e-9
-0.128, 9.624e-9
-0.129, 9.658e-9
-0.130, 9.546e-9
-0.131, 9.575e-9
-0.132, 9.526e-9
-0.133, 9.462e-9
-0.134, 9.501e-9
-0.135, 9.391e-9
-0.136, 9.423e-9
-0.137, 9.378e-9
-0.138, 9.315e-9
-0.139, 9.354e-9
-0.140, 9.249e-9
-0.141, 9.281e-9
-0.142, 9.236e-9
-0.143, 9.176e-9
-0.144, 9.216e-9
-0.145, 9.114e-9
-0.146, 9.150e-9
-0.147, 9.103e-9
-0.148, 9.051e-9
-0.149, 9.090e-9
-0.150, 8.989e-9
-0.151, 9.026e-9
-0.152, 8.984e-9
-0.153, 8.933e-9
-0.154, 8.977e-9
-0.155, 8.874e-9
-0.156, 8.917e-9
-0.157, 8.873e-9
-0.158, 8.821e-9
-0.159, 8.868e-9
-0.160, 8.767e-9
-0.161, 8.810e-9
-0.162, 8.769e-9
-0.163, 8.718e-9
-0.164, 8.771e-9
-0.165, 8.665e-9
-0.166, 8.716e-9
-0.167, 8.681e-9
-0.168, 8.624e-9
-0.169, 8.678e-9
-0.170, 8.582e-9
-0.171, 8.623e-9
-0.172, 8.594e-9
-0.173, 8.535e-9
-0.174, 8.596e-9
-0.175, 8.496e-9
-0.176, 8.543e-9
-0.177, 8.512e-9
-0.178, 8.460e-9
-0.179, 8.522e-9
-0.180, 8.424e-9
-0.181, 8.469e-9
-0.182, 8.440e-9
-0.183, 8.394e-9
-0.184, 8.450e-9
-0.185, 8.359e-9
-0.186, 8.403e-9
-0.187, 8.377e-9
-0.188, 8.335e-9
-0.189, 8.391e-9
-0.190, 8.301e-9
-0.191, 8.352e-9
-0.192, 8.326e-9
-0.193, 8.284e-9
-0.194, 8.341e-9
-0.195, 8.256e-9
-0.196, 8.308e-9
-0.197, 8.280e-9
-0.198, 8.239e-9
-0.199, 8.302e-9
