Mar. 16, 2023   09:48:37
Cyclic Voltammetry
File: c:/users/oliverrz/desktop/electrolab/data/2023_03_16\fcmeoh_macros_750_um\electrode5_cv_150mvs_750_um.bin
Data Source:  Experiment
Instrument Model:  CHI760E
Header: CV
Note: 

Init E (V) = -0.2
High E (V) = 0.3
Low E (V) = -0.2
Final E (V) = -0.2
Init P/N = P
Scan Rate (V/s) = 0.15
Segment = 3
Sample Interval (V) = 0.001
Quiet Time (sec) = 2
Sensitivity (A/V) = 1e-7

Results:

Channel 1:
Segment 1:
Ep = 0.106V
ip = -5.713e-8A
Ah = -2.285e-8C

Segment 2:
Ep = 0.045V
ip = 5.535e-8A
Ah = 2.294e-8C

Segment 3:

Potential/V, Current/A

-0.200, 9.679e-9
-0.199, 8.636e-9
-0.198, 8.479e-9
-0.197, 8.282e-9
-0.196, 8.010e-9
-0.195, 8.040e-9
-0.194, 7.714e-9
-0.193, 7.714e-9
-0.192, 7.554e-9
-0.191, 7.333e-9
-0.190, 7.413e-9
-0.189, 7.107e-9
-0.188, 7.119e-9
-0.187, 7.008e-9
-0.186, 6.785e-9
-0.185, 6.863e-9
-0.184, 6.598e-9
-0.183, 6.620e-9
-0.182, 6.485e-9
-0.181, 6.315e-9
-0.180, 6.388e-9
-0.179, 6.099e-9
-0.178, 6.159e-9
-0.177, 6.025e-9
-0.176, 5.851e-9
-0.175, 5.958e-9
-0.174, 5.654e-9
-0.173, 5.727e-9
-0.172, 5.615e-9
-0.171, 5.418e-9
-0.170, 5.539e-9
-0.169, 5.253e-9
-0.168, 5.317e-9
-0.167, 5.210e-9
-0.166, 5.021e-9
-0.165, 5.152e-9
-0.164, 4.869e-9
-0.163, 4.929e-9
-0.162, 4.848e-9
-0.161, 4.648e-9
-0.160, 4.797e-9
-0.159, 4.512e-9
-0.158, 4.564e-9
-0.157, 4.506e-9
-0.156, 4.304e-9
-0.155, 4.430e-9
-0.154, 4.183e-9
-0.153, 4.222e-9
-0.152, 4.160e-9
-0.151, 3.991e-9
-0.150, 4.091e-9
-0.149, 3.859e-9
-0.148, 3.918e-9
-0.147, 3.837e-9
-0.146, 3.673e-9
-0.145, 3.793e-9
-0.144, 3.559e-9
-0.143, 3.619e-9
-0.142, 3.546e-9
-0.141, 3.374e-9
-0.140, 3.511e-9
-0.139, 3.264e-9
-0.138, 3.337e-9
-0.137, 3.250e-9
-0.136, 3.110e-9
-0.135, 3.240e-9
-0.134, 2.977e-9
-0.133, 3.067e-9
-0.132, 2.996e-9
-0.131, 2.832e-9
-0.130, 2.986e-9
-0.129, 2.713e-9
-0.128, 2.804e-9
-0.127, 2.743e-9
-0.126, 2.569e-9
-0.125, 2.727e-9
-0.124, 2.478e-9
-0.123, 2.554e-9
-0.122, 2.508e-9
-0.121, 2.329e-9
-0.120, 2.490e-9
-0.119, 2.255e-9
-0.118, 2.317e-9
-0.117, 2.270e-9
-0.116, 2.103e-9
-0.115, 2.252e-9
-0.114, 2.027e-9
-0.113, 2.085e-9
-0.112, 2.058e-9
-0.111, 1.889e-9
-0.110, 2.027e-9
-0.109, 1.811e-9
-0.108, 1.880e-9
-0.107, 1.823e-9
-0.106, 1.677e-9
-0.105, 1.815e-9
-0.104, 1.593e-9
-0.103, 1.667e-9
-0.102, 1.608e-9
-0.101, 1.462e-9
-0.100, 1.616e-9
-0.099, 1.377e-9
-0.098, 1.466e-9
-0.097, 1.406e-9
-0.096, 1.265e-9
-0.095, 1.406e-9
-0.094, 1.175e-9
-0.093, 1.265e-9
-0.092, 1.208e-9
-0.091, 1.049e-9
-0.090, 1.215e-9
-0.089, 9.661e-10
-0.088, 1.067e-9
-0.087, 1.023e-9
-0.086, 8.310e-10
-0.085, 1.021e-9
-0.084, 7.796e-10
-0.083, 8.503e-10
-0.082, 8.147e-10
-0.081, 6.403e-10
-0.080, 8.180e-10
-0.079, 5.750e-10
-0.078, 6.352e-10
-0.077, 5.982e-10
-0.076, 4.329e-10
-0.075, 5.980e-10
-0.074, 3.602e-10
-0.073, 4.214e-10
-0.072, 3.995e-10
-0.071, 2.316e-10
-0.070, 3.645e-10
-0.069, 1.508e-10
-0.068, 2.084e-10
-0.067, 1.730e-10
-0.066, 8.882e-12
-0.065, 1.383e-10
-0.064, -8.084e-11
-0.063, -1.462e-11
-0.062, -6.954e-11
-0.061, -2.341e-10
-0.060, -7.914e-11
-0.059, -3.353e-10
-0.058, -2.459e-10
-0.057, -3.198e-10
-0.056, -4.807e-10
-0.055, -3.338e-10
-0.054, -5.940e-10
-0.053, -5.222e-10
-0.052, -5.826e-10
-0.051, -7.695e-10
-0.050, -6.222e-10
-0.049, -8.809e-10
-0.048, -8.137e-10
-0.047, -8.766e-10
-0.046, -1.076e-9
-0.045, -9.333e-10
-0.044, -1.191e-9
-0.043, -1.149e-9
-0.042, -1.198e-9
-0.041, -1.417e-9
-0.040, -1.280e-9
-0.039, -1.547e-9
-0.038, -1.523e-9
-0.037, -1.579e-9
-0.036, -1.803e-9
-0.035, -1.681e-9
-0.034, -1.950e-9
-0.033, -1.940e-9
-0.032, -2.013e-9
-0.031, -2.233e-9
-0.030, -2.139e-9
-0.029, -2.416e-9
-0.028, -2.408e-9
-0.027, -2.511e-9
-0.026, -2.755e-9
-0.025, -2.671e-9
-0.024, -2.957e-9
-0.023, -2.974e-9
-0.022, -3.086e-9
-0.021, -3.348e-9
-0.020, -3.277e-9
-0.019, -3.579e-9
-0.018, -3.607e-9
-0.017, -3.761e-9
-0.016, -4.012e-9
-0.015, -3.966e-9
-0.014, -4.332e-9
-0.013, -4.368e-9
-0.012, -4.541e-9
-0.011, -4.833e-9
-0.010, -4.793e-9
-0.009, -5.192e-9
-0.008, -5.243e-9
-0.007, -5.445e-9
-0.006, -5.782e-9
-0.005, -5.773e-9
-0.004, -6.182e-9
-0.003, -6.295e-9
-0.002, -6.511e-9
-0.001, -6.891e-9
-0.000, -7.035e-9
0.001, -7.398e-9
0.002, -7.556e-9
0.003, -7.793e-9
0.004, -8.220e-9
0.005, -8.291e-9
0.006, -8.754e-9
0.007, -8.984e-9
0.008, -9.244e-9
0.009, -9.701e-9
0.010, -9.870e-9
0.011, -1.035e-8
0.012, -1.063e-8
0.013, -1.097e-8
0.014, -1.145e-8
0.015, -1.168e-8
0.016, -1.221e-8
0.017, -1.252e-8
0.018, -1.295e-8
0.019, -1.348e-8
0.020, -1.374e-8
0.021, -1.437e-8
0.022, -1.472e-8
0.023, -1.522e-8
0.024, -1.581e-8
0.025, -1.616e-8
0.026, -1.686e-8
0.027, -1.726e-8
0.028, -1.780e-8
0.029, -1.847e-8
0.030, -1.885e-8
0.031, -1.962e-8
0.032, -2.007e-8
0.033, -2.068e-8
0.034, -2.146e-8
0.035, -2.186e-8
0.036, -2.271e-8
0.037, -2.326e-8
0.038, -2.393e-8
0.039, -2.477e-8
0.040, -2.522e-8
0.041, -2.610e-8
0.042, -2.677e-8
0.043, -2.745e-8
0.044, -2.833e-8
0.045, -2.889e-8
0.046, -2.979e-8
0.047, -3.050e-8
0.048, -3.125e-8
0.049, -3.215e-8
0.050, -3.280e-8
0.051, -3.375e-8
0.052, -3.450e-8
0.053, -3.528e-8
0.054, -3.619e-8
0.055, -3.690e-8
0.056, -3.780e-8
0.057, -3.856e-8
0.058, -3.942e-8
0.059, -4.031e-8
0.060, -4.099e-8
0.061, -4.196e-8
0.062, -4.268e-8
0.063, -4.356e-8
0.064, -4.442e-8
0.065, -4.507e-8
0.066, -4.605e-8
0.067, -4.671e-8
0.068, -4.755e-8
0.069, -4.842e-8
0.070, -4.899e-8
0.071, -4.994e-8
0.072, -5.054e-8
0.073, -5.129e-8
0.074, -5.211e-8
0.075, -5.261e-8
0.076, -5.351e-8
0.077, -5.407e-8
0.078, -5.470e-8
0.079, -5.547e-8
0.080, -5.585e-8
0.081, -5.662e-8
0.082, -5.709e-8
0.083, -5.761e-8
0.084, -5.828e-8
0.085, -5.859e-8
0.086, -5.919e-8
0.087, -5.962e-8
0.088, -6.002e-8
0.089, -6.053e-8
0.090, -6.079e-8
0.091, -6.127e-8
0.092, -6.155e-8
0.093, -6.184e-8
0.094, -6.222e-8
0.095, -6.234e-8
0.096, -6.273e-8
0.097, -6.287e-8
0.098, -6.308e-8
0.099, -6.333e-8
0.100, -6.335e-8
0.101, -6.361e-8
0.102, -6.367e-8
0.103, -6.378e-8
0.104, -6.393e-8
0.105, -6.380e-8
0.106, -6.401e-8
0.107, -6.389e-8
0.108, -6.391e-8
0.109, -6.398e-8
0.110, -6.375e-8
0.111, -6.393e-8
0.112, -6.369e-8
0.113, -6.359e-8
0.114, -6.364e-8
0.115, -6.333e-8
0.116, -6.339e-8
0.117, -6.315e-8
0.118, -6.295e-8
0.119, -6.296e-8
0.120, -6.256e-8
0.121, -6.255e-8
0.122, -6.228e-8
0.123, -6.205e-8
0.124, -6.197e-8
0.125, -6.155e-8
0.126, -6.149e-8
0.127, -6.119e-8
0.128, -6.092e-8
0.129, -6.083e-8
0.130, -6.037e-8
0.131, -6.027e-8
0.132, -5.996e-8
0.133, -5.966e-8
0.134, -5.951e-8
0.135, -5.910e-8
0.136, -5.896e-8
0.137, -5.860e-8
0.138, -5.834e-8
0.139, -5.816e-8
0.140, -5.771e-8
0.141, -5.760e-8
0.142, -5.723e-8
0.143, -5.695e-8
0.144, -5.679e-8
0.145, -5.631e-8
0.146, -5.622e-8
0.147, -5.585e-8
0.148, -5.554e-8
0.149, -5.541e-8
0.150, -5.494e-8
0.151, -5.486e-8
0.152, -5.447e-8
0.153, -5.419e-8
0.154, -5.407e-8
0.155, -5.358e-8
0.156, -5.352e-8
0.157, -5.315e-8
0.158, -5.286e-8
0.159, -5.277e-8
0.160, -5.228e-8
0.161, -5.223e-8
0.162, -5.191e-8
0.163, -5.159e-8
0.164, -5.152e-8
0.165, -5.107e-8
0.166, -5.099e-8
0.167, -5.069e-8
0.168, -5.041e-8
0.169, -5.033e-8
0.170, -4.991e-8
0.171, -4.985e-8
0.172, -4.955e-8
0.173, -4.930e-8
0.174, -4.921e-8
0.175, -4.882e-8
0.176, -4.875e-8
0.177, -4.848e-8
0.178, -4.825e-8
0.179, -4.819e-8
0.180, -4.780e-8
0.181, -4.776e-8
0.182, -4.747e-8
0.183, -4.727e-8
0.184, -4.720e-8
0.185, -4.682e-8
0.186, -4.683e-8
0.187, -4.653e-8
0.188, -4.633e-8
0.189, -4.631e-8
0.190, -4.592e-8
0.191, -4.594e-8
0.192, -4.568e-8
0.193, -4.547e-8
0.194, -4.547e-8
0.195, -4.508e-8
0.196, -4.511e-8
0.197, -4.487e-8
0.198, -4.467e-8
0.199, -4.469e-8
0.200, -4.431e-8
0.201, -4.436e-8
0.202, -4.414e-8
0.203, -4.392e-8
0.204, -4.398e-8
0.205, -4.361e-8
0.206, -4.364e-8
0.207, -4.347e-8
0.208, -4.325e-8
0.209, -4.329e-8
0.210, -4.297e-8
0.211, -4.299e-8
0.212, -4.281e-8
0.213, -4.264e-8
0.214, -4.267e-8
0.215, -4.235e-8
0.216, -4.240e-8
0.217, -4.220e-8
0.218, -4.206e-8
0.219, -4.210e-8
0.220, -4.177e-8
0.221, -4.185e-8
0.222, -4.166e-8
0.223, -4.151e-8
0.224, -4.155e-8
0.225, -4.125e-8
0.226, -4.131e-8
0.227, -4.114e-8
0.228, -4.100e-8
0.229, -4.106e-8
0.230, -4.075e-8
0.231, -4.086e-8
0.232, -4.066e-8
0.233, -4.052e-8
0.234, -4.061e-8
0.235, -4.029e-8
0.236, -4.039e-8
0.237, -4.023e-8
0.238, -4.009e-8
0.239, -4.018e-8
0.240, -3.988e-8
0.241, -3.996e-8
0.242, -3.983e-8
0.243, -3.970e-8
0.244, -3.978e-8
0.245, -3.950e-8
0.246, -3.959e-8
0.247, -3.946e-8
0.248, -3.932e-8
0.249, -3.942e-8
0.250, -3.915e-8
0.251, -3.924e-8
0.252, -3.912e-8
0.253, -3.898e-8
0.254, -3.908e-8
0.255, -3.882e-8
0.256, -3.891e-8
0.257, -3.878e-8
0.258, -3.869e-8
0.259, -3.877e-8
0.260, -3.850e-8
0.261, -3.863e-8
0.262, -3.848e-8
0.263, -3.839e-8
0.264, -3.850e-8
0.265, -3.823e-8
0.266, -3.836e-8
0.267, -3.823e-8
0.268, -3.813e-8
0.269, -3.825e-8
0.270, -3.798e-8
0.271, -3.811e-8
0.272, -3.799e-8
0.273, -3.789e-8
0.274, -3.803e-8
0.275, -3.775e-8
0.276, -3.790e-8
0.277, -3.778e-8
0.278, -3.767e-8
0.279, -3.782e-8
0.280, -3.756e-8
0.281, -3.769e-8
0.282, -3.761e-8
0.283, -3.750e-8
0.284, -3.763e-8
0.285, -3.740e-8
0.286, -3.753e-8
0.287, -3.745e-8
0.288, -3.735e-8
0.289, -3.748e-8
0.290, -3.726e-8
0.291, -3.740e-8
0.292, -3.731e-8
0.293, -3.722e-8
0.294, -3.738e-8
0.295, -3.715e-8
0.296, -3.728e-8
0.297, -3.720e-8
0.298, -3.714e-8
0.299, -3.726e-8
0.300, -3.459e-8
0.299, -3.324e-8
0.298, -3.280e-8
0.297, -3.245e-8
0.296, -3.240e-8
0.295, -3.196e-8
0.294, -3.194e-8
0.293, -3.171e-8
0.292, -3.146e-8
0.291, -3.151e-8
0.290, -3.114e-8
0.289, -3.114e-8
0.288, -3.097e-8
0.287, -3.076e-8
0.286, -3.080e-8
0.285, -3.049e-8
0.284, -3.052e-8
0.283, -3.035e-8
0.282, -3.020e-8
0.281, -3.024e-8
0.280, -2.993e-8
0.279, -3.001e-8
0.278, -2.983e-8
0.277, -2.969e-8
0.276, -2.975e-8
0.275, -2.947e-8
0.274, -2.954e-8
0.273, -2.938e-8
0.272, -2.924e-8
0.271, -2.931e-8
0.270, -2.903e-8
0.269, -2.912e-8
0.268, -2.896e-8
0.267, -2.884e-8
0.266, -2.893e-8
0.265, -2.863e-8
0.264, -2.873e-8
0.263, -2.860e-8
0.262, -2.845e-8
0.261, -2.856e-8
0.260, -2.826e-8
0.259, -2.837e-8
0.258, -2.825e-8
0.257, -2.810e-8
0.256, -2.821e-8
0.255, -2.794e-8
0.254, -2.802e-8
0.253, -2.792e-8
0.252, -2.776e-8
0.251, -2.789e-8
0.250, -2.761e-8
0.249, -2.770e-8
0.248, -2.759e-8
0.247, -2.745e-8
0.246, -2.757e-8
0.245, -2.730e-8
0.244, -2.738e-8
0.243, -2.729e-8
0.242, -2.715e-8
0.241, -2.725e-8
0.240, -2.700e-8
0.239, -2.710e-8
0.238, -2.697e-8
0.237, -2.686e-8
0.236, -2.696e-8
0.235, -2.671e-8
0.234, -2.680e-8
0.233, -2.669e-8
0.232, -2.656e-8
0.231, -2.667e-8
0.230, -2.640e-8
0.229, -2.651e-8
0.228, -2.639e-8
0.227, -2.626e-8
0.226, -2.639e-8
0.225, -2.610e-8
0.224, -2.621e-8
0.223, -2.609e-8
0.222, -2.595e-8
0.221, -2.608e-8
0.220, -2.579e-8
0.219, -2.591e-8
0.218, -2.580e-8
0.217, -2.563e-8
0.216, -2.577e-8
0.215, -2.549e-8
0.214, -2.557e-8
0.213, -2.547e-8
0.212, -2.532e-8
0.211, -2.544e-8
0.210, -2.517e-8
0.209, -2.525e-8
0.208, -2.513e-8
0.207, -2.499e-8
0.206, -2.509e-8
0.205, -2.480e-8
0.204, -2.488e-8
0.203, -2.478e-8
0.202, -2.462e-8
0.201, -2.471e-8
0.200, -2.444e-8
0.199, -2.450e-8
0.198, -2.438e-8
0.197, -2.423e-8
0.196, -2.431e-8
0.195, -2.403e-8
0.194, -2.410e-8
0.193, -2.395e-8
0.192, -2.378e-8
0.191, -2.387e-8
0.190, -2.356e-8
0.189, -2.364e-8
0.188, -2.347e-8
0.187, -2.331e-8
0.186, -2.339e-8
0.185, -2.306e-8
0.184, -2.312e-8
0.183, -2.296e-8
0.182, -2.276e-8
0.181, -2.282e-8
0.180, -2.248e-8
0.179, -2.252e-8
0.178, -2.235e-8
0.177, -2.214e-8
0.176, -2.220e-8
0.175, -2.183e-8
0.174, -2.185e-8
0.173, -2.168e-8
0.172, -2.142e-8
0.171, -2.148e-8
0.170, -2.111e-8
0.169, -2.108e-8
0.168, -2.089e-8
0.167, -2.062e-8
0.166, -2.062e-8
0.165, -2.025e-8
0.164, -2.019e-8
0.163, -1.999e-8
0.162, -1.969e-8
0.161, -1.966e-8
0.160, -1.926e-8
0.159, -1.919e-8
0.158, -1.892e-8
0.157, -1.863e-8
0.156, -1.854e-8
0.155, -1.812e-8
0.154, -1.801e-8
0.153, -1.769e-8
0.152, -1.737e-8
0.151, -1.726e-8
0.150, -1.677e-8
0.149, -1.664e-8
0.148, -1.628e-8
0.147, -1.592e-8
0.146, -1.577e-8
0.145, -1.522e-8
0.144, -1.505e-8
0.143, -1.465e-8
0.142, -1.422e-8
0.141, -1.402e-8
0.140, -1.343e-8
0.139, -1.321e-8
0.138, -1.277e-8
0.137, -1.226e-8
0.136, -1.203e-8
0.135, -1.139e-8
0.134, -1.109e-8
0.133, -1.061e-8
0.132, -1.003e-8
0.131, -9.752e-9
0.130, -9.056e-9
0.129, -8.662e-9
0.128, -8.142e-9
0.127, -7.508e-9
0.126, -7.130e-9
0.125, -6.402e-9
0.124, -5.940e-9
0.123, -5.350e-9
0.122, -4.687e-9
0.121, -4.225e-9
0.120, -3.428e-9
0.119, -2.927e-9
0.118, -2.248e-9
0.117, -1.519e-9
0.116, -9.737e-10
0.115, -1.396e-10
0.114, 4.361e-10
0.113, 1.182e-9
0.112, 1.957e-9
0.111, 2.571e-9
0.110, 3.464e-9
0.109, 4.072e-9
0.108, 4.901e-9
0.107, 5.696e-9
0.106, 6.323e-9
0.105, 7.321e-9
0.104, 7.968e-9
0.103, 8.843e-9
0.102, 9.720e-9
0.101, 1.037e-8
0.100, 1.139e-8
0.099, 1.204e-8
0.098, 1.290e-8
0.097, 1.383e-8
0.096, 1.446e-8
0.095, 1.550e-8
0.094, 1.619e-8
0.093, 1.704e-8
0.092, 1.797e-8
0.091, 1.860e-8
0.090, 1.963e-8
0.089, 2.034e-8
0.088, 2.110e-8
0.087, 2.204e-8
0.086, 2.265e-8
0.085, 2.361e-8
0.084, 2.428e-8
0.083, 2.502e-8
0.082, 2.587e-8
0.081, 2.648e-8
0.080, 2.734e-8
0.079, 2.796e-8
0.078, 2.868e-8
0.077, 2.943e-8
0.076, 2.998e-8
0.075, 3.073e-8
0.074, 3.124e-8
0.073, 3.188e-8
0.072, 3.252e-8
0.071, 3.296e-8
0.070, 3.366e-8
0.069, 3.403e-8
0.068, 3.463e-8
0.067, 3.508e-8
0.066, 3.543e-8
0.065, 3.607e-8
0.064, 3.632e-8
0.063, 3.675e-8
0.062, 3.718e-8
0.061, 3.733e-8
0.060, 3.788e-8
0.059, 3.799e-8
0.058, 3.830e-8
0.057, 3.864e-8
0.056, 3.866e-8
0.055, 3.910e-8
0.054, 3.912e-8
0.053, 3.930e-8
0.052, 3.957e-8
0.051, 3.949e-8
0.050, 3.977e-8
0.049, 3.973e-8
0.048, 3.978e-8
0.047, 3.993e-8
0.046, 3.981e-8
0.045, 3.996e-8
0.044, 3.986e-8
0.043, 3.983e-8
0.042, 3.985e-8
0.041, 3.967e-8
0.040, 3.975e-8
0.039, 3.956e-8
0.038, 3.948e-8
0.037, 3.945e-8
0.036, 3.919e-8
0.035, 3.920e-8
0.034, 3.895e-8
0.033, 3.883e-8
0.032, 3.872e-8
0.031, 3.841e-8
0.030, 3.841e-8
0.029, 3.808e-8
0.028, 3.795e-8
0.027, 3.781e-8
0.026, 3.745e-8
0.025, 3.743e-8
0.024, 3.707e-8
0.023, 3.687e-8
0.022, 3.674e-8
0.021, 3.632e-8
0.020, 3.631e-8
0.019, 3.592e-8
0.018, 3.570e-8
0.017, 3.558e-8
0.016, 3.514e-8
0.015, 3.509e-8
0.014, 3.472e-8
0.013, 3.449e-8
0.012, 3.436e-8
0.011, 3.390e-8
0.010, 3.387e-8
0.009, 3.350e-8
0.008, 3.324e-8
0.007, 3.313e-8
0.006, 3.268e-8
0.005, 3.263e-8
0.004, 3.229e-8
0.003, 3.202e-8
0.002, 3.190e-8
0.001, 3.149e-8
0.000, 3.154e-8
-0.001, 3.110e-8
-0.002, 3.088e-8
-0.003, 3.073e-8
-0.004, 3.034e-8
-0.005, 3.030e-8
-0.006, 2.994e-8
-0.007, 2.975e-8
-0.008, 2.962e-8
-0.009, 2.921e-8
-0.010, 2.920e-8
-0.011, 2.886e-8
-0.012, 2.868e-8
-0.013, 2.857e-8
-0.014, 2.818e-8
-0.015, 2.818e-8
-0.016, 2.784e-8
-0.017, 2.768e-8
-0.018, 2.759e-8
-0.019, 2.720e-8
-0.020, 2.724e-8
-0.021, 2.690e-8
-0.022, 2.673e-8
-0.023, 2.669e-8
-0.024, 2.630e-8
-0.025, 2.634e-8
-0.026, 2.605e-8
-0.027, 2.587e-8
-0.028, 2.585e-8
-0.029, 2.547e-8
-0.030, 2.551e-8
-0.031, 2.524e-8
-0.032, 2.509e-8
-0.033, 2.505e-8
-0.034, 2.471e-8
-0.035, 2.477e-8
-0.036, 2.451e-8
-0.037, 2.435e-8
-0.038, 2.435e-8
-0.039, 2.401e-8
-0.040, 2.407e-8
-0.041, 2.383e-8
-0.042, 2.369e-8
-0.043, 2.368e-8
-0.044, 2.339e-8
-0.045, 2.343e-8
-0.046, 2.320e-8
-0.047, 2.311e-8
-0.048, 2.309e-8
-0.049, 2.279e-8
-0.050, 2.290e-8
-0.051, 2.265e-8
-0.052, 2.256e-8
-0.053, 2.257e-8
-0.054, 2.226e-8
-0.055, 2.238e-8
-0.056, 2.215e-8
-0.057, 2.206e-8
-0.058, 2.209e-8
-0.059, 2.180e-8
-0.060, 2.192e-8
-0.061, 2.169e-8
-0.062, 2.163e-8
-0.063, 2.166e-8
-0.064, 2.138e-8
-0.065, 2.150e-8
-0.066, 2.130e-8
-0.067, 2.122e-8
-0.068, 2.130e-8
-0.069, 2.099e-8
-0.070, 2.112e-8
-0.071, 2.096e-8
-0.072, 2.086e-8
-0.073, 2.093e-8
-0.074, 2.068e-8
-0.075, 2.079e-8
-0.076, 2.063e-8
-0.077, 2.057e-8
-0.078, 2.062e-8
-0.079, 2.038e-8
-0.080, 2.051e-8
-0.081, 2.035e-8
-0.082, 2.029e-8
-0.083, 2.037e-8
-0.084, 2.013e-8
-0.085, 2.026e-8
-0.086, 2.010e-8
-0.087, 2.007e-8
-0.088, 2.014e-8
-0.089, 1.991e-8
-0.090, 2.006e-8
-0.091, 1.990e-8
-0.092, 1.989e-8
-0.093, 1.994e-8
-0.094, 1.971e-8
-0.095, 1.990e-8
-0.096, 1.972e-8
-0.097, 1.969e-8
-0.098, 1.981e-8
-0.099, 1.956e-8
-0.100, 1.974e-8
-0.101, 1.960e-8
-0.102, 1.956e-8
-0.103, 1.968e-8
-0.104, 1.945e-8
-0.105, 1.962e-8
-0.106, 1.949e-8
-0.107, 1.947e-8
-0.108, 1.958e-8
-0.109, 1.935e-8
-0.110, 1.954e-8
-0.111, 1.942e-8
-0.112, 1.938e-8
-0.113, 1.952e-8
-0.114, 1.930e-8
-0.115, 1.948e-8
-0.116, 1.939e-8
-0.117, 1.934e-8
-0.118, 1.946e-8
-0.119, 1.929e-8
-0.120, 1.945e-8
-0.121, 1.934e-8
-0.122, 1.935e-8
-0.123, 1.945e-8
-0.124, 1.928e-8
-0.125, 1.947e-8
-0.126, 1.934e-8
-0.127, 1.936e-8
-0.128, 1.950e-8
-0.129, 1.929e-8
-0.130, 1.950e-8
-0.131, 1.940e-8
-0.132, 1.940e-8
-0.133, 1.953e-8
-0.134, 1.936e-8
-0.135, 1.956e-8
-0.136, 1.946e-8
-0.137, 1.947e-8
-0.138, 1.962e-8
-0.139, 1.943e-8
-0.140, 1.967e-8
-0.141, 1.955e-8
-0.142, 1.956e-8
-0.143, 1.974e-8
-0.144, 1.953e-8
-0.145, 1.977e-8
-0.146, 1.970e-8
-0.147, 1.968e-8
-0.148, 1.987e-8
-0.149, 1.968e-8
-0.150, 1.990e-8
-0.151, 1.984e-8
-0.152, 1.985e-8
-0.153, 2.002e-8
-0.154, 1.986e-8
-0.155, 2.008e-8
-0.156, 2.003e-8
-0.157, 2.002e-8
-0.158, 2.021e-8
-0.159, 2.005e-8
-0.160, 2.027e-8
-0.161, 2.023e-8
-0.162, 2.024e-8
-0.163, 2.041e-8
-0.164, 2.028e-8
-0.165, 2.049e-8
-0.166, 2.045e-8
-0.167, 2.050e-8
-0.168, 2.066e-8
-0.169, 2.052e-8
-0.170, 2.078e-8
-0.171, 2.071e-8
-0.172, 2.077e-8
-0.173, 2.095e-8
-0.174, 2.079e-8
-0.175, 2.106e-8
-0.176, 2.103e-8
-0.177, 2.106e-8
-0.178, 2.126e-8
-0.179, 2.113e-8
-0.180, 2.139e-8
-0.181, 2.134e-8
-0.182, 2.140e-8
-0.183, 2.161e-8
-0.184, 2.147e-8
-0.185, 2.175e-8
-0.186, 2.170e-8
-0.187, 2.175e-8
-0.188, 2.199e-8
-0.189, 2.185e-8
-0.190, 2.210e-8
-0.191, 2.213e-8
-0.192, 2.216e-8
-0.193, 2.238e-8
-0.194, 2.228e-8
-0.195, 2.253e-8
-0.196, 2.255e-8
-0.197, 2.260e-8
-0.198, 2.282e-8
-0.199, 2.273e-8
