Mar. 16, 2023   09:51:37
Cyclic Voltammetry
File: c:/users/oliverrz/desktop/electrolab/data/2023_03_16\fcmeoh_macros_750_um\electrode7_cv_250mvs_750_um.bin
Data Source:  Experiment
Instrument Model:  CHI760E
Header: CV
Note: 

Init E (V) = -0.2
High E (V) = 0.3
Low E (V) = -0.2
Final E (V) = -0.2
Init P/N = P
Scan Rate (V/s) = 0.25
Segment = 3
Sample Interval (V) = 0.001
Quiet Time (sec) = 2
Sensitivity (A/V) = 1e-7

Results:

Channel 1:
Segment 1:
Ep = 0.110V
ip = -7.763e-8A
Ah = -1.940e-8C

Segment 2:
Ep = 0.047V
ip = 7.073e-8A
Ah = 1.798e-8C

Segment 3:

Potential/V, Current/A

-0.200, 2.530e-9
-0.199, 1.484e-9
-0.198, 1.422e-9
-0.197, 1.607e-9
-0.196, 1.514e-9
-0.195, 1.268e-9
-0.194, 1.207e-9
-0.193, 1.391e-9
-0.192, 1.422e-9
-0.191, 1.207e-9
-0.190, 1.053e-9
-0.189, 1.268e-9
-0.188, 1.299e-9
-0.187, 1.145e-9
-0.186, 9.605e-10
-0.185, 1.114e-9
-0.184, 1.237e-9
-0.183, 1.053e-9
-0.182, 8.990e-10
-0.181, 9.913e-10
-0.180, 1.114e-9
-0.179, 1.022e-9
-0.178, 7.759e-10
-0.177, 8.682e-10
-0.176, 1.053e-9
-0.175, 9.605e-10
-0.174, 7.452e-10
-0.173, 7.452e-10
-0.172, 9.605e-10
-0.171, 9.298e-10
-0.170, 7.144e-10
-0.169, 6.529e-10
-0.168, 8.682e-10
-0.167, 8.682e-10
-0.166, 6.529e-10
-0.165, 5.606e-10
-0.164, 7.452e-10
-0.163, 8.375e-10
-0.162, 6.529e-10
-0.161, 4.683e-10
-0.160, 6.529e-10
-0.159, 7.759e-10
-0.158, 5.913e-10
-0.157, 4.375e-10
-0.156, 5.298e-10
-0.155, 7.144e-10
-0.154, 5.913e-10
-0.153, 3.452e-10
-0.152, 4.375e-10
-0.151, 6.529e-10
-0.150, 5.298e-10
-0.149, 3.452e-10
-0.148, 3.145e-10
-0.147, 5.606e-10
-0.146, 5.298e-10
-0.145, 2.837e-10
-0.144, 2.837e-10
-0.143, 4.683e-10
-0.142, 4.991e-10
-0.141, 3.145e-10
-0.140, 1.606e-10
-0.139, 3.760e-10
-0.138, 4.683e-10
-0.137, 2.529e-10
-0.136, 1.299e-10
-0.135, 2.837e-10
-0.134, 4.068e-10
-0.133, 2.529e-10
-0.132, 6.834e-11
-0.131, 1.914e-10
-0.130, 3.760e-10
-0.129, 2.222e-10
-0.128, 3.758e-11
-0.127, 9.911e-11
-0.126, 2.837e-10
-0.125, 2.222e-10
-0.124, 6.813e-12
-0.123, 6.813e-12
-0.122, 2.529e-10
-0.121, 1.914e-10
-0.120, -2.395e-11
-0.119, -5.472e-11
-0.118, 1.299e-10
-0.117, 1.914e-10
-0.116, -2.395e-11
-0.115, -1.470e-10
-0.114, 6.834e-11
-0.113, 1.299e-10
-0.112, -5.472e-11
-0.111, -1.778e-10
-0.110, -2.395e-11
-0.109, 1.299e-10
-0.108, -8.548e-11
-0.107, -2.393e-10
-0.106, -1.162e-10
-0.105, 3.758e-11
-0.104, -5.472e-11
-0.103, -3.008e-10
-0.102, -2.085e-10
-0.101, 6.813e-12
-0.100, -1.162e-10
-0.099, -3.316e-10
-0.098, -3.008e-10
-0.097, -8.548e-11
-0.096, -1.162e-10
-0.095, -3.624e-10
-0.094, -3.931e-10
-0.093, -2.085e-10
-0.092, -1.778e-10
-0.091, -3.624e-10
-0.090, -4.854e-10
-0.089, -3.008e-10
-0.088, -2.085e-10
-0.087, -3.931e-10
-0.086, -5.470e-10
-0.085, -4.239e-10
-0.084, -2.701e-10
-0.083, -4.547e-10
-0.082, -6.393e-10
-0.081, -5.162e-10
-0.080, -3.624e-10
-0.079, -4.854e-10
-0.078, -7.315e-10
-0.077, -6.393e-10
-0.076, -4.547e-10
-0.075, -5.470e-10
-0.074, -7.623e-10
-0.073, -7.931e-10
-0.072, -5.777e-10
-0.071, -6.085e-10
-0.070, -8.854e-10
-0.069, -8.854e-10
-0.068, -7.315e-10
-0.067, -6.700e-10
-0.066, -9.161e-10
-0.065, -1.039e-9
-0.064, -8.546e-10
-0.063, -7.931e-10
-0.062, -1.008e-9
-0.061, -1.162e-9
-0.060, -1.039e-9
-0.059, -9.161e-10
-0.058, -1.101e-9
-0.057, -1.316e-9
-0.056, -1.193e-9
-0.055, -1.101e-9
-0.054, -1.224e-9
-0.053, -1.470e-9
-0.052, -1.439e-9
-0.051, -1.255e-9
-0.050, -1.378e-9
-0.049, -1.655e-9
-0.048, -1.655e-9
-0.047, -1.470e-9
-0.046, -1.562e-9
-0.045, -1.808e-9
-0.044, -1.901e-9
-0.043, -1.747e-9
-0.042, -1.747e-9
-0.041, -2.024e-9
-0.040, -2.178e-9
-0.039, -2.054e-9
-0.038, -2.024e-9
-0.037, -2.270e-9
-0.036, -2.485e-9
-0.035, -2.393e-9
-0.034, -2.331e-9
-0.033, -2.577e-9
-0.032, -2.793e-9
-0.031, -2.762e-9
-0.030, -2.701e-9
-0.029, -2.885e-9
-0.028, -3.193e-9
-0.027, -3.193e-9
-0.026, -3.100e-9
-0.025, -3.316e-9
-0.024, -3.593e-9
-0.023, -3.716e-9
-0.022, -3.593e-9
-0.021, -3.716e-9
-0.020, -4.116e-9
-0.019, -4.239e-9
-0.018, -4.177e-9
-0.017, -4.300e-9
-0.016, -4.639e-9
-0.015, -4.885e-9
-0.014, -4.823e-9
-0.013, -4.916e-9
-0.012, -5.285e-9
-0.011, -5.562e-9
-0.010, -5.623e-9
-0.009, -5.654e-9
-0.008, -6.023e-9
-0.007, -6.362e-9
-0.006, -6.485e-9
-0.005, -6.515e-9
-0.004, -6.885e-9
-0.003, -7.315e-9
-0.002, -7.469e-9
-0.001, -7.531e-9
-0.000, -7.992e-9
0.001, -8.392e-9
0.002, -8.669e-9
0.003, -8.700e-9
0.004, -9.069e-9
0.005, -9.530e-9
0.006, -9.900e-9
0.007, -1.005e-8
0.008, -1.033e-8
0.009, -1.091e-8
0.010, -1.138e-8
0.011, -1.153e-8
0.012, -1.187e-8
0.013, -1.242e-8
0.014, -1.298e-8
0.015, -1.328e-8
0.016, -1.353e-8
0.017, -1.421e-8
0.018, -1.482e-8
0.019, -1.516e-8
0.020, -1.556e-8
0.021, -1.614e-8
0.022, -1.688e-8
0.023, -1.734e-8
0.024, -1.771e-8
0.025, -1.845e-8
0.026, -1.919e-8
0.027, -1.978e-8
0.028, -2.021e-8
0.029, -2.085e-8
0.030, -2.174e-8
0.031, -2.245e-8
0.032, -2.291e-8
0.033, -2.365e-8
0.034, -2.451e-8
0.035, -2.534e-8
0.036, -2.596e-8
0.037, -2.664e-8
0.038, -2.762e-8
0.039, -2.857e-8
0.040, -2.919e-8
0.041, -2.999e-8
0.042, -3.097e-8
0.043, -3.196e-8
0.044, -3.282e-8
0.045, -3.350e-8
0.046, -3.457e-8
0.047, -3.568e-8
0.048, -3.651e-8
0.049, -3.734e-8
0.050, -3.839e-8
0.051, -3.956e-8
0.052, -4.057e-8
0.053, -4.131e-8
0.054, -4.242e-8
0.055, -4.362e-8
0.056, -4.457e-8
0.057, -4.553e-8
0.058, -4.648e-8
0.059, -4.768e-8
0.060, -4.885e-8
0.061, -4.968e-8
0.062, -5.069e-8
0.063, -5.189e-8
0.064, -5.303e-8
0.065, -5.396e-8
0.066, -5.488e-8
0.067, -5.605e-8
0.068, -5.719e-8
0.069, -5.808e-8
0.070, -5.897e-8
0.071, -6.008e-8
0.072, -6.115e-8
0.073, -6.217e-8
0.074, -6.282e-8
0.075, -6.389e-8
0.076, -6.500e-8
0.077, -6.589e-8
0.078, -6.657e-8
0.079, -6.746e-8
0.080, -6.838e-8
0.081, -6.931e-8
0.082, -6.986e-8
0.083, -7.060e-8
0.084, -7.152e-8
0.085, -7.226e-8
0.086, -7.278e-8
0.087, -7.340e-8
0.088, -7.411e-8
0.089, -7.488e-8
0.090, -7.531e-8
0.091, -7.571e-8
0.092, -7.638e-8
0.093, -7.691e-8
0.094, -7.728e-8
0.095, -7.758e-8
0.096, -7.798e-8
0.097, -7.854e-8
0.098, -7.878e-8
0.099, -7.884e-8
0.100, -7.927e-8
0.101, -7.958e-8
0.102, -7.983e-8
0.103, -7.983e-8
0.104, -7.998e-8
0.105, -8.026e-8
0.106, -8.035e-8
0.107, -8.020e-8
0.108, -8.029e-8
0.109, -8.038e-8
0.110, -8.047e-8
0.111, -8.026e-8
0.112, -8.011e-8
0.113, -8.023e-8
0.114, -8.020e-8
0.115, -7.992e-8
0.116, -7.971e-8
0.117, -7.964e-8
0.118, -7.961e-8
0.119, -7.934e-8
0.120, -7.891e-8
0.121, -7.884e-8
0.122, -7.872e-8
0.123, -7.841e-8
0.124, -7.795e-8
0.125, -7.774e-8
0.126, -7.764e-8
0.127, -7.734e-8
0.128, -7.678e-8
0.129, -7.654e-8
0.130, -7.635e-8
0.131, -7.604e-8
0.132, -7.552e-8
0.133, -7.512e-8
0.134, -7.497e-8
0.135, -7.469e-8
0.136, -7.411e-8
0.137, -7.371e-8
0.138, -7.346e-8
0.139, -7.321e-8
0.140, -7.269e-8
0.141, -7.217e-8
0.142, -7.195e-8
0.143, -7.171e-8
0.144, -7.121e-8
0.145, -7.066e-8
0.146, -7.038e-8
0.147, -7.017e-8
0.148, -6.971e-8
0.149, -6.912e-8
0.150, -6.881e-8
0.151, -6.866e-8
0.152, -6.823e-8
0.153, -6.765e-8
0.154, -6.731e-8
0.155, -6.712e-8
0.156, -6.681e-8
0.157, -6.620e-8
0.158, -6.583e-8
0.159, -6.568e-8
0.160, -6.534e-8
0.161, -6.482e-8
0.162, -6.438e-8
0.163, -6.420e-8
0.164, -6.402e-8
0.165, -6.349e-8
0.166, -6.303e-8
0.167, -6.285e-8
0.168, -6.263e-8
0.169, -6.220e-8
0.170, -6.168e-8
0.171, -6.149e-8
0.172, -6.137e-8
0.173, -6.094e-8
0.174, -6.045e-8
0.175, -6.023e-8
0.176, -6.011e-8
0.177, -5.980e-8
0.178, -5.931e-8
0.179, -5.903e-8
0.180, -5.897e-8
0.181, -5.869e-8
0.182, -5.820e-8
0.183, -5.789e-8
0.184, -5.780e-8
0.185, -5.765e-8
0.186, -5.719e-8
0.187, -5.685e-8
0.188, -5.675e-8
0.189, -5.663e-8
0.190, -5.620e-8
0.191, -5.583e-8
0.192, -5.574e-8
0.193, -5.568e-8
0.194, -5.531e-8
0.195, -5.488e-8
0.196, -5.479e-8
0.197, -5.476e-8
0.198, -5.445e-8
0.199, -5.402e-8
0.200, -5.386e-8
0.201, -5.386e-8
0.202, -5.365e-8
0.203, -5.319e-8
0.204, -5.303e-8
0.205, -5.303e-8
0.206, -5.285e-8
0.207, -5.248e-8
0.208, -5.220e-8
0.209, -5.223e-8
0.210, -5.214e-8
0.211, -5.171e-8
0.212, -5.149e-8
0.213, -5.146e-8
0.214, -5.143e-8
0.215, -5.109e-8
0.216, -5.076e-8
0.217, -5.079e-8
0.218, -5.076e-8
0.219, -5.048e-8
0.220, -5.014e-8
0.221, -5.008e-8
0.222, -5.014e-8
0.223, -4.989e-8
0.224, -4.952e-8
0.225, -4.946e-8
0.226, -4.952e-8
0.227, -4.934e-8
0.228, -4.897e-8
0.229, -4.885e-8
0.230, -4.894e-8
0.231, -4.882e-8
0.232, -4.845e-8
0.233, -4.829e-8
0.234, -4.836e-8
0.235, -4.829e-8
0.236, -4.799e-8
0.237, -4.777e-8
0.238, -4.780e-8
0.239, -4.783e-8
0.240, -4.753e-8
0.241, -4.728e-8
0.242, -4.731e-8
0.243, -4.734e-8
0.244, -4.713e-8
0.245, -4.682e-8
0.246, -4.682e-8
0.247, -4.691e-8
0.248, -4.669e-8
0.249, -4.642e-8
0.250, -4.636e-8
0.251, -4.645e-8
0.252, -4.636e-8
0.253, -4.599e-8
0.254, -4.593e-8
0.255, -4.605e-8
0.256, -4.596e-8
0.257, -4.565e-8
0.258, -4.553e-8
0.259, -4.562e-8
0.260, -4.562e-8
0.261, -4.531e-8
0.262, -4.513e-8
0.263, -4.525e-8
0.264, -4.528e-8
0.265, -4.500e-8
0.266, -4.479e-8
0.267, -4.485e-8
0.268, -4.494e-8
0.269, -4.473e-8
0.270, -4.448e-8
0.271, -4.451e-8
0.272, -4.463e-8
0.273, -4.445e-8
0.274, -4.417e-8
0.275, -4.417e-8
0.276, -4.433e-8
0.277, -4.420e-8
0.278, -4.389e-8
0.279, -4.386e-8
0.280, -4.399e-8
0.281, -4.396e-8
0.282, -4.368e-8
0.283, -4.356e-8
0.284, -4.374e-8
0.285, -4.371e-8
0.286, -4.343e-8
0.287, -4.331e-8
0.288, -4.340e-8
0.289, -4.350e-8
0.290, -4.325e-8
0.291, -4.303e-8
0.292, -4.316e-8
0.293, -4.325e-8
0.294, -4.306e-8
0.295, -4.285e-8
0.296, -4.288e-8
0.297, -4.303e-8
0.298, -4.288e-8
0.299, -4.263e-8
0.300, -4.106e-8
0.299, -3.934e-8
0.298, -3.897e-8
0.297, -3.848e-8
0.296, -3.833e-8
0.295, -3.833e-8
0.294, -3.817e-8
0.293, -3.780e-8
0.292, -3.759e-8
0.291, -3.768e-8
0.290, -3.759e-8
0.289, -3.725e-8
0.288, -3.707e-8
0.287, -3.710e-8
0.286, -3.710e-8
0.285, -3.682e-8
0.284, -3.654e-8
0.283, -3.660e-8
0.282, -3.663e-8
0.281, -3.642e-8
0.280, -3.614e-8
0.279, -3.614e-8
0.278, -3.623e-8
0.277, -3.605e-8
0.276, -3.574e-8
0.275, -3.574e-8
0.274, -3.583e-8
0.273, -3.571e-8
0.272, -3.540e-8
0.271, -3.531e-8
0.270, -3.547e-8
0.269, -3.537e-8
0.268, -3.507e-8
0.267, -3.497e-8
0.266, -3.507e-8
0.265, -3.507e-8
0.264, -3.479e-8
0.263, -3.460e-8
0.262, -3.473e-8
0.261, -3.476e-8
0.260, -3.451e-8
0.259, -3.430e-8
0.258, -3.436e-8
0.257, -3.442e-8
0.256, -3.423e-8
0.255, -3.396e-8
0.254, -3.402e-8
0.253, -3.414e-8
0.252, -3.396e-8
0.251, -3.371e-8
0.250, -3.368e-8
0.249, -3.380e-8
0.248, -3.371e-8
0.247, -3.340e-8
0.246, -3.337e-8
0.245, -3.350e-8
0.244, -3.343e-8
0.243, -3.316e-8
0.242, -3.303e-8
0.241, -3.316e-8
0.240, -3.322e-8
0.239, -3.288e-8
0.238, -3.276e-8
0.237, -3.285e-8
0.236, -3.288e-8
0.235, -3.267e-8
0.234, -3.245e-8
0.233, -3.254e-8
0.232, -3.260e-8
0.231, -3.239e-8
0.230, -3.217e-8
0.229, -3.220e-8
0.228, -3.233e-8
0.227, -3.217e-8
0.226, -3.187e-8
0.225, -3.187e-8
0.224, -3.199e-8
0.223, -3.187e-8
0.222, -3.159e-8
0.221, -3.153e-8
0.220, -3.165e-8
0.219, -3.162e-8
0.218, -3.128e-8
0.217, -3.116e-8
0.216, -3.131e-8
0.215, -3.128e-8
0.214, -3.100e-8
0.213, -3.085e-8
0.212, -3.091e-8
0.211, -3.097e-8
0.210, -3.070e-8
0.209, -3.045e-8
0.208, -3.054e-8
0.207, -3.060e-8
0.206, -3.039e-8
0.205, -3.011e-8
0.204, -3.011e-8
0.203, -3.024e-8
0.202, -3.005e-8
0.201, -2.971e-8
0.200, -2.971e-8
0.199, -2.977e-8
0.198, -2.965e-8
0.197, -2.931e-8
0.196, -2.922e-8
0.195, -2.934e-8
0.194, -2.922e-8
0.193, -2.888e-8
0.192, -2.876e-8
0.191, -2.882e-8
0.190, -2.879e-8
0.189, -2.842e-8
0.188, -2.820e-8
0.187, -2.827e-8
0.186, -2.820e-8
0.185, -2.793e-8
0.184, -2.765e-8
0.183, -2.762e-8
0.182, -2.765e-8
0.181, -2.734e-8
0.180, -2.700e-8
0.179, -2.697e-8
0.178, -2.697e-8
0.177, -2.670e-8
0.176, -2.633e-8
0.175, -2.621e-8
0.174, -2.624e-8
0.173, -2.599e-8
0.172, -2.556e-8
0.171, -2.541e-8
0.170, -2.537e-8
0.169, -2.516e-8
0.168, -2.473e-8
0.167, -2.442e-8
0.166, -2.439e-8
0.165, -2.424e-8
0.164, -2.374e-8
0.163, -2.344e-8
0.162, -2.331e-8
0.161, -2.313e-8
0.160, -2.270e-8
0.159, -2.224e-8
0.158, -2.211e-8
0.157, -2.193e-8
0.156, -2.147e-8
0.155, -2.097e-8
0.154, -2.073e-8
0.153, -2.054e-8
0.152, -2.011e-8
0.151, -1.953e-8
0.150, -1.922e-8
0.149, -1.901e-8
0.148, -1.854e-8
0.147, -1.793e-8
0.146, -1.750e-8
0.145, -1.725e-8
0.144, -1.682e-8
0.143, -1.611e-8
0.142, -1.562e-8
0.141, -1.528e-8
0.140, -1.479e-8
0.139, -1.411e-8
0.138, -1.347e-8
0.137, -1.307e-8
0.136, -1.264e-8
0.135, -1.184e-8
0.134, -1.116e-8
0.133, -1.067e-8
0.132, -1.011e-8
0.131, -9.377e-9
0.130, -8.515e-9
0.129, -7.961e-9
0.128, -7.408e-9
0.127, -6.577e-9
0.126, -5.685e-9
0.125, -5.008e-9
0.124, -4.393e-9
0.123, -3.593e-9
0.122, -2.547e-9
0.121, -1.808e-9
0.120, -1.131e-9
0.119, -2.701e-10
0.118, 7.759e-10
0.117, 1.699e-9
0.116, 2.437e-9
0.115, 3.268e-9
0.114, 4.437e-9
0.113, 5.391e-9
0.112, 6.160e-9
0.111, 7.021e-9
0.110, 8.160e-9
0.109, 9.298e-9
0.108, 1.016e-8
0.107, 1.099e-8
0.106, 1.219e-8
0.105, 1.336e-8
0.104, 1.425e-8
0.103, 1.520e-8
0.102, 1.634e-8
0.101, 1.757e-8
0.100, 1.853e-8
0.099, 1.939e-8
0.098, 2.056e-8
0.097, 2.179e-8
0.096, 2.274e-8
0.095, 2.370e-8
0.094, 2.471e-8
0.093, 2.594e-8
0.092, 2.702e-8
0.091, 2.785e-8
0.090, 2.893e-8
0.089, 3.003e-8
0.088, 3.108e-8
0.087, 3.197e-8
0.086, 3.283e-8
0.085, 3.394e-8
0.084, 3.499e-8
0.083, 3.569e-8
0.082, 3.659e-8
0.081, 3.751e-8
0.080, 3.856e-8
0.079, 3.932e-8
0.078, 3.994e-8
0.077, 4.086e-8
0.076, 4.188e-8
0.075, 4.240e-8
0.074, 4.308e-8
0.073, 4.372e-8
0.072, 4.459e-8
0.071, 4.517e-8
0.070, 4.560e-8
0.069, 4.619e-8
0.068, 4.692e-8
0.067, 4.739e-8
0.066, 4.779e-8
0.065, 4.818e-8
0.064, 4.874e-8
0.063, 4.923e-8
0.062, 4.945e-8
0.061, 4.966e-8
0.060, 5.015e-8
0.059, 5.049e-8
0.058, 5.062e-8
0.057, 5.071e-8
0.056, 5.095e-8
0.055, 5.135e-8
0.054, 5.129e-8
0.053, 5.126e-8
0.052, 5.151e-8
0.051, 5.166e-8
0.050, 5.166e-8
0.049, 5.151e-8
0.048, 5.145e-8
0.047, 5.169e-8
0.046, 5.151e-8
0.045, 5.129e-8
0.044, 5.120e-8
0.043, 5.120e-8
0.042, 5.117e-8
0.041, 5.080e-8
0.040, 5.055e-8
0.039, 5.062e-8
0.038, 5.040e-8
0.037, 5.006e-8
0.036, 4.972e-8
0.035, 4.960e-8
0.034, 4.951e-8
0.033, 4.905e-8
0.032, 4.865e-8
0.031, 4.852e-8
0.030, 4.834e-8
0.029, 4.794e-8
0.028, 4.745e-8
0.027, 4.723e-8
0.026, 4.711e-8
0.025, 4.668e-8
0.024, 4.615e-8
0.023, 4.588e-8
0.022, 4.572e-8
0.021, 4.532e-8
0.020, 4.483e-8
0.019, 4.443e-8
0.018, 4.428e-8
0.017, 4.397e-8
0.016, 4.339e-8
0.015, 4.302e-8
0.014, 4.283e-8
0.013, 4.252e-8
0.012, 4.200e-8
0.011, 4.151e-8
0.010, 4.136e-8
0.009, 4.111e-8
0.008, 4.059e-8
0.007, 4.012e-8
0.006, 3.985e-8
0.005, 3.969e-8
0.004, 3.923e-8
0.003, 3.868e-8
0.002, 3.843e-8
0.001, 3.828e-8
0.000, 3.797e-8
-0.001, 3.739e-8
-0.002, 3.705e-8
-0.003, 3.696e-8
-0.004, 3.659e-8
-0.005, 3.606e-8
-0.006, 3.573e-8
-0.007, 3.560e-8
-0.008, 3.533e-8
-0.009, 3.483e-8
-0.010, 3.443e-8
-0.011, 3.434e-8
-0.012, 3.413e-8
-0.013, 3.363e-8
-0.014, 3.323e-8
-0.015, 3.314e-8
-0.016, 3.296e-8
-0.017, 3.253e-8
-0.018, 3.206e-8
-0.019, 3.194e-8
-0.020, 3.185e-8
-0.021, 3.145e-8
-0.022, 3.102e-8
-0.023, 3.083e-8
-0.024, 3.077e-8
-0.025, 3.046e-8
-0.026, 3.000e-8
-0.027, 2.979e-8
-0.028, 2.979e-8
-0.029, 2.948e-8
-0.030, 2.908e-8
-0.031, 2.880e-8
-0.032, 2.880e-8
-0.033, 2.862e-8
-0.034, 2.819e-8
-0.035, 2.791e-8
-0.036, 2.791e-8
-0.037, 2.776e-8
-0.038, 2.739e-8
-0.039, 2.702e-8
-0.040, 2.702e-8
-0.041, 2.696e-8
-0.042, 2.659e-8
-0.043, 2.625e-8
-0.044, 2.619e-8
-0.045, 2.619e-8
-0.046, 2.588e-8
-0.047, 2.551e-8
-0.048, 2.539e-8
-0.049, 2.545e-8
-0.050, 2.520e-8
-0.051, 2.480e-8
-0.052, 2.468e-8
-0.053, 2.474e-8
-0.054, 2.453e-8
-0.055, 2.419e-8
-0.056, 2.400e-8
-0.057, 2.407e-8
-0.058, 2.391e-8
-0.059, 2.357e-8
-0.060, 2.339e-8
-0.061, 2.339e-8
-0.062, 2.336e-8
-0.063, 2.302e-8
-0.064, 2.274e-8
-0.065, 2.283e-8
-0.066, 2.277e-8
-0.067, 2.250e-8
-0.068, 2.222e-8
-0.069, 2.219e-8
-0.070, 2.228e-8
-0.071, 2.200e-8
-0.072, 2.170e-8
-0.073, 2.167e-8
-0.074, 2.173e-8
-0.075, 2.154e-8
-0.076, 2.123e-8
-0.077, 2.114e-8
-0.078, 2.127e-8
-0.079, 2.111e-8
-0.080, 2.080e-8
-0.081, 2.068e-8
-0.082, 2.077e-8
-0.083, 2.068e-8
-0.084, 2.037e-8
-0.085, 2.022e-8
-0.086, 2.031e-8
-0.087, 2.031e-8
-0.088, 2.000e-8
-0.089, 1.982e-8
-0.090, 1.988e-8
-0.091, 1.988e-8
-0.092, 1.967e-8
-0.093, 1.939e-8
-0.094, 1.945e-8
-0.095, 1.957e-8
-0.096, 1.930e-8
-0.097, 1.905e-8
-0.098, 1.905e-8
-0.099, 1.917e-8
-0.100, 1.905e-8
-0.101, 1.871e-8
-0.102, 1.868e-8
-0.103, 1.884e-8
-0.104, 1.868e-8
-0.105, 1.844e-8
-0.106, 1.834e-8
-0.107, 1.847e-8
-0.108, 1.844e-8
-0.109, 1.813e-8
-0.110, 1.800e-8
-0.111, 1.813e-8
-0.112, 1.813e-8
-0.113, 1.788e-8
-0.114, 1.767e-8
-0.115, 1.782e-8
-0.116, 1.788e-8
-0.117, 1.764e-8
-0.118, 1.742e-8
-0.119, 1.748e-8
-0.120, 1.760e-8
-0.121, 1.742e-8
-0.122, 1.714e-8
-0.123, 1.720e-8
-0.124, 1.733e-8
-0.125, 1.720e-8
-0.126, 1.693e-8
-0.127, 1.693e-8
-0.128, 1.708e-8
-0.129, 1.699e-8
-0.130, 1.671e-8
-0.131, 1.665e-8
-0.132, 1.684e-8
-0.133, 1.677e-8
-0.134, 1.650e-8
-0.135, 1.640e-8
-0.136, 1.656e-8
-0.137, 1.659e-8
-0.138, 1.634e-8
-0.139, 1.616e-8
-0.140, 1.631e-8
-0.141, 1.637e-8
-0.142, 1.616e-8
-0.143, 1.597e-8
-0.144, 1.604e-8
-0.145, 1.619e-8
-0.146, 1.600e-8
-0.147, 1.576e-8
-0.148, 1.585e-8
-0.149, 1.597e-8
-0.150, 1.585e-8
-0.151, 1.560e-8
-0.152, 1.564e-8
-0.153, 1.582e-8
-0.154, 1.570e-8
-0.155, 1.545e-8
-0.156, 1.542e-8
-0.157, 1.557e-8
-0.158, 1.557e-8
-0.159, 1.533e-8
-0.160, 1.524e-8
-0.161, 1.542e-8
-0.162, 1.545e-8
-0.163, 1.520e-8
-0.164, 1.505e-8
-0.165, 1.520e-8
-0.166, 1.530e-8
-0.167, 1.511e-8
-0.168, 1.490e-8
-0.169, 1.502e-8
-0.170, 1.514e-8
-0.171, 1.499e-8
-0.172, 1.480e-8
-0.173, 1.484e-8
-0.174, 1.502e-8
-0.175, 1.490e-8
-0.176, 1.465e-8
-0.177, 1.471e-8
-0.178, 1.490e-8
-0.179, 1.480e-8
-0.180, 1.459e-8
-0.181, 1.453e-8
-0.182, 1.474e-8
-0.183, 1.474e-8
-0.184, 1.447e-8
-0.185, 1.444e-8
-0.186, 1.459e-8
-0.187, 1.465e-8
-0.188, 1.444e-8
-0.189, 1.428e-8
-0.190, 1.447e-8
-0.191, 1.456e-8
-0.192, 1.437e-8
-0.193, 1.419e-8
-0.194, 1.431e-8
-0.195, 1.444e-8
-0.196, 1.431e-8
-0.197, 1.410e-8
-0.198, 1.416e-8
-0.199, 1.437e-8
