Mar. 16, 2023   09:47:05
Cyclic Voltammetry
File: c:/users/oliverrz/desktop/electrolab/data/2023_03_16\fcmeoh_macros_750_um\electrode4_cv_100mvs_750_um.bin
Data Source:  Experiment
Instrument Model:  CHI760E
Header: CV
Note: 

Init E (V) = -0.2
High E (V) = 0.3
Low E (V) = -0.2
Final E (V) = -0.2
Init P/N = P
Scan Rate (V/s) = 0.1
Segment = 3
Sample Interval (V) = 0.001
Quiet Time (sec) = 2
Sensitivity (A/V) = 1e-7

Results:

Channel 1:
Segment 1:
Ep = 0.105V
ip = -4.707e-8A
Ah = -2.907e-8C

Segment 2:
Ep = 0.041V
ip = 4.658e-8A
Ah = 2.894e-8C

Segment 3:

Potential/V, Current/A

-0.200, 1.023e-8
-0.199, 9.448e-9
-0.198, 9.164e-9
-0.197, 8.937e-9
-0.196, 8.859e-9
-0.195, 8.658e-9
-0.194, 8.565e-9
-0.193, 8.440e-9
-0.192, 8.271e-9
-0.191, 8.227e-9
-0.190, 8.048e-9
-0.189, 7.979e-9
-0.188, 7.866e-9
-0.187, 7.715e-9
-0.186, 7.684e-9
-0.185, 7.506e-9
-0.184, 7.448e-9
-0.183, 7.353e-9
-0.182, 7.207e-9
-0.181, 7.180e-9
-0.180, 7.008e-9
-0.179, 6.956e-9
-0.178, 6.870e-9
-0.177, 6.726e-9
-0.176, 6.715e-9
-0.175, 6.555e-9
-0.174, 6.509e-9
-0.173, 6.429e-9
-0.172, 6.289e-9
-0.171, 6.286e-9
-0.170, 6.131e-9
-0.169, 6.082e-9
-0.168, 6.012e-9
-0.167, 5.878e-9
-0.166, 5.874e-9
-0.165, 5.732e-9
-0.164, 5.684e-9
-0.163, 5.624e-9
-0.162, 5.495e-9
-0.161, 5.491e-9
-0.160, 5.359e-9
-0.159, 5.318e-9
-0.158, 5.255e-9
-0.157, 5.135e-9
-0.156, 5.134e-9
-0.155, 5.002e-9
-0.154, 4.968e-9
-0.153, 4.906e-9
-0.152, 4.795e-9
-0.151, 4.800e-9
-0.150, 4.671e-9
-0.149, 4.645e-9
-0.148, 4.580e-9
-0.147, 4.479e-9
-0.146, 4.486e-9
-0.145, 4.357e-9
-0.144, 4.341e-9
-0.143, 4.284e-9
-0.142, 4.173e-9
-0.141, 4.189e-9
-0.140, 4.060e-9
-0.139, 4.047e-9
-0.138, 3.999e-9
-0.137, 3.886e-9
-0.136, 3.914e-9
-0.135, 3.788e-9
-0.134, 3.770e-9
-0.133, 3.726e-9
-0.132, 3.618e-9
-0.131, 3.647e-9
-0.130, 3.526e-9
-0.129, 3.513e-9
-0.128, 3.464e-9
-0.127, 3.364e-9
-0.126, 3.389e-9
-0.125, 3.277e-9
-0.124, 3.259e-9
-0.123, 3.222e-9
-0.122, 3.124e-9
-0.121, 3.149e-9
-0.120, 3.039e-9
-0.119, 3.025e-9
-0.118, 2.988e-9
-0.117, 2.894e-9
-0.116, 2.918e-9
-0.115, 2.806e-9
-0.114, 2.802e-9
-0.113, 2.762e-9
-0.112, 2.672e-9
-0.111, 2.699e-9
-0.110, 2.592e-9
-0.109, 2.588e-9
-0.108, 2.548e-9
-0.107, 2.462e-9
-0.106, 2.492e-9
-0.105, 2.375e-9
-0.104, 2.382e-9
-0.103, 2.339e-9
-0.102, 2.246e-9
-0.101, 2.287e-9
-0.100, 2.172e-9
-0.099, 2.180e-9
-0.098, 2.139e-9
-0.097, 2.046e-9
-0.096, 2.087e-9
-0.095, 1.976e-9
-0.094, 1.975e-9
-0.093, 1.945e-9
-0.092, 1.851e-9
-0.091, 1.893e-9
-0.090, 1.781e-9
-0.089, 1.775e-9
-0.088, 1.748e-9
-0.087, 1.657e-9
-0.086, 1.692e-9
-0.085, 1.588e-9
-0.084, 1.579e-9
-0.083, 1.554e-9
-0.082, 1.462e-9
-0.081, 1.496e-9
-0.080, 1.388e-9
-0.079, 1.386e-9
-0.078, 1.354e-9
-0.077, 1.258e-9
-0.076, 1.290e-9
-0.075, 1.191e-9
-0.074, 1.184e-9
-0.073, 1.146e-9
-0.072, 1.062e-9
-0.071, 1.090e-9
-0.070, 9.791e-10
-0.069, 9.787e-10
-0.068, 9.375e-10
-0.067, 8.495e-10
-0.066, 8.791e-10
-0.065, 7.576e-10
-0.064, 7.545e-10
-0.063, 7.163e-10
-0.062, 6.154e-10
-0.061, 6.527e-10
-0.060, 5.232e-10
-0.059, 5.226e-10
-0.058, 4.761e-10
-0.057, 3.742e-10
-0.056, 4.031e-10
-0.055, 2.789e-10
-0.054, 2.652e-10
-0.053, 2.232e-10
-0.052, 1.110e-10
-0.051, 1.335e-10
-0.050, 8.978e-12
-0.049, -1.051e-11
-0.048, -5.570e-11
-0.047, -1.728e-10
-0.046, -1.548e-10
-0.045, -2.815e-10
-0.044, -3.173e-10
-0.043, -3.649e-10
-0.042, -4.855e-10
-0.041, -4.817e-10
-0.040, -6.148e-10
-0.039, -6.567e-10
-0.038, -7.219e-10
-0.037, -8.457e-10
-0.036, -8.543e-10
-0.035, -9.948e-10
-0.034, -1.039e-9
-0.033, -1.116e-9
-0.032, -1.244e-9
-0.031, -1.268e-9
-0.030, -1.422e-9
-0.029, -1.473e-9
-0.028, -1.571e-9
-0.027, -1.715e-9
-0.026, -1.750e-9
-0.025, -1.923e-9
-0.024, -1.989e-9
-0.023, -2.099e-9
-0.022, -2.261e-9
-0.021, -2.300e-9
-0.020, -2.494e-9
-0.019, -2.575e-9
-0.018, -2.700e-9
-0.017, -2.885e-9
-0.016, -2.946e-9
-0.015, -3.159e-9
-0.014, -3.269e-9
-0.013, -3.412e-9
-0.012, -3.614e-9
-0.011, -3.692e-9
-0.010, -3.922e-9
-0.009, -4.064e-9
-0.008, -4.225e-9
-0.007, -4.463e-9
-0.006, -4.575e-9
-0.005, -4.832e-9
-0.004, -5.003e-9
-0.003, -5.188e-9
-0.002, -5.453e-9
-0.001, -5.600e-9
-0.000, -5.962e-9
0.001, -6.138e-9
0.002, -6.354e-9
0.003, -6.642e-9
0.004, -6.824e-9
0.005, -7.144e-9
0.006, -7.383e-9
0.007, -7.660e-9
0.008, -7.990e-9
0.009, -8.217e-9
0.010, -8.584e-9
0.011, -8.862e-9
0.012, -9.182e-9
0.013, -9.551e-9
0.014, -9.823e-9
0.015, -1.025e-8
0.016, -1.056e-8
0.017, -1.093e-8
0.018, -1.135e-8
0.019, -1.166e-8
0.020, -1.214e-8
0.021, -1.251e-8
0.022, -1.293e-8
0.023, -1.340e-8
0.024, -1.377e-8
0.025, -1.430e-8
0.026, -1.473e-8
0.027, -1.520e-8
0.028, -1.575e-8
0.029, -1.615e-8
0.030, -1.673e-8
0.031, -1.723e-8
0.032, -1.773e-8
0.033, -1.832e-8
0.034, -1.880e-8
0.035, -1.940e-8
0.036, -1.996e-8
0.037, -2.052e-8
0.038, -2.117e-8
0.039, -2.171e-8
0.040, -2.235e-8
0.041, -2.297e-8
0.042, -2.356e-8
0.043, -2.425e-8
0.044, -2.485e-8
0.045, -2.552e-8
0.046, -2.617e-8
0.047, -2.683e-8
0.048, -2.752e-8
0.049, -2.814e-8
0.050, -2.886e-8
0.051, -2.953e-8
0.052, -3.022e-8
0.053, -3.093e-8
0.054, -3.157e-8
0.055, -3.231e-8
0.056, -3.296e-8
0.057, -3.366e-8
0.058, -3.438e-8
0.059, -3.500e-8
0.060, -3.576e-8
0.061, -3.637e-8
0.062, -3.705e-8
0.063, -3.778e-8
0.064, -3.838e-8
0.065, -3.909e-8
0.066, -3.970e-8
0.067, -4.034e-8
0.068, -4.102e-8
0.069, -4.156e-8
0.070, -4.222e-8
0.071, -4.280e-8
0.072, -4.337e-8
0.073, -4.399e-8
0.074, -4.447e-8
0.075, -4.506e-8
0.076, -4.557e-8
0.077, -4.607e-8
0.078, -4.662e-8
0.079, -4.704e-8
0.080, -4.754e-8
0.081, -4.797e-8
0.082, -4.836e-8
0.083, -4.881e-8
0.084, -4.915e-8
0.085, -4.954e-8
0.086, -4.988e-8
0.087, -5.020e-8
0.088, -5.054e-8
0.089, -5.078e-8
0.090, -5.109e-8
0.091, -5.132e-8
0.092, -5.156e-8
0.093, -5.179e-8
0.094, -5.194e-8
0.095, -5.216e-8
0.096, -5.227e-8
0.097, -5.242e-8
0.098, -5.258e-8
0.099, -5.262e-8
0.100, -5.278e-8
0.101, -5.280e-8
0.102, -5.287e-8
0.103, -5.298e-8
0.104, -5.291e-8
0.105, -5.299e-8
0.106, -5.294e-8
0.107, -5.292e-8
0.108, -5.294e-8
0.109, -5.281e-8
0.110, -5.282e-8
0.111, -5.272e-8
0.112, -5.262e-8
0.113, -5.260e-8
0.114, -5.241e-8
0.115, -5.237e-8
0.116, -5.224e-8
0.117, -5.208e-8
0.118, -5.200e-8
0.119, -5.179e-8
0.120, -5.169e-8
0.121, -5.150e-8
0.122, -5.132e-8
0.123, -5.121e-8
0.124, -5.097e-8
0.125, -5.084e-8
0.126, -5.063e-8
0.127, -5.043e-8
0.128, -5.029e-8
0.129, -5.002e-8
0.130, -4.988e-8
0.131, -4.965e-8
0.132, -4.945e-8
0.133, -4.927e-8
0.134, -4.900e-8
0.135, -4.886e-8
0.136, -4.860e-8
0.137, -4.839e-8
0.138, -4.822e-8
0.139, -4.794e-8
0.140, -4.779e-8
0.141, -4.754e-8
0.142, -4.732e-8
0.143, -4.716e-8
0.144, -4.686e-8
0.145, -4.672e-8
0.146, -4.646e-8
0.147, -4.624e-8
0.148, -4.608e-8
0.149, -4.579e-8
0.150, -4.565e-8
0.151, -4.541e-8
0.152, -4.519e-8
0.153, -4.505e-8
0.154, -4.477e-8
0.155, -4.464e-8
0.156, -4.441e-8
0.157, -4.420e-8
0.158, -4.406e-8
0.159, -4.379e-8
0.160, -4.366e-8
0.161, -4.343e-8
0.162, -4.324e-8
0.163, -4.310e-8
0.164, -4.285e-8
0.165, -4.273e-8
0.166, -4.252e-8
0.167, -4.234e-8
0.168, -4.220e-8
0.169, -4.196e-8
0.170, -4.186e-8
0.171, -4.165e-8
0.172, -4.148e-8
0.173, -4.136e-8
0.174, -4.112e-8
0.175, -4.103e-8
0.176, -4.083e-8
0.177, -4.067e-8
0.178, -4.057e-8
0.179, -4.034e-8
0.180, -4.027e-8
0.181, -4.008e-8
0.182, -3.993e-8
0.183, -3.984e-8
0.184, -3.961e-8
0.185, -3.955e-8
0.186, -3.937e-8
0.187, -3.923e-8
0.188, -3.915e-8
0.189, -3.894e-8
0.190, -3.888e-8
0.191, -3.871e-8
0.192, -3.857e-8
0.193, -3.850e-8
0.194, -3.831e-8
0.195, -3.825e-8
0.196, -3.810e-8
0.197, -3.797e-8
0.198, -3.790e-8
0.199, -3.772e-8
0.200, -3.767e-8
0.201, -3.753e-8
0.202, -3.741e-8
0.203, -3.736e-8
0.204, -3.718e-8
0.205, -3.715e-8
0.206, -3.701e-8
0.207, -3.690e-8
0.208, -3.685e-8
0.209, -3.669e-8
0.210, -3.666e-8
0.211, -3.652e-8
0.212, -3.643e-8
0.213, -3.639e-8
0.214, -3.623e-8
0.215, -3.621e-8
0.216, -3.608e-8
0.217, -3.599e-8
0.218, -3.596e-8
0.219, -3.580e-8
0.220, -3.579e-8
0.221, -3.566e-8
0.222, -3.557e-8
0.223, -3.555e-8
0.224, -3.539e-8
0.225, -3.539e-8
0.226, -3.528e-8
0.227, -3.519e-8
0.228, -3.519e-8
0.229, -3.503e-8
0.230, -3.503e-8
0.231, -3.494e-8
0.232, -3.486e-8
0.233, -3.485e-8
0.234, -3.470e-8
0.235, -3.471e-8
0.236, -3.461e-8
0.237, -3.454e-8
0.238, -3.453e-8
0.239, -3.439e-8
0.240, -3.440e-8
0.241, -3.431e-8
0.242, -3.425e-8
0.243, -3.424e-8
0.244, -3.412e-8
0.245, -3.412e-8
0.246, -3.404e-8
0.247, -3.398e-8
0.248, -3.397e-8
0.249, -3.385e-8
0.250, -3.387e-8
0.251, -3.379e-8
0.252, -3.374e-8
0.253, -3.374e-8
0.254, -3.362e-8
0.255, -3.365e-8
0.256, -3.357e-8
0.257, -3.352e-8
0.258, -3.353e-8
0.259, -3.341e-8
0.260, -3.344e-8
0.261, -3.336e-8
0.262, -3.332e-8
0.263, -3.334e-8
0.264, -3.322e-8
0.265, -3.326e-8
0.266, -3.318e-8
0.267, -3.314e-8
0.268, -3.317e-8
0.269, -3.306e-8
0.270, -3.309e-8
0.271, -3.303e-8
0.272, -3.299e-8
0.273, -3.301e-8
0.274, -3.291e-8
0.275, -3.295e-8
0.276, -3.290e-8
0.277, -3.285e-8
0.278, -3.288e-8
0.279, -3.279e-8
0.280, -3.283e-8
0.281, -3.278e-8
0.282, -3.275e-8
0.283, -3.278e-8
0.284, -3.269e-8
0.285, -3.273e-8
0.286, -3.268e-8
0.287, -3.265e-8
0.288, -3.268e-8
0.289, -3.260e-8
0.290, -3.265e-8
0.291, -3.260e-8
0.292, -3.258e-8
0.293, -3.262e-8
0.294, -3.254e-8
0.295, -3.259e-8
0.296, -3.254e-8
0.297, -3.253e-8
0.298, -3.257e-8
0.299, -3.249e-8
0.300, -3.161e-8
0.299, -2.991e-8
0.298, -2.938e-8
0.297, -2.916e-8
0.296, -2.890e-8
0.295, -2.879e-8
0.294, -2.861e-8
0.293, -2.846e-8
0.292, -2.838e-8
0.291, -2.819e-8
0.290, -2.814e-8
0.289, -2.800e-8
0.288, -2.789e-8
0.287, -2.784e-8
0.286, -2.767e-8
0.285, -2.765e-8
0.284, -2.752e-8
0.283, -2.743e-8
0.282, -2.739e-8
0.281, -2.724e-8
0.280, -2.723e-8
0.279, -2.711e-8
0.278, -2.704e-8
0.277, -2.702e-8
0.276, -2.687e-8
0.275, -2.687e-8
0.274, -2.676e-8
0.273, -2.669e-8
0.272, -2.668e-8
0.271, -2.653e-8
0.270, -2.655e-8
0.269, -2.644e-8
0.268, -2.637e-8
0.267, -2.637e-8
0.266, -2.623e-8
0.265, -2.624e-8
0.264, -2.615e-8
0.263, -2.608e-8
0.262, -2.609e-8
0.261, -2.595e-8
0.260, -2.597e-8
0.259, -2.588e-8
0.258, -2.582e-8
0.257, -2.582e-8
0.256, -2.569e-8
0.255, -2.570e-8
0.254, -2.562e-8
0.253, -2.557e-8
0.252, -2.557e-8
0.251, -2.545e-8
0.250, -2.547e-8
0.249, -2.539e-8
0.248, -2.533e-8
0.247, -2.533e-8
0.246, -2.522e-8
0.245, -2.524e-8
0.244, -2.515e-8
0.243, -2.510e-8
0.242, -2.510e-8
0.241, -2.499e-8
0.240, -2.501e-8
0.239, -2.493e-8
0.238, -2.488e-8
0.237, -2.488e-8
0.236, -2.475e-8
0.235, -2.478e-8
0.234, -2.470e-8
0.233, -2.465e-8
0.232, -2.466e-8
0.231, -2.453e-8
0.230, -2.456e-8
0.229, -2.448e-8
0.228, -2.442e-8
0.227, -2.444e-8
0.226, -2.431e-8
0.225, -2.433e-8
0.224, -2.425e-8
0.223, -2.420e-8
0.222, -2.421e-8
0.221, -2.409e-8
0.220, -2.411e-8
0.219, -2.403e-8
0.218, -2.397e-8
0.217, -2.398e-8
0.216, -2.386e-8
0.215, -2.388e-8
0.214, -2.380e-8
0.213, -2.374e-8
0.212, -2.374e-8
0.211, -2.362e-8
0.210, -2.363e-8
0.209, -2.355e-8
0.208, -2.349e-8
0.207, -2.348e-8
0.206, -2.336e-8
0.205, -2.337e-8
0.204, -2.328e-8
0.203, -2.323e-8
0.202, -2.322e-8
0.201, -2.309e-8
0.200, -2.310e-8
0.199, -2.300e-8
0.198, -2.294e-8
0.197, -2.292e-8
0.196, -2.278e-8
0.195, -2.279e-8
0.194, -2.269e-8
0.193, -2.262e-8
0.192, -2.260e-8
0.191, -2.246e-8
0.190, -2.247e-8
0.189, -2.236e-8
0.188, -2.227e-8
0.187, -2.226e-8
0.186, -2.210e-8
0.185, -2.209e-8
0.184, -2.198e-8
0.183, -2.188e-8
0.182, -2.186e-8
0.181, -2.170e-8
0.180, -2.167e-8
0.179, -2.154e-8
0.178, -2.144e-8
0.177, -2.140e-8
0.176, -2.124e-8
0.175, -2.120e-8
0.174, -2.107e-8
0.173, -2.095e-8
0.172, -2.089e-8
0.171, -2.071e-8
0.170, -2.066e-8
0.169, -2.052e-8
0.168, -2.038e-8
0.167, -2.031e-8
0.166, -2.011e-8
0.165, -2.005e-8
0.164, -1.987e-8
0.163, -1.973e-8
0.162, -1.963e-8
0.161, -1.941e-8
0.160, -1.933e-8
0.159, -1.913e-8
0.158, -1.897e-8
0.157, -1.885e-8
0.156, -1.860e-8
0.155, -1.849e-8
0.154, -1.826e-8
0.153, -1.807e-8
0.152, -1.793e-8
0.151, -1.765e-8
0.150, -1.751e-8
0.149, -1.726e-8
0.148, -1.703e-8
0.147, -1.687e-8
0.146, -1.656e-8
0.145, -1.639e-8
0.144, -1.610e-8
0.143, -1.583e-8
0.142, -1.563e-8
0.141, -1.528e-8
0.140, -1.505e-8
0.139, -1.474e-8
0.138, -1.443e-8
0.137, -1.418e-8
0.136, -1.380e-8
0.135, -1.353e-8
0.134, -1.318e-8
0.133, -1.283e-8
0.132, -1.253e-8
0.131, -1.211e-8
0.130, -1.179e-8
0.129, -1.139e-8
0.128, -1.099e-8
0.127, -1.063e-8
0.126, -1.017e-8
0.125, -9.798e-9
0.124, -9.337e-9
0.123, -8.902e-9
0.122, -8.493e-9
0.121, -7.964e-9
0.120, -7.555e-9
0.119, -7.025e-9
0.118, -6.537e-9
0.117, -6.072e-9
0.116, -5.486e-9
0.115, -5.024e-9
0.114, -4.445e-9
0.113, -3.900e-9
0.112, -3.401e-9
0.111, -2.752e-9
0.110, -2.249e-9
0.109, -1.630e-9
0.108, -1.027e-9
0.107, -4.775e-10
0.106, 2.122e-10
0.105, 7.768e-10
0.104, 1.447e-9
0.103, 2.114e-9
0.102, 2.721e-9
0.101, 3.434e-9
0.100, 4.039e-9
0.099, 4.705e-9
0.098, 5.407e-9
0.097, 6.013e-9
0.096, 6.751e-9
0.095, 7.397e-9
0.094, 8.088e-9
0.093, 8.804e-9
0.092, 9.446e-9
0.091, 1.018e-8
0.090, 1.083e-8
0.089, 1.154e-8
0.088, 1.223e-8
0.087, 1.287e-8
0.086, 1.358e-8
0.085, 1.423e-8
0.084, 1.492e-8
0.083, 1.558e-8
0.082, 1.620e-8
0.081, 1.691e-8
0.080, 1.751e-8
0.079, 1.817e-8
0.078, 1.879e-8
0.077, 1.937e-8
0.076, 2.005e-8
0.075, 2.055e-8
0.074, 2.116e-8
0.073, 2.173e-8
0.072, 2.222e-8
0.071, 2.283e-8
0.070, 2.326e-8
0.069, 2.380e-8
0.068, 2.431e-8
0.067, 2.471e-8
0.066, 2.524e-8
0.065, 2.561e-8
0.064, 2.606e-8
0.063, 2.648e-8
0.062, 2.678e-8
0.061, 2.722e-8
0.060, 2.750e-8
0.059, 2.784e-8
0.058, 2.815e-8
0.057, 2.838e-8
0.056, 2.871e-8
0.055, 2.892e-8
0.054, 2.914e-8
0.053, 2.939e-8
0.052, 2.954e-8
0.051, 2.978e-8
0.050, 2.990e-8
0.049, 3.005e-8
0.048, 3.017e-8
0.047, 3.024e-8
0.046, 3.037e-8
0.045, 3.040e-8
0.044, 3.049e-8
0.043, 3.053e-8
0.042, 3.053e-8
0.041, 3.060e-8
0.040, 3.054e-8
0.039, 3.058e-8
0.038, 3.055e-8
0.037, 3.047e-8
0.036, 3.050e-8
0.035, 3.036e-8
0.034, 3.034e-8
0.033, 3.027e-8
0.032, 3.012e-8
0.031, 3.011e-8
0.030, 2.994e-8
0.029, 2.986e-8
0.028, 2.976e-8
0.027, 2.957e-8
0.026, 2.951e-8
0.025, 2.932e-8
0.024, 2.919e-8
0.023, 2.906e-8
0.022, 2.884e-8
0.021, 2.876e-8
0.020, 2.854e-8
0.019, 2.839e-8
0.018, 2.823e-8
0.017, 2.801e-8
0.016, 2.790e-8
0.015, 2.767e-8
0.014, 2.751e-8
0.013, 2.735e-8
0.012, 2.712e-8
0.011, 2.699e-8
0.010, 2.675e-8
0.009, 2.658e-8
0.008, 2.641e-8
0.007, 2.618e-8
0.006, 2.605e-8
0.005, 2.581e-8
0.004, 2.565e-8
0.003, 2.547e-8
0.002, 2.523e-8
0.001, 2.512e-8
0.000, 2.493e-8
-0.001, 2.477e-8
-0.002, 2.457e-8
-0.003, 2.432e-8
-0.004, 2.421e-8
-0.005, 2.396e-8
-0.006, 2.382e-8
-0.007, 2.365e-8
-0.008, 2.342e-8
-0.009, 2.332e-8
-0.010, 2.308e-8
-0.011, 2.294e-8
-0.012, 2.279e-8
-0.013, 2.257e-8
-0.014, 2.248e-8
-0.015, 2.226e-8
-0.016, 2.212e-8
-0.017, 2.199e-8
-0.018, 2.177e-8
-0.019, 2.169e-8
-0.020, 2.148e-8
-0.021, 2.136e-8
-0.022, 2.123e-8
-0.023, 2.103e-8
-0.024, 2.095e-8
-0.025, 2.076e-8
-0.026, 2.065e-8
-0.027, 2.052e-8
-0.028, 2.034e-8
-0.029, 2.027e-8
-0.030, 2.008e-8
-0.031, 1.999e-8
-0.032, 1.987e-8
-0.033, 1.970e-8
-0.034, 1.965e-8
-0.035, 1.947e-8
-0.036, 1.939e-8
-0.037, 1.928e-8
-0.038, 1.912e-8
-0.039, 1.908e-8
-0.040, 1.890e-8
-0.041, 1.883e-8
-0.042, 1.874e-8
-0.043, 1.858e-8
-0.044, 1.856e-8
-0.045, 1.839e-8
-0.046, 1.833e-8
-0.047, 1.825e-8
-0.048, 1.810e-8
-0.049, 1.809e-8
-0.050, 1.793e-8
-0.051, 1.788e-8
-0.052, 1.781e-8
-0.053, 1.766e-8
-0.054, 1.766e-8
-0.055, 1.751e-8
-0.056, 1.746e-8
-0.057, 1.741e-8
-0.058, 1.727e-8
-0.059, 1.727e-8
-0.060, 1.713e-8
-0.061, 1.710e-8
-0.062, 1.704e-8
-0.063, 1.692e-8
-0.064, 1.693e-8
-0.065, 1.680e-8
-0.066, 1.677e-8
-0.067, 1.672e-8
-0.068, 1.661e-8
-0.069, 1.662e-8
-0.070, 1.650e-8
-0.071, 1.648e-8
-0.072, 1.644e-8
-0.073, 1.633e-8
-0.074, 1.635e-8
-0.075, 1.624e-8
-0.076, 1.622e-8
-0.077, 1.619e-8
-0.078, 1.609e-8
-0.079, 1.612e-8
-0.080, 1.601e-8
-0.081, 1.601e-8
-0.082, 1.598e-8
-0.083, 1.588e-8
-0.084, 1.593e-8
-0.085, 1.582e-8
-0.086, 1.582e-8
-0.087, 1.580e-8
-0.088, 1.571e-8
-0.089, 1.576e-8
-0.090, 1.566e-8
-0.091, 1.566e-8
-0.092, 1.565e-8
-0.093, 1.557e-8
-0.094, 1.562e-8
-0.095, 1.553e-8
-0.096, 1.554e-8
-0.097, 1.553e-8
-0.098, 1.546e-8
-0.099, 1.551e-8
-0.100, 1.543e-8
-0.101, 1.544e-8
-0.102, 1.545e-8
-0.103, 1.538e-8
-0.104, 1.544e-8
-0.105, 1.536e-8
-0.106, 1.538e-8
-0.107, 1.539e-8
-0.108, 1.532e-8
-0.109, 1.538e-8
-0.110, 1.532e-8
-0.111, 1.534e-8
-0.112, 1.535e-8
-0.113, 1.530e-8
-0.114, 1.536e-8
-0.115, 1.530e-8
-0.116, 1.533e-8
-0.117, 1.534e-8
-0.118, 1.529e-8
-0.119, 1.537e-8
-0.120, 1.531e-8
-0.121, 1.535e-8
-0.122, 1.536e-8
-0.123, 1.531e-8
-0.124, 1.540e-8
-0.125, 1.534e-8
-0.126, 1.539e-8
-0.127, 1.541e-8
-0.128, 1.537e-8
-0.129, 1.546e-8
-0.130, 1.541e-8
-0.131, 1.545e-8
-0.132, 1.549e-8
-0.133, 1.544e-8
-0.134, 1.554e-8
-0.135, 1.549e-8
-0.136, 1.554e-8
-0.137, 1.559e-8
-0.138, 1.555e-8
-0.139, 1.565e-8
-0.140, 1.561e-8
-0.141, 1.566e-8
-0.142, 1.571e-8
-0.143, 1.568e-8
-0.144, 1.578e-8
-0.145, 1.575e-8
-0.146, 1.581e-8
-0.147, 1.585e-8
-0.148, 1.584e-8
-0.149, 1.594e-8
-0.150, 1.591e-8
-0.151, 1.599e-8
-0.152, 1.604e-8
-0.153, 1.602e-8
-0.154, 1.614e-8
-0.155, 1.612e-8
-0.156, 1.619e-8
-0.157, 1.624e-8
-0.158, 1.623e-8
-0.159, 1.636e-8
-0.160, 1.634e-8
-0.161, 1.642e-8
-0.162, 1.648e-8
-0.163, 1.648e-8
-0.164, 1.661e-8
-0.165, 1.659e-8
-0.166, 1.668e-8
-0.167, 1.676e-8
-0.168, 1.675e-8
-0.169, 1.689e-8
-0.170, 1.687e-8
-0.171, 1.697e-8
-0.172, 1.705e-8
-0.173, 1.705e-8
-0.174, 1.719e-8
-0.175, 1.719e-8
-0.176, 1.728e-8
-0.177, 1.737e-8
-0.178, 1.737e-8
-0.179, 1.752e-8
-0.180, 1.754e-8
-0.181, 1.763e-8
-0.182, 1.772e-8
-0.183, 1.774e-8
-0.184, 1.789e-8
-0.185, 1.791e-8
-0.186, 1.801e-8
-0.187, 1.810e-8
-0.188, 1.813e-8
-0.189, 1.828e-8
-0.190, 1.831e-8
-0.191, 1.842e-8
-0.192, 1.852e-8
-0.193, 1.855e-8
-0.194, 1.871e-8
-0.195, 1.874e-8
-0.196, 1.886e-8
-0.197, 1.897e-8
-0.198, 1.901e-8
-0.199, 1.918e-8
