Mar. 16, 2023   09:43:07
Cyclic Voltammetry
File: c:/users/oliverrz/desktop/electrolab/data/2023_03_16\fcmeoh_macros_750_um\electrode1_cv_100mvs_750_um.bin
Data Source:  Experiment
Instrument Model:  CHI760E
Header: CV
Note: 

Init E (V) = -0.2
High E (V) = 0.3
Low E (V) = -0.2
Final E (V) = -0.2
Init P/N = P
Scan Rate (V/s) = 0.1
Segment = 3
Sample Interval (V) = 0.001
Quiet Time (sec) = 2
Sensitivity (A/V) = 1e-7

Results:

Channel 1:
Segment 1:
Ep = 0.120V
ip = -5.007e-8A
Ah = -3.142e-8C

Segment 2:
Ep = 0.056V
ip = 4.579e-8A
Ah = 2.821e-8C

Segment 3:

Potential/V, Current/A

-0.200, 3.482e-9
-0.199, 2.974e-9
-0.198, 2.763e-9
-0.197, 2.714e-9
-0.196, 2.681e-9
-0.195, 2.585e-9
-0.194, 2.611e-9
-0.193, 2.518e-9
-0.192, 2.503e-9
-0.191, 2.492e-9
-0.190, 2.399e-9
-0.189, 2.447e-9
-0.188, 2.353e-9
-0.187, 2.348e-9
-0.186, 2.345e-9
-0.185, 2.256e-9
-0.184, 2.304e-9
-0.183, 2.222e-9
-0.182, 2.215e-9
-0.181, 2.215e-9
-0.180, 2.125e-9
-0.179, 2.176e-9
-0.178, 2.095e-9
-0.177, 2.090e-9
-0.176, 2.096e-9
-0.175, 2.008e-9
-0.174, 2.060e-9
-0.173, 1.985e-9
-0.172, 1.978e-9
-0.171, 1.987e-9
-0.170, 1.902e-9
-0.169, 1.953e-9
-0.168, 1.880e-9
-0.167, 1.875e-9
-0.166, 1.881e-9
-0.165, 1.802e-9
-0.164, 1.851e-9
-0.163, 1.781e-9
-0.162, 1.782e-9
-0.161, 1.785e-9
-0.160, 1.712e-9
-0.159, 1.763e-9
-0.158, 1.691e-9
-0.157, 1.690e-9
-0.156, 1.700e-9
-0.155, 1.622e-9
-0.154, 1.673e-9
-0.153, 1.595e-9
-0.152, 1.601e-9
-0.151, 1.612e-9
-0.150, 1.531e-9
-0.149, 1.592e-9
-0.148, 1.517e-9
-0.147, 1.524e-9
-0.146, 1.533e-9
-0.145, 1.450e-9
-0.144, 1.513e-9
-0.143, 1.438e-9
-0.142, 1.439e-9
-0.141, 1.454e-9
-0.140, 1.375e-9
-0.139, 1.435e-9
-0.138, 1.366e-9
-0.137, 1.364e-9
-0.136, 1.383e-9
-0.135, 1.304e-9
-0.134, 1.363e-9
-0.133, 1.296e-9
-0.132, 1.292e-9
-0.131, 1.312e-9
-0.130, 1.236e-9
-0.129, 1.291e-9
-0.128, 1.226e-9
-0.127, 1.229e-9
-0.126, 1.241e-9
-0.125, 1.171e-9
-0.124, 1.225e-9
-0.123, 1.165e-9
-0.122, 1.165e-9
-0.121, 1.178e-9
-0.120, 1.105e-9
-0.119, 1.162e-9
-0.118, 1.096e-9
-0.117, 1.101e-9
-0.116, 1.112e-9
-0.115, 1.040e-9
-0.114, 1.102e-9
-0.113, 1.029e-9
-0.112, 1.035e-9
-0.111, 1.052e-9
-0.110, 9.757e-10
-0.109, 1.037e-9
-0.108, 9.687e-10
-0.107, 9.780e-10
-0.106, 9.898e-10
-0.105, 9.131e-10
-0.104, 9.777e-10
-0.103, 9.041e-10
-0.102, 9.052e-10
-0.101, 9.264e-10
-0.100, 8.449e-10
-0.099, 9.123e-10
-0.098, 8.463e-10
-0.097, 8.422e-10
-0.096, 8.664e-10
-0.095, 7.834e-10
-0.094, 8.447e-10
-0.093, 7.854e-10
-0.092, 7.771e-10
-0.091, 8.023e-10
-0.090, 7.225e-10
-0.089, 7.760e-10
-0.088, 7.195e-10
-0.087, 7.125e-10
-0.086, 7.341e-10
-0.085, 6.574e-10
-0.084, 7.127e-10
-0.083, 6.516e-10
-0.082, 6.468e-10
-0.081, 6.612e-10
-0.080, 5.841e-10
-0.079, 6.425e-10
-0.078, 5.737e-10
-0.077, 5.718e-10
-0.076, 5.842e-10
-0.075, 5.091e-10
-0.074, 5.637e-10
-0.073, 4.933e-10
-0.072, 4.958e-10
-0.071, 5.073e-10
-0.070, 4.269e-10
-0.069, 4.832e-10
-0.068, 4.125e-10
-0.067, 4.082e-10
-0.066, 4.279e-10
-0.065, 3.390e-10
-0.064, 3.938e-10
-0.063, 3.235e-10
-0.062, 3.161e-10
-0.061, 3.298e-10
-0.060, 2.405e-10
-0.059, 2.966e-10
-0.058, 2.270e-10
-0.057, 2.091e-10
-0.056, 2.269e-10
-0.055, 1.353e-10
-0.054, 1.867e-10
-0.053, 1.132e-10
-0.052, 9.670e-11
-0.051, 1.057e-10
-0.050, 1.193e-11
-0.049, 5.732e-11
-0.048, -1.465e-11
-0.047, -3.552e-11
-0.046, -3.089e-11
-0.045, -1.197e-10
-0.044, -8.445e-11
-0.043, -1.606e-10
-0.042, -1.861e-10
-0.041, -1.861e-10
-0.040, -2.818e-10
-0.039, -2.516e-10
-0.038, -3.364e-10
-0.037, -3.592e-10
-0.036, -3.694e-10
-0.035, -4.724e-10
-0.034, -4.402e-10
-0.033, -5.331e-10
-0.032, -5.666e-10
-0.031, -5.765e-10
-0.030, -6.910e-10
-0.029, -6.668e-10
-0.028, -7.699e-10
-0.027, -8.060e-10
-0.026, -8.293e-10
-0.025, -9.577e-10
-0.024, -9.349e-10
-0.023, -1.040e-9
-0.022, -1.094e-9
-0.021, -1.118e-9
-0.020, -1.253e-9
-0.019, -1.244e-9
-0.018, -1.360e-9
-0.017, -1.432e-9
-0.016, -1.464e-9
-0.015, -1.608e-9
-0.014, -1.620e-9
-0.013, -1.750e-9
-0.012, -1.831e-9
-0.011, -1.877e-9
-0.010, -2.038e-9
-0.009, -2.067e-9
-0.008, -2.204e-9
-0.007, -2.302e-9
-0.006, -2.370e-9
-0.005, -2.542e-9
-0.004, -2.591e-9
-0.003, -2.741e-9
-0.002, -2.863e-9
-0.001, -2.950e-9
-0.000, -3.195e-9
0.001, -3.243e-9
0.002, -3.415e-9
0.003, -3.540e-9
0.004, -3.652e-9
0.005, -3.865e-9
0.006, -3.954e-9
0.007, -4.164e-9
0.008, -4.330e-9
0.009, -4.470e-9
0.010, -4.709e-9
0.011, -4.830e-9
0.012, -5.075e-9
0.013, -5.262e-9
0.014, -5.435e-9
0.015, -5.716e-9
0.016, -5.864e-9
0.017, -6.138e-9
0.018, -6.369e-9
0.019, -6.575e-9
0.020, -6.890e-9
0.021, -7.078e-9
0.022, -7.401e-9
0.023, -7.674e-9
0.024, -7.910e-9
0.025, -8.278e-9
0.026, -8.520e-9
0.027, -8.866e-9
0.028, -9.196e-9
0.029, -9.467e-9
0.030, -9.879e-9
0.031, -1.017e-8
0.032, -1.056e-8
0.033, -1.093e-8
0.034, -1.127e-8
0.035, -1.171e-8
0.036, -1.206e-8
0.037, -1.249e-8
0.038, -1.293e-8
0.039, -1.333e-8
0.040, -1.382e-8
0.041, -1.422e-8
0.042, -1.472e-8
0.043, -1.520e-8
0.044, -1.566e-8
0.045, -1.621e-8
0.046, -1.667e-8
0.047, -1.721e-8
0.048, -1.774e-8
0.049, -1.825e-8
0.050, -1.885e-8
0.051, -1.936e-8
0.052, -1.997e-8
0.053, -2.055e-8
0.054, -2.110e-8
0.055, -2.177e-8
0.056, -2.231e-8
0.057, -2.297e-8
0.058, -2.359e-8
0.059, -2.418e-8
0.060, -2.489e-8
0.061, -2.547e-8
0.062, -2.616e-8
0.063, -2.684e-8
0.064, -2.744e-8
0.065, -2.819e-8
0.066, -2.880e-8
0.067, -2.950e-8
0.068, -3.021e-8
0.069, -3.083e-8
0.070, -3.157e-8
0.071, -3.221e-8
0.072, -3.290e-8
0.073, -3.361e-8
0.074, -3.426e-8
0.075, -3.497e-8
0.076, -3.560e-8
0.077, -3.629e-8
0.078, -3.697e-8
0.079, -3.760e-8
0.080, -3.829e-8
0.081, -3.890e-8
0.082, -3.954e-8
0.083, -4.017e-8
0.084, -4.076e-8
0.085, -4.139e-8
0.086, -4.195e-8
0.087, -4.254e-8
0.088, -4.310e-8
0.089, -4.363e-8
0.090, -4.423e-8
0.091, -4.469e-8
0.092, -4.523e-8
0.093, -4.571e-8
0.094, -4.615e-8
0.095, -4.666e-8
0.096, -4.704e-8
0.097, -4.749e-8
0.098, -4.790e-8
0.099, -4.823e-8
0.100, -4.866e-8
0.101, -4.893e-8
0.102, -4.930e-8
0.103, -4.964e-8
0.104, -4.986e-8
0.105, -5.021e-8
0.106, -5.038e-8
0.107, -5.064e-8
0.108, -5.086e-8
0.109, -5.098e-8
0.110, -5.124e-8
0.111, -5.134e-8
0.112, -5.147e-8
0.113, -5.163e-8
0.114, -5.168e-8
0.115, -5.183e-8
0.116, -5.186e-8
0.117, -5.191e-8
0.118, -5.196e-8
0.119, -5.195e-8
0.120, -5.200e-8
0.121, -5.195e-8
0.122, -5.194e-8
0.123, -5.193e-8
0.124, -5.185e-8
0.125, -5.184e-8
0.126, -5.172e-8
0.127, -5.166e-8
0.128, -5.158e-8
0.129, -5.145e-8
0.130, -5.139e-8
0.131, -5.122e-8
0.132, -5.111e-8
0.133, -5.098e-8
0.134, -5.079e-8
0.135, -5.071e-8
0.136, -5.050e-8
0.137, -5.036e-8
0.138, -5.019e-8
0.139, -4.997e-8
0.140, -4.986e-8
0.141, -4.961e-8
0.142, -4.946e-8
0.143, -4.929e-8
0.144, -4.903e-8
0.145, -4.890e-8
0.146, -4.864e-8
0.147, -4.846e-8
0.148, -4.827e-8
0.149, -4.801e-8
0.150, -4.787e-8
0.151, -4.760e-8
0.152, -4.741e-8
0.153, -4.721e-8
0.154, -4.695e-8
0.155, -4.680e-8
0.156, -4.653e-8
0.157, -4.634e-8
0.158, -4.613e-8
0.159, -4.588e-8
0.160, -4.572e-8
0.161, -4.546e-8
0.162, -4.528e-8
0.163, -4.508e-8
0.164, -4.483e-8
0.165, -4.469e-8
0.166, -4.442e-8
0.167, -4.425e-8
0.168, -4.405e-8
0.169, -4.380e-8
0.170, -4.367e-8
0.171, -4.341e-8
0.172, -4.325e-8
0.173, -4.306e-8
0.174, -4.282e-8
0.175, -4.271e-8
0.176, -4.244e-8
0.177, -4.229e-8
0.178, -4.213e-8
0.179, -4.190e-8
0.180, -4.179e-8
0.181, -4.154e-8
0.182, -4.140e-8
0.183, -4.123e-8
0.184, -4.101e-8
0.185, -4.091e-8
0.186, -4.069e-8
0.187, -4.055e-8
0.188, -4.041e-8
0.189, -4.019e-8
0.190, -4.010e-8
0.191, -3.988e-8
0.192, -3.976e-8
0.193, -3.963e-8
0.194, -3.942e-8
0.195, -3.934e-8
0.196, -3.913e-8
0.197, -3.902e-8
0.198, -3.889e-8
0.199, -3.869e-8
0.200, -3.862e-8
0.201, -3.843e-8
0.202, -3.832e-8
0.203, -3.820e-8
0.204, -3.803e-8
0.205, -3.797e-8
0.206, -3.778e-8
0.207, -3.769e-8
0.208, -3.757e-8
0.209, -3.741e-8
0.210, -3.736e-8
0.211, -3.718e-8
0.212, -3.710e-8
0.213, -3.699e-8
0.214, -3.683e-8
0.215, -3.679e-8
0.216, -3.661e-8
0.217, -3.654e-8
0.218, -3.646e-8
0.219, -3.630e-8
0.220, -3.627e-8
0.221, -3.610e-8
0.222, -3.604e-8
0.223, -3.596e-8
0.224, -3.581e-8
0.225, -3.579e-8
0.226, -3.563e-8
0.227, -3.556e-8
0.228, -3.550e-8
0.229, -3.535e-8
0.230, -3.534e-8
0.231, -3.519e-8
0.232, -3.513e-8
0.233, -3.507e-8
0.234, -3.494e-8
0.235, -3.493e-8
0.236, -3.479e-8
0.237, -3.474e-8
0.238, -3.468e-8
0.239, -3.455e-8
0.240, -3.454e-8
0.241, -3.441e-8
0.242, -3.437e-8
0.243, -3.431e-8
0.244, -3.419e-8
0.245, -3.419e-8
0.246, -3.406e-8
0.247, -3.402e-8
0.248, -3.397e-8
0.249, -3.385e-8
0.250, -3.385e-8
0.251, -3.373e-8
0.252, -3.370e-8
0.253, -3.365e-8
0.254, -3.354e-8
0.255, -3.356e-8
0.256, -3.343e-8
0.257, -3.341e-8
0.258, -3.337e-8
0.259, -3.325e-8
0.260, -3.328e-8
0.261, -3.316e-8
0.262, -3.313e-8
0.263, -3.310e-8
0.264, -3.299e-8
0.265, -3.301e-8
0.266, -3.290e-8
0.267, -3.288e-8
0.268, -3.285e-8
0.269, -3.275e-8
0.270, -3.277e-8
0.271, -3.267e-8
0.272, -3.265e-8
0.273, -3.263e-8
0.274, -3.253e-8
0.275, -3.255e-8
0.276, -3.246e-8
0.277, -3.244e-8
0.278, -3.242e-8
0.279, -3.232e-8
0.280, -3.235e-8
0.281, -3.226e-8
0.282, -3.225e-8
0.283, -3.223e-8
0.284, -3.214e-8
0.285, -3.217e-8
0.286, -3.207e-8
0.287, -3.206e-8
0.288, -3.204e-8
0.289, -3.196e-8
0.290, -3.199e-8
0.291, -3.190e-8
0.292, -3.189e-8
0.293, -3.188e-8
0.294, -3.180e-8
0.295, -3.184e-8
0.296, -3.175e-8
0.297, -3.175e-8
0.298, -3.174e-8
0.299, -3.165e-8
0.300, -3.095e-8
0.299, -2.961e-8
0.298, -2.924e-8
0.297, -2.906e-8
0.296, -2.885e-8
0.295, -2.878e-8
0.294, -2.861e-8
0.293, -2.852e-8
0.292, -2.843e-8
0.291, -2.828e-8
0.290, -2.825e-8
0.289, -2.810e-8
0.288, -2.804e-8
0.287, -2.797e-8
0.286, -2.784e-8
0.285, -2.783e-8
0.284, -2.769e-8
0.283, -2.764e-8
0.282, -2.759e-8
0.281, -2.746e-8
0.280, -2.747e-8
0.279, -2.734e-8
0.278, -2.730e-8
0.277, -2.726e-8
0.276, -2.713e-8
0.275, -2.715e-8
0.274, -2.703e-8
0.273, -2.699e-8
0.272, -2.696e-8
0.271, -2.683e-8
0.270, -2.685e-8
0.269, -2.674e-8
0.268, -2.669e-8
0.267, -2.667e-8
0.266, -2.655e-8
0.265, -2.657e-8
0.264, -2.646e-8
0.263, -2.643e-8
0.262, -2.640e-8
0.261, -2.629e-8
0.260, -2.631e-8
0.259, -2.621e-8
0.258, -2.618e-8
0.257, -2.616e-8
0.256, -2.604e-8
0.255, -2.607e-8
0.254, -2.596e-8
0.253, -2.593e-8
0.252, -2.591e-8
0.251, -2.581e-8
0.250, -2.583e-8
0.249, -2.572e-8
0.248, -2.570e-8
0.247, -2.567e-8
0.246, -2.557e-8
0.245, -2.560e-8
0.244, -2.549e-8
0.243, -2.546e-8
0.242, -2.544e-8
0.241, -2.533e-8
0.240, -2.536e-8
0.239, -2.525e-8
0.238, -2.522e-8
0.237, -2.521e-8
0.236, -2.509e-8
0.235, -2.512e-8
0.234, -2.502e-8
0.233, -2.499e-8
0.232, -2.498e-8
0.231, -2.486e-8
0.230, -2.488e-8
0.229, -2.478e-8
0.228, -2.475e-8
0.227, -2.473e-8
0.226, -2.461e-8
0.225, -2.464e-8
0.224, -2.453e-8
0.223, -2.449e-8
0.222, -2.448e-8
0.221, -2.436e-8
0.220, -2.438e-8
0.219, -2.427e-8
0.218, -2.423e-8
0.217, -2.420e-8
0.216, -2.409e-8
0.215, -2.410e-8
0.214, -2.399e-8
0.213, -2.394e-8
0.212, -2.390e-8
0.211, -2.378e-8
0.210, -2.379e-8
0.209, -2.368e-8
0.208, -2.363e-8
0.207, -2.359e-8
0.206, -2.346e-8
0.205, -2.345e-8
0.204, -2.333e-8
0.203, -2.328e-8
0.202, -2.324e-8
0.201, -2.310e-8
0.200, -2.310e-8
0.199, -2.295e-8
0.198, -2.289e-8
0.197, -2.284e-8
0.196, -2.269e-8
0.195, -2.268e-8
0.194, -2.254e-8
0.193, -2.246e-8
0.192, -2.240e-8
0.191, -2.223e-8
0.190, -2.221e-8
0.189, -2.206e-8
0.188, -2.197e-8
0.187, -2.190e-8
0.186, -2.172e-8
0.185, -2.168e-8
0.184, -2.151e-8
0.183, -2.140e-8
0.182, -2.132e-8
0.181, -2.112e-8
0.180, -2.106e-8
0.179, -2.088e-8
0.178, -2.075e-8
0.177, -2.064e-8
0.176, -2.043e-8
0.175, -2.035e-8
0.174, -2.015e-8
0.173, -2.000e-8
0.172, -1.986e-8
0.171, -1.964e-8
0.170, -1.953e-8
0.169, -1.930e-8
0.168, -1.913e-8
0.167, -1.897e-8
0.166, -1.871e-8
0.165, -1.858e-8
0.164, -1.831e-8
0.163, -1.812e-8
0.162, -1.793e-8
0.161, -1.763e-8
0.160, -1.746e-8
0.159, -1.717e-8
0.158, -1.694e-8
0.157, -1.671e-8
0.156, -1.638e-8
0.155, -1.618e-8
0.154, -1.584e-8
0.153, -1.556e-8
0.152, -1.530e-8
0.151, -1.492e-8
0.150, -1.469e-8
0.149, -1.431e-8
0.148, -1.397e-8
0.147, -1.368e-8
0.146, -1.326e-8
0.145, -1.297e-8
0.144, -1.255e-8
0.143, -1.217e-8
0.142, -1.182e-8
0.141, -1.134e-8
0.140, -1.099e-8
0.139, -1.055e-8
0.138, -1.010e-8
0.137, -9.706e-9
0.136, -9.192e-9
0.135, -8.778e-9
0.134, -8.280e-9
0.133, -7.790e-9
0.132, -7.328e-9
0.131, -6.762e-9
0.130, -6.293e-9
0.129, -5.723e-9
0.128, -5.184e-9
0.127, -4.664e-9
0.126, -4.057e-9
0.125, -3.548e-9
0.124, -2.927e-9
0.123, -2.359e-9
0.122, -1.783e-9
0.121, -1.123e-9
0.120, -5.773e-10
0.119, 1.031e-10
0.118, 7.187e-10
0.117, 1.338e-9
0.116, 2.053e-9
0.115, 2.639e-9
0.114, 3.346e-9
0.113, 3.992e-9
0.112, 4.619e-9
0.111, 5.371e-9
0.110, 5.976e-9
0.109, 6.691e-9
0.108, 7.379e-9
0.107, 8.023e-9
0.106, 8.781e-9
0.105, 9.412e-9
0.104, 1.013e-8
0.103, 1.083e-8
0.102, 1.148e-8
0.101, 1.220e-8
0.100, 1.283e-8
0.099, 1.350e-8
0.098, 1.419e-8
0.097, 1.479e-8
0.096, 1.549e-8
0.095, 1.610e-8
0.094, 1.675e-8
0.093, 1.739e-8
0.092, 1.796e-8
0.091, 1.860e-8
0.090, 1.916e-8
0.089, 1.977e-8
0.088, 2.032e-8
0.087, 2.084e-8
0.086, 2.139e-8
0.085, 2.189e-8
0.084, 2.242e-8
0.083, 2.290e-8
0.082, 2.334e-8
0.081, 2.384e-8
0.080, 2.422e-8
0.079, 2.468e-8
0.078, 2.508e-8
0.077, 2.544e-8
0.076, 2.587e-8
0.075, 2.615e-8
0.074, 2.651e-8
0.073, 2.680e-8
0.072, 2.705e-8
0.071, 2.740e-8
0.070, 2.756e-8
0.069, 2.784e-8
0.068, 2.805e-8
0.067, 2.817e-8
0.066, 2.844e-8
0.065, 2.854e-8
0.064, 2.872e-8
0.063, 2.885e-8
0.062, 2.890e-8
0.061, 2.905e-8
0.060, 2.907e-8
0.059, 2.916e-8
0.058, 2.921e-8
0.057, 2.919e-8
0.056, 2.926e-8
0.055, 2.922e-8
0.054, 2.922e-8
0.053, 2.922e-8
0.052, 2.913e-8
0.051, 2.914e-8
0.050, 2.904e-8
0.049, 2.899e-8
0.048, 2.890e-8
0.047, 2.878e-8
0.046, 2.874e-8
0.045, 2.856e-8
0.044, 2.848e-8
0.043, 2.835e-8
0.042, 2.818e-8
0.041, 2.809e-8
0.040, 2.790e-8
0.039, 2.779e-8
0.038, 2.762e-8
0.037, 2.742e-8
0.036, 2.732e-8
0.035, 2.708e-8
0.034, 2.694e-8
0.033, 2.676e-8
0.032, 2.653e-8
0.031, 2.643e-8
0.030, 2.616e-8
0.029, 2.601e-8
0.028, 2.582e-8
0.027, 2.558e-8
0.026, 2.546e-8
0.025, 2.520e-8
0.024, 2.503e-8
0.023, 2.484e-8
0.022, 2.458e-8
0.021, 2.446e-8
0.020, 2.418e-8
0.019, 2.401e-8
0.018, 2.382e-8
0.017, 2.357e-8
0.016, 2.344e-8
0.015, 2.318e-8
0.014, 2.302e-8
0.013, 2.283e-8
0.012, 2.259e-8
0.011, 2.245e-8
0.010, 2.220e-8
0.009, 2.205e-8
0.008, 2.186e-8
0.007, 2.163e-8
0.006, 2.150e-8
0.005, 2.125e-8
0.004, 2.111e-8
0.003, 2.092e-8
0.002, 2.070e-8
0.001, 2.060e-8
0.000, 2.040e-8
-0.001, 2.025e-8
-0.002, 2.006e-8
-0.003, 1.984e-8
-0.004, 1.974e-8
-0.005, 1.950e-8
-0.006, 1.937e-8
-0.007, 1.922e-8
-0.008, 1.901e-8
-0.009, 1.893e-8
-0.010, 1.869e-8
-0.011, 1.858e-8
-0.012, 1.843e-8
-0.013, 1.823e-8
-0.014, 1.816e-8
-0.015, 1.795e-8
-0.016, 1.784e-8
-0.017, 1.770e-8
-0.018, 1.751e-8
-0.019, 1.744e-8
-0.020, 1.724e-8
-0.021, 1.714e-8
-0.022, 1.702e-8
-0.023, 1.684e-8
-0.024, 1.678e-8
-0.025, 1.659e-8
-0.026, 1.650e-8
-0.027, 1.638e-8
-0.028, 1.621e-8
-0.029, 1.615e-8
-0.030, 1.597e-8
-0.031, 1.589e-8
-0.032, 1.578e-8
-0.033, 1.563e-8
-0.034, 1.559e-8
-0.035, 1.541e-8
-0.036, 1.534e-8
-0.037, 1.524e-8
-0.038, 1.509e-8
-0.039, 1.506e-8
-0.040, 1.489e-8
-0.041, 1.483e-8
-0.042, 1.474e-8
-0.043, 1.459e-8
-0.044, 1.458e-8
-0.045, 1.441e-8
-0.046, 1.436e-8
-0.047, 1.428e-8
-0.048, 1.413e-8
-0.049, 1.412e-8
-0.050, 1.397e-8
-0.051, 1.392e-8
-0.052, 1.385e-8
-0.053, 1.371e-8
-0.054, 1.370e-8
-0.055, 1.356e-8
-0.056, 1.352e-8
-0.057, 1.345e-8
-0.058, 1.332e-8
-0.059, 1.332e-8
-0.060, 1.319e-8
-0.061, 1.315e-8
-0.062, 1.308e-8
-0.063, 1.296e-8
-0.064, 1.297e-8
-0.065, 1.283e-8
-0.066, 1.280e-8
-0.067, 1.274e-8
-0.068, 1.262e-8
-0.069, 1.263e-8
-0.070, 1.251e-8
-0.071, 1.248e-8
-0.072, 1.242e-8
-0.073, 1.232e-8
-0.074, 1.232e-8
-0.075, 1.221e-8
-0.076, 1.219e-8
-0.077, 1.214e-8
-0.078, 1.204e-8
-0.079, 1.205e-8
-0.080, 1.193e-8
-0.081, 1.191e-8
-0.082, 1.187e-8
-0.083, 1.177e-8
-0.084, 1.179e-8
-0.085, 1.167e-8
-0.086, 1.166e-8
-0.087, 1.162e-8
-0.088, 1.152e-8
-0.089, 1.155e-8
-0.090, 1.143e-8
-0.091, 1.142e-8
-0.092, 1.139e-8
-0.093, 1.129e-8
-0.094, 1.132e-8
-0.095, 1.121e-8
-0.096, 1.120e-8
-0.097, 1.118e-8
-0.098, 1.108e-8
-0.099, 1.111e-8
-0.100, 1.101e-8
-0.101, 1.100e-8
-0.102, 1.098e-8
-0.103, 1.089e-8
-0.104, 1.092e-8
-0.105, 1.083e-8
-0.106, 1.081e-8
-0.107, 1.080e-8
-0.108, 1.071e-8
-0.109, 1.075e-8
-0.110, 1.065e-8
-0.111, 1.065e-8
-0.112, 1.062e-8
-0.113, 1.054e-8
-0.114, 1.058e-8
-0.115, 1.049e-8
-0.116, 1.049e-8
-0.117, 1.047e-8
-0.118, 1.039e-8
-0.119, 1.043e-8
-0.120, 1.034e-8
-0.121, 1.035e-8
-0.122, 1.033e-8
-0.123, 1.025e-8
-0.124, 1.030e-8
-0.125, 1.020e-8
-0.126, 1.021e-8
-0.127, 1.020e-8
-0.128, 1.012e-8
-0.129, 1.017e-8
-0.130, 1.008e-8
-0.131, 1.009e-8
-0.132, 1.009e-8
-0.133, 1.000e-8
-0.134, 1.006e-8
-0.135, 9.972e-9
-0.136, 9.973e-9
-0.137, 9.976e-9
-0.138, 9.893e-9
-0.139, 9.949e-9
-0.140, 9.871e-9
-0.141, 9.879e-9
-0.142, 9.878e-9
-0.143, 9.802e-9
-0.144, 9.855e-9
-0.145, 9.780e-9
-0.146, 9.790e-9
-0.147, 9.787e-9
-0.148, 9.717e-9
-0.149, 9.771e-9
-0.150, 9.697e-9
-0.151, 9.708e-9
-0.152, 9.711e-9
-0.153, 9.645e-9
-0.154, 9.700e-9
-0.155, 9.627e-9
-0.156, 9.642e-9
-0.157, 9.640e-9
-0.158, 9.579e-9
-0.159, 9.636e-9
-0.160, 9.566e-9
-0.161, 9.582e-9
-0.162, 9.584e-9
-0.163, 9.523e-9
-0.164, 9.585e-9
-0.165, 9.512e-9
-0.166, 9.529e-9
-0.167, 9.542e-9
-0.168, 9.476e-9
-0.169, 9.542e-9
-0.170, 9.470e-9
-0.171, 9.490e-9
-0.172, 9.503e-9
-0.173, 9.434e-9
-0.174, 9.506e-9
-0.175, 9.438e-9
-0.176, 9.455e-9
-0.177, 9.476e-9
-0.178, 9.408e-9
-0.179, 9.480e-9
-0.180, 9.421e-9
-0.181, 9.432e-9
-0.182, 9.454e-9
-0.183, 9.391e-9
-0.184, 9.459e-9
-0.185, 9.403e-9
-0.186, 9.420e-9
-0.187, 9.443e-9
-0.188, 9.385e-9
-0.189, 9.454e-9
-0.190, 9.397e-9
-0.191, 9.422e-9
-0.192, 9.443e-9
-0.193, 9.388e-9
-0.194, 9.459e-9
-0.195, 9.401e-9
-0.196, 9.430e-9
-0.197, 9.450e-9
-0.198, 9.397e-9
-0.199, 9.473e-9
