Mar. 16, 2023   09:44:49
Cyclic Voltammetry
File: c:/users/oliverrz/desktop/electrolab/data/2023_03_16\fcmeoh_macros_750_um\electrode2_cv_200mvs_750_um.bin
Data Source:  Experiment
Instrument Model:  CHI760E
Header: CV
Note: 

Init E (V) = -0.2
High E (V) = 0.3
Low E (V) = -0.2
Final E (V) = -0.2
Init P/N = P
Scan Rate (V/s) = 0.2
Segment = 3
Sample Interval (V) = 0.001
Quiet Time (sec) = 2
Sensitivity (A/V) = 1e-7

Results:

Channel 1:
Segment 1:
Ep = 0.102V
ip = -6.608e-8A
Ah = -2.028e-8C

Segment 2:
Ep = 0.041V
ip = 6.353e-8A
Ah = 1.974e-8C

Segment 3:

Potential/V, Current/A

-0.200, 6.998e-9
-0.199, 5.815e-9
-0.198, 5.489e-9
-0.197, 5.400e-9
-0.196, 5.262e-9
-0.195, 5.052e-9
-0.194, 4.978e-9
-0.193, 4.896e-9
-0.192, 4.742e-9
-0.191, 4.591e-9
-0.190, 4.610e-9
-0.189, 4.463e-9
-0.188, 4.311e-9
-0.187, 4.305e-9
-0.186, 4.245e-9
-0.185, 4.058e-9
-0.184, 4.022e-9
-0.183, 3.998e-9
-0.182, 3.843e-9
-0.181, 3.739e-9
-0.180, 3.747e-9
-0.179, 3.647e-9
-0.178, 3.514e-9
-0.177, 3.490e-9
-0.176, 3.465e-9
-0.175, 3.295e-9
-0.174, 3.257e-9
-0.173, 3.266e-9
-0.172, 3.119e-9
-0.171, 3.019e-9
-0.170, 3.071e-9
-0.169, 2.937e-9
-0.168, 2.821e-9
-0.167, 2.831e-9
-0.166, 2.776e-9
-0.165, 2.639e-9
-0.164, 2.605e-9
-0.163, 2.606e-9
-0.162, 2.497e-9
-0.161, 2.376e-9
-0.160, 2.460e-9
-0.159, 2.320e-9
-0.158, 2.209e-9
-0.157, 2.236e-9
-0.156, 2.197e-9
-0.155, 2.050e-9
-0.154, 2.025e-9
-0.153, 2.028e-9
-0.152, 1.923e-9
-0.151, 1.824e-9
-0.150, 1.877e-9
-0.149, 1.796e-9
-0.148, 1.652e-9
-0.147, 1.694e-9
-0.146, 1.672e-9
-0.145, 1.498e-9
-0.144, 1.521e-9
-0.143, 1.527e-9
-0.142, 1.391e-9
-0.141, 1.318e-9
-0.140, 1.378e-9
-0.139, 1.278e-9
-0.138, 1.186e-9
-0.137, 1.196e-9
-0.136, 1.184e-9
-0.135, 1.040e-9
-0.134, 1.018e-9
-0.133, 1.057e-9
-0.132, 9.300e-10
-0.131, 8.568e-10
-0.130, 9.344e-10
-0.129, 8.055e-10
-0.128, 7.236e-10
-0.127, 7.489e-10
-0.126, 7.284e-10
-0.125, 5.955e-10
-0.124, 5.842e-10
-0.123, 6.008e-10
-0.122, 5.046e-10
-0.121, 4.068e-10
-0.120, 4.967e-10
-0.119, 4.105e-10
-0.118, 2.833e-10
-0.117, 3.321e-10
-0.116, 3.090e-10
-0.115, 1.721e-10
-0.114, 1.832e-10
-0.113, 1.879e-10
-0.112, 1.060e-10
-0.111, 2.886e-11
-0.110, 7.592e-11
-0.109, 5.631e-12
-0.108, -1.111e-10
-0.107, -5.314e-11
-0.106, -7.175e-11
-0.105, -2.238e-10
-0.104, -1.953e-10
-0.103, -1.935e-10
-0.102, -3.015e-10
-0.101, -3.660e-10
-0.100, -2.999e-10
-0.099, -3.876e-10
-0.098, -4.695e-10
-0.097, -4.594e-10
-0.096, -4.491e-10
-0.095, -5.962e-10
-0.094, -5.929e-10
-0.093, -5.601e-10
-0.092, -6.878e-10
-0.091, -7.432e-10
-0.090, -6.712e-10
-0.089, -7.774e-10
-0.088, -8.644e-10
-0.087, -8.232e-10
-0.086, -8.615e-10
-0.085, -9.789e-10
-0.084, -9.748e-10
-0.083, -9.674e-10
-0.082, -1.058e-9
-0.081, -1.160e-9
-0.080, -1.055e-9
-0.079, -1.164e-9
-0.078, -1.278e-9
-0.077, -1.230e-9
-0.076, -1.272e-9
-0.075, -1.399e-9
-0.074, -1.383e-9
-0.073, -1.402e-9
-0.072, -1.484e-9
-0.071, -1.560e-9
-0.070, -1.520e-9
-0.069, -1.605e-9
-0.068, -1.731e-9
-0.067, -1.684e-9
-0.066, -1.711e-9
-0.065, -1.888e-9
-0.064, -1.858e-9
-0.063, -1.880e-9
-0.062, -1.991e-9
-0.061, -2.058e-9
-0.060, -2.041e-9
-0.059, -2.129e-9
-0.058, -2.241e-9
-0.057, -2.242e-9
-0.056, -2.270e-9
-0.055, -2.427e-9
-0.054, -2.453e-9
-0.053, -2.441e-9
-0.052, -2.605e-9
-0.051, -2.690e-9
-0.050, -2.644e-9
-0.049, -2.793e-9
-0.048, -2.908e-9
-0.047, -2.896e-9
-0.046, -2.977e-9
-0.045, -3.127e-9
-0.044, -3.184e-9
-0.043, -3.207e-9
-0.042, -3.351e-9
-0.041, -3.489e-9
-0.040, -3.448e-9
-0.039, -3.605e-9
-0.038, -3.779e-9
-0.037, -3.768e-9
-0.036, -3.873e-9
-0.035, -4.063e-9
-0.034, -4.120e-9
-0.033, -4.201e-9
-0.032, -4.364e-9
-0.031, -4.522e-9
-0.030, -4.551e-9
-0.029, -4.712e-9
-0.028, -4.919e-9
-0.027, -4.954e-9
-0.026, -5.100e-9
-0.025, -5.348e-9
-0.024, -5.427e-9
-0.023, -5.532e-9
-0.022, -5.766e-9
-0.021, -5.950e-9
-0.020, -6.014e-9
-0.019, -6.242e-9
-0.018, -6.478e-9
-0.017, -6.605e-9
-0.016, -6.763e-9
-0.015, -7.050e-9
-0.014, -7.234e-9
-0.013, -7.389e-9
-0.012, -7.685e-9
-0.011, -7.922e-9
-0.010, -8.060e-9
-0.009, -8.369e-9
-0.008, -8.648e-9
-0.007, -8.845e-9
-0.006, -9.112e-9
-0.005, -9.444e-9
-0.004, -9.704e-9
-0.003, -9.934e-9
-0.002, -1.030e-8
-0.001, -1.066e-8
-0.000, -1.102e-8
0.001, -1.130e-8
0.002, -1.170e-8
0.003, -1.194e-8
0.004, -1.232e-8
0.005, -1.276e-8
0.006, -1.309e-8
0.007, -1.348e-8
0.008, -1.392e-8
0.009, -1.438e-8
0.010, -1.472e-8
0.011, -1.520e-8
0.012, -1.577e-8
0.013, -1.614e-8
0.014, -1.662e-8
0.015, -1.722e-8
0.016, -1.766e-8
0.017, -1.815e-8
0.018, -1.877e-8
0.019, -1.932e-8
0.020, -1.983e-8
0.021, -2.046e-8
0.022, -2.109e-8
0.023, -2.168e-8
0.024, -2.226e-8
0.025, -2.301e-8
0.026, -2.367e-8
0.027, -2.427e-8
0.028, -2.503e-8
0.029, -2.574e-8
0.030, -2.637e-8
0.031, -2.720e-8
0.032, -2.791e-8
0.033, -2.865e-8
0.034, -2.945e-8
0.035, -3.026e-8
0.036, -3.109e-8
0.037, -3.185e-8
0.038, -3.272e-8
0.039, -3.362e-8
0.040, -3.435e-8
0.041, -3.528e-8
0.042, -3.621e-8
0.043, -3.698e-8
0.044, -3.794e-8
0.045, -3.885e-8
0.046, -3.977e-8
0.047, -4.069e-8
0.048, -4.160e-8
0.049, -4.257e-8
0.050, -4.343e-8
0.051, -4.444e-8
0.052, -4.545e-8
0.053, -4.629e-8
0.054, -4.724e-8
0.055, -4.827e-8
0.056, -4.913e-8
0.057, -5.009e-8
0.058, -5.105e-8
0.059, -5.195e-8
0.060, -5.283e-8
0.061, -5.379e-8
0.062, -5.472e-8
0.063, -5.559e-8
0.064, -5.645e-8
0.065, -5.741e-8
0.066, -5.823e-8
0.067, -5.904e-8
0.068, -5.994e-8
0.069, -6.070e-8
0.070, -6.142e-8
0.071, -6.233e-8
0.072, -6.305e-8
0.073, -6.374e-8
0.074, -6.448e-8
0.075, -6.518e-8
0.076, -6.586e-8
0.077, -6.648e-8
0.078, -6.712e-8
0.079, -6.778e-8
0.080, -6.819e-8
0.081, -6.884e-8
0.082, -6.938e-8
0.083, -6.979e-8
0.084, -7.031e-8
0.085, -7.074e-8
0.086, -7.113e-8
0.087, -7.152e-8
0.088, -7.184e-8
0.089, -7.227e-8
0.090, -7.246e-8
0.091, -7.277e-8
0.092, -7.310e-8
0.093, -7.319e-8
0.094, -7.343e-8
0.095, -7.366e-8
0.096, -7.372e-8
0.097, -7.386e-8
0.098, -7.398e-8
0.099, -7.403e-8
0.100, -7.405e-8
0.101, -7.411e-8
0.102, -7.419e-8
0.103, -7.414e-8
0.104, -7.405e-8
0.105, -7.406e-8
0.106, -7.395e-8
0.107, -7.381e-8
0.108, -7.376e-8
0.109, -7.363e-8
0.110, -7.340e-8
0.111, -7.334e-8
0.112, -7.315e-8
0.113, -7.292e-8
0.114, -7.273e-8
0.115, -7.256e-8
0.116, -7.233e-8
0.117, -7.204e-8
0.118, -7.184e-8
0.119, -7.163e-8
0.120, -7.124e-8
0.121, -7.107e-8
0.122, -7.081e-8
0.123, -7.044e-8
0.124, -7.017e-8
0.125, -6.992e-8
0.126, -6.959e-8
0.127, -6.925e-8
0.128, -6.899e-8
0.129, -6.871e-8
0.130, -6.828e-8
0.131, -6.801e-8
0.132, -6.775e-8
0.133, -6.733e-8
0.134, -6.699e-8
0.135, -6.676e-8
0.136, -6.636e-8
0.137, -6.602e-8
0.138, -6.575e-8
0.139, -6.542e-8
0.140, -6.501e-8
0.141, -6.474e-8
0.142, -6.444e-8
0.143, -6.406e-8
0.144, -6.370e-8
0.145, -6.347e-8
0.146, -6.310e-8
0.147, -6.272e-8
0.148, -6.249e-8
0.149, -6.217e-8
0.150, -6.174e-8
0.151, -6.153e-8
0.152, -6.122e-8
0.153, -6.086e-8
0.154, -6.056e-8
0.155, -6.033e-8
0.156, -5.998e-8
0.157, -5.964e-8
0.158, -5.939e-8
0.159, -5.916e-8
0.160, -5.873e-8
0.161, -5.853e-8
0.162, -5.831e-8
0.163, -5.792e-8
0.164, -5.766e-8
0.165, -5.748e-8
0.166, -5.714e-8
0.167, -5.686e-8
0.168, -5.664e-8
0.169, -5.641e-8
0.170, -5.606e-8
0.171, -5.586e-8
0.172, -5.568e-8
0.173, -5.534e-8
0.174, -5.508e-8
0.175, -5.496e-8
0.176, -5.464e-8
0.177, -5.439e-8
0.178, -5.422e-8
0.179, -5.402e-8
0.180, -5.370e-8
0.181, -5.353e-8
0.182, -5.334e-8
0.183, -5.308e-8
0.184, -5.284e-8
0.185, -5.272e-8
0.186, -5.248e-8
0.187, -5.223e-8
0.188, -5.209e-8
0.189, -5.192e-8
0.190, -5.162e-8
0.191, -5.151e-8
0.192, -5.136e-8
0.193, -5.110e-8
0.194, -5.092e-8
0.195, -5.082e-8
0.196, -5.060e-8
0.197, -5.038e-8
0.198, -5.027e-8
0.199, -5.014e-8
0.200, -4.985e-8
0.201, -4.974e-8
0.202, -4.966e-8
0.203, -4.940e-8
0.204, -4.926e-8
0.205, -4.920e-8
0.206, -4.897e-8
0.207, -4.879e-8
0.208, -4.870e-8
0.209, -4.858e-8
0.210, -4.834e-8
0.211, -4.824e-8
0.212, -4.818e-8
0.213, -4.794e-8
0.214, -4.780e-8
0.215, -4.779e-8
0.216, -4.757e-8
0.217, -4.741e-8
0.218, -4.736e-8
0.219, -4.724e-8
0.220, -4.702e-8
0.221, -4.696e-8
0.222, -4.689e-8
0.223, -4.670e-8
0.224, -4.655e-8
0.225, -4.653e-8
0.226, -4.638e-8
0.227, -4.620e-8
0.228, -4.617e-8
0.229, -4.608e-8
0.230, -4.587e-8
0.231, -4.586e-8
0.232, -4.577e-8
0.233, -4.559e-8
0.234, -4.550e-8
0.235, -4.547e-8
0.236, -4.534e-8
0.237, -4.518e-8
0.238, -4.515e-8
0.239, -4.511e-8
0.240, -4.488e-8
0.241, -4.486e-8
0.242, -4.484e-8
0.243, -4.466e-8
0.244, -4.457e-8
0.245, -4.458e-8
0.246, -4.441e-8
0.247, -4.433e-8
0.248, -4.429e-8
0.249, -4.423e-8
0.250, -4.405e-8
0.251, -4.404e-8
0.252, -4.402e-8
0.253, -4.385e-8
0.254, -4.376e-8
0.255, -4.381e-8
0.256, -4.367e-8
0.257, -4.356e-8
0.258, -4.356e-8
0.259, -4.349e-8
0.260, -4.334e-8
0.261, -4.334e-8
0.262, -4.330e-8
0.263, -4.319e-8
0.264, -4.309e-8
0.265, -4.313e-8
0.266, -4.302e-8
0.267, -4.290e-8
0.268, -4.293e-8
0.269, -4.289e-8
0.270, -4.272e-8
0.271, -4.275e-8
0.272, -4.272e-8
0.273, -4.258e-8
0.274, -4.254e-8
0.275, -4.257e-8
0.276, -4.247e-8
0.277, -4.237e-8
0.278, -4.239e-8
0.279, -4.238e-8
0.280, -4.221e-8
0.281, -4.225e-8
0.282, -4.226e-8
0.283, -4.211e-8
0.284, -4.208e-8
0.285, -4.212e-8
0.286, -4.202e-8
0.287, -4.196e-8
0.288, -4.196e-8
0.289, -4.195e-8
0.290, -4.182e-8
0.291, -4.183e-8
0.292, -4.187e-8
0.293, -4.173e-8
0.294, -4.170e-8
0.295, -4.178e-8
0.296, -4.166e-8
0.297, -4.160e-8
0.298, -4.164e-8
0.299, -4.162e-8
0.300, -3.841e-8
0.299, -3.609e-8
0.298, -3.568e-8
0.297, -3.525e-8
0.296, -3.498e-8
0.295, -3.485e-8
0.294, -3.455e-8
0.293, -3.435e-8
0.292, -3.419e-8
0.291, -3.408e-8
0.290, -3.379e-8
0.289, -3.371e-8
0.288, -3.363e-8
0.287, -3.338e-8
0.286, -3.326e-8
0.285, -3.323e-8
0.284, -3.301e-8
0.283, -3.288e-8
0.282, -3.281e-8
0.281, -3.272e-8
0.280, -3.251e-8
0.279, -3.247e-8
0.278, -3.241e-8
0.277, -3.223e-8
0.276, -3.211e-8
0.275, -3.213e-8
0.274, -3.196e-8
0.273, -3.181e-8
0.272, -3.182e-8
0.271, -3.172e-8
0.270, -3.153e-8
0.269, -3.152e-8
0.268, -3.147e-8
0.267, -3.132e-8
0.266, -3.123e-8
0.265, -3.123e-8
0.264, -3.111e-8
0.263, -3.098e-8
0.262, -3.097e-8
0.261, -3.091e-8
0.260, -3.070e-8
0.259, -3.073e-8
0.258, -3.069e-8
0.257, -3.051e-8
0.256, -3.045e-8
0.255, -3.047e-8
0.254, -3.033e-8
0.253, -3.025e-8
0.252, -3.022e-8
0.251, -3.018e-8
0.250, -3.001e-8
0.249, -3.000e-8
0.248, -2.999e-8
0.247, -2.982e-8
0.246, -2.977e-8
0.245, -2.979e-8
0.244, -2.965e-8
0.243, -2.957e-8
0.242, -2.956e-8
0.241, -2.950e-8
0.240, -2.935e-8
0.239, -2.935e-8
0.238, -2.933e-8
0.237, -2.919e-8
0.236, -2.910e-8
0.235, -2.916e-8
0.234, -2.903e-8
0.233, -2.891e-8
0.232, -2.894e-8
0.231, -2.887e-8
0.230, -2.871e-8
0.229, -2.874e-8
0.228, -2.869e-8
0.227, -2.857e-8
0.226, -2.849e-8
0.225, -2.851e-8
0.224, -2.840e-8
0.223, -2.828e-8
0.222, -2.830e-8
0.221, -2.826e-8
0.220, -2.806e-8
0.219, -2.809e-8
0.218, -2.806e-8
0.217, -2.790e-8
0.216, -2.785e-8
0.215, -2.787e-8
0.214, -2.774e-8
0.213, -2.764e-8
0.212, -2.761e-8
0.211, -2.760e-8
0.210, -2.741e-8
0.209, -2.740e-8
0.208, -2.740e-8
0.207, -2.721e-8
0.206, -2.715e-8
0.205, -2.717e-8
0.204, -2.701e-8
0.203, -2.694e-8
0.202, -2.692e-8
0.201, -2.683e-8
0.200, -2.668e-8
0.199, -2.664e-8
0.198, -2.662e-8
0.197, -2.646e-8
0.196, -2.636e-8
0.195, -2.638e-8
0.194, -2.622e-8
0.193, -2.609e-8
0.192, -2.607e-8
0.191, -2.599e-8
0.190, -2.579e-8
0.189, -2.578e-8
0.188, -2.569e-8
0.187, -2.553e-8
0.186, -2.543e-8
0.185, -2.541e-8
0.184, -2.522e-8
0.183, -2.509e-8
0.182, -2.504e-8
0.181, -2.494e-8
0.180, -2.470e-8
0.179, -2.466e-8
0.178, -2.457e-8
0.177, -2.434e-8
0.176, -2.424e-8
0.175, -2.418e-8
0.174, -2.397e-8
0.173, -2.381e-8
0.172, -2.370e-8
0.171, -2.359e-8
0.170, -2.332e-8
0.169, -2.323e-8
0.168, -2.311e-8
0.167, -2.283e-8
0.166, -2.267e-8
0.165, -2.260e-8
0.164, -2.230e-8
0.163, -2.213e-8
0.162, -2.198e-8
0.161, -2.177e-8
0.160, -2.149e-8
0.159, -2.132e-8
0.158, -2.116e-8
0.157, -2.084e-8
0.156, -2.060e-8
0.155, -2.046e-8
0.154, -2.012e-8
0.153, -1.985e-8
0.152, -1.966e-8
0.151, -1.938e-8
0.150, -1.902e-8
0.149, -1.881e-8
0.148, -1.852e-8
0.147, -1.816e-8
0.146, -1.785e-8
0.145, -1.758e-8
0.144, -1.721e-8
0.143, -1.681e-8
0.142, -1.654e-8
0.141, -1.617e-8
0.140, -1.567e-8
0.139, -1.540e-8
0.138, -1.501e-8
0.137, -1.450e-8
0.136, -1.411e-8
0.135, -1.374e-8
0.134, -1.323e-8
0.133, -1.276e-8
0.132, -1.230e-8
0.131, -1.187e-8
0.130, -1.127e-8
0.129, -1.082e-8
0.128, -1.030e-8
0.127, -9.674e-9
0.126, -9.164e-9
0.125, -8.662e-9
0.124, -7.984e-9
0.123, -7.400e-9
0.122, -6.816e-9
0.121, -6.202e-9
0.120, -5.478e-9
0.119, -4.863e-9
0.118, -4.256e-9
0.117, -3.492e-9
0.116, -2.779e-9
0.115, -2.147e-9
0.114, -1.338e-9
0.113, -5.804e-10
0.112, 1.007e-10
0.111, 9.007e-10
0.110, 1.758e-9
0.109, 2.476e-9
0.108, 3.332e-9
0.107, 4.173e-9
0.106, 5.012e-9
0.105, 5.839e-9
0.104, 6.722e-9
0.103, 7.657e-9
0.102, 8.503e-9
0.101, 9.353e-9
0.100, 1.041e-8
0.099, 1.115e-8
0.098, 1.209e-8
0.097, 1.311e-8
0.096, 1.396e-8
0.095, 1.489e-8
0.094, 1.585e-8
0.093, 1.683e-8
0.092, 1.781e-8
0.091, 1.866e-8
0.090, 1.974e-8
0.089, 2.063e-8
0.088, 2.152e-8
0.087, 2.256e-8
0.086, 2.344e-8
0.085, 2.436e-8
0.084, 2.535e-8
0.083, 2.619e-8
0.082, 2.713e-8
0.081, 2.802e-8
0.080, 2.894e-8
0.079, 2.980e-8
0.078, 3.062e-8
0.077, 3.155e-8
0.076, 3.239e-8
0.075, 3.312e-8
0.074, 3.399e-8
0.073, 3.476e-8
0.072, 3.547e-8
0.071, 3.622e-8
0.070, 3.696e-8
0.069, 3.761e-8
0.068, 3.834e-8
0.067, 3.895e-8
0.066, 3.959e-8
0.065, 4.019e-8
0.064, 4.082e-8
0.063, 4.134e-8
0.062, 4.181e-8
0.061, 4.230e-8
0.060, 4.288e-8
0.059, 4.319e-8
0.058, 4.361e-8
0.057, 4.409e-8
0.056, 4.437e-8
0.055, 4.473e-8
0.054, 4.504e-8
0.053, 4.534e-8
0.052, 4.558e-8
0.051, 4.581e-8
0.050, 4.606e-8
0.049, 4.619e-8
0.048, 4.629e-8
0.047, 4.653e-8
0.046, 4.658e-8
0.045, 4.662e-8
0.044, 4.678e-8
0.043, 4.676e-8
0.042, 4.676e-8
0.041, 4.680e-8
0.040, 4.679e-8
0.039, 4.675e-8
0.038, 4.663e-8
0.037, 4.664e-8
0.036, 4.656e-8
0.035, 4.632e-8
0.034, 4.629e-8
0.033, 4.617e-8
0.032, 4.593e-8
0.031, 4.580e-8
0.030, 4.570e-8
0.029, 4.542e-8
0.028, 4.525e-8
0.027, 4.508e-8
0.026, 4.487e-8
0.025, 4.458e-8
0.024, 4.436e-8
0.023, 4.418e-8
0.022, 4.382e-8
0.021, 4.358e-8
0.020, 4.342e-8
0.019, 4.303e-8
0.018, 4.274e-8
0.017, 4.258e-8
0.016, 4.222e-8
0.015, 4.192e-8
0.014, 4.166e-8
0.013, 4.138e-8
0.012, 4.105e-8
0.011, 4.072e-8
0.010, 4.053e-8
0.009, 4.017e-8
0.008, 3.979e-8
0.007, 3.961e-8
0.006, 3.927e-8
0.005, 3.889e-8
0.004, 3.869e-8
0.003, 3.836e-8
0.002, 3.802e-8
0.001, 3.775e-8
0.000, 3.766e-8
-0.001, 3.720e-8
-0.002, 3.683e-8
-0.003, 3.663e-8
-0.004, 3.634e-8
-0.005, 3.595e-8
-0.006, 3.573e-8
-0.007, 3.548e-8
-0.008, 3.511e-8
-0.009, 3.486e-8
-0.010, 3.466e-8
-0.011, 3.431e-8
-0.012, 3.403e-8
-0.013, 3.383e-8
-0.014, 3.355e-8
-0.015, 3.322e-8
-0.016, 3.302e-8
-0.017, 3.279e-8
-0.018, 3.246e-8
-0.019, 3.223e-8
-0.020, 3.209e-8
-0.021, 3.174e-8
-0.022, 3.147e-8
-0.023, 3.136e-8
-0.024, 3.108e-8
-0.025, 3.080e-8
-0.026, 3.064e-8
-0.027, 3.043e-8
-0.028, 3.016e-8
-0.029, 2.993e-8
-0.030, 2.981e-8
-0.031, 2.954e-8
-0.032, 2.928e-8
-0.033, 2.919e-8
-0.034, 2.897e-8
-0.035, 2.868e-8
-0.036, 2.860e-8
-0.037, 2.838e-8
-0.038, 2.815e-8
-0.039, 2.799e-8
-0.040, 2.787e-8
-0.041, 2.765e-8
-0.042, 2.742e-8
-0.043, 2.735e-8
-0.044, 2.717e-8
-0.045, 2.691e-8
-0.046, 2.683e-8
-0.047, 2.670e-8
-0.048, 2.645e-8
-0.049, 2.633e-8
-0.050, 2.626e-8
-0.051, 2.604e-8
-0.052, 2.588e-8
-0.053, 2.581e-8
-0.054, 2.564e-8
-0.055, 2.544e-8
-0.056, 2.536e-8
-0.057, 2.527e-8
-0.058, 2.506e-8
-0.059, 2.494e-8
-0.060, 2.491e-8
-0.061, 2.470e-8
-0.062, 2.455e-8
-0.063, 2.454e-8
-0.064, 2.439e-8
-0.065, 2.420e-8
-0.066, 2.416e-8
-0.067, 2.406e-8
-0.068, 2.390e-8
-0.069, 2.379e-8
-0.070, 2.377e-8
-0.071, 2.360e-8
-0.072, 2.347e-8
-0.073, 2.347e-8
-0.074, 2.335e-8
-0.075, 2.317e-8
-0.076, 2.318e-8
-0.077, 2.309e-8
-0.078, 2.294e-8
-0.079, 2.287e-8
-0.080, 2.286e-8
-0.081, 2.271e-8
-0.082, 2.260e-8
-0.083, 2.261e-8
-0.084, 2.253e-8
-0.085, 2.235e-8
-0.086, 2.236e-8
-0.087, 2.232e-8
-0.088, 2.217e-8
-0.089, 2.213e-8
-0.090, 2.213e-8
-0.091, 2.199e-8
-0.092, 2.192e-8
-0.093, 2.193e-8
-0.094, 2.184e-8
-0.095, 2.172e-8
-0.096, 2.172e-8
-0.097, 2.171e-8
-0.098, 2.157e-8
-0.099, 2.152e-8
-0.100, 2.159e-8
-0.101, 2.144e-8
-0.102, 2.137e-8
-0.103, 2.143e-8
-0.104, 2.134e-8
-0.105, 2.122e-8
-0.106, 2.126e-8
-0.107, 2.123e-8
-0.108, 2.113e-8
-0.109, 2.107e-8
-0.110, 2.114e-8
-0.111, 2.103e-8
-0.112, 2.095e-8
-0.113, 2.104e-8
-0.114, 2.096e-8
-0.115, 2.085e-8
-0.116, 2.092e-8
-0.117, 2.088e-8
-0.118, 2.080e-8
-0.119, 2.080e-8
-0.120, 2.083e-8
-0.121, 2.075e-8
-0.122, 2.069e-8
-0.123, 2.076e-8
-0.124, 2.072e-8
-0.125, 2.061e-8
-0.126, 2.068e-8
-0.127, 2.070e-8
-0.128, 2.060e-8
-0.129, 2.061e-8
-0.130, 2.066e-8
-0.131, 2.057e-8
-0.132, 2.056e-8
-0.133, 2.061e-8
-0.134, 2.059e-8
-0.135, 2.051e-8
-0.136, 2.057e-8
-0.137, 2.059e-8
-0.138, 2.051e-8
-0.139, 2.052e-8
-0.140, 2.063e-8
-0.141, 2.053e-8
-0.142, 2.049e-8
-0.143, 2.061e-8
-0.144, 2.057e-8
-0.145, 2.051e-8
-0.146, 2.059e-8
-0.147, 2.060e-8
-0.148, 2.056e-8
-0.149, 2.057e-8
-0.150, 2.065e-8
-0.151, 2.061e-8
-0.152, 2.057e-8
-0.153, 2.070e-8
-0.154, 2.068e-8
-0.155, 2.061e-8
-0.156, 2.073e-8
-0.157, 2.075e-8
-0.158, 2.068e-8
-0.159, 2.073e-8
-0.160, 2.081e-8
-0.161, 2.079e-8
-0.162, 2.076e-8
-0.163, 2.088e-8
-0.164, 2.090e-8
-0.165, 2.082e-8
-0.166, 2.095e-8
-0.167, 2.100e-8
-0.168, 2.093e-8
-0.169, 2.100e-8
-0.170, 2.110e-8
-0.171, 2.106e-8
-0.172, 2.108e-8
-0.173, 2.120e-8
-0.174, 2.120e-8
-0.175, 2.118e-8
-0.176, 2.127e-8
-0.177, 2.137e-8
-0.178, 2.131e-8
-0.179, 2.138e-8
-0.180, 2.151e-8
-0.181, 2.147e-8
-0.182, 2.148e-8
-0.183, 2.164e-8
-0.184, 2.164e-8
-0.185, 2.163e-8
-0.186, 2.175e-8
-0.187, 2.181e-8
-0.188, 2.181e-8
-0.189, 2.187e-8
-0.190, 2.200e-8
-0.191, 2.200e-8
-0.192, 2.201e-8
-0.193, 2.220e-8
-0.194, 2.221e-8
-0.195, 2.218e-8
-0.196, 2.236e-8
-0.197, 2.242e-8
-0.198, 2.240e-8
-0.199, 2.251e-8
