Mar. 16, 2023   09:51:27
Cyclic Voltammetry
File: c:/users/oliverrz/desktop/electrolab/data/2023_03_16\fcmeoh_macros_750_um\electrode7_cv_200mvs_750_um.bin
Data Source:  Experiment
Instrument Model:  CHI760E
Header: CV
Note: 

Init E (V) = -0.2
High E (V) = 0.3
Low E (V) = -0.2
Final E (V) = -0.2
Init P/N = P
Scan Rate (V/s) = 0.2
Segment = 3
Sample Interval (V) = 0.001
Quiet Time (sec) = 2
Sensitivity (A/V) = 1e-7

Results:

Channel 1:
Segment 1:
Ep = 0.109V
ip = -6.971e-8A
Ah = -2.138e-8C

Segment 2:
Ep = 0.050V
ip = 6.360e-8A
Ah = 1.921e-8C

Segment 3:

Potential/V, Current/A

-0.200, 2.600e-9
-0.199, 2.015e-9
-0.198, 1.737e-9
-0.197, 1.880e-9
-0.196, 1.908e-9
-0.195, 1.657e-9
-0.194, 1.677e-9
-0.193, 1.830e-9
-0.192, 1.636e-9
-0.191, 1.517e-9
-0.190, 1.720e-9
-0.189, 1.647e-9
-0.188, 1.413e-9
-0.187, 1.573e-9
-0.186, 1.641e-9
-0.185, 1.374e-9
-0.184, 1.420e-9
-0.183, 1.590e-9
-0.182, 1.388e-9
-0.181, 1.281e-9
-0.180, 1.496e-9
-0.179, 1.412e-9
-0.178, 1.208e-9
-0.177, 1.353e-9
-0.176, 1.433e-9
-0.175, 1.183e-9
-0.174, 1.211e-9
-0.173, 1.398e-9
-0.172, 1.199e-9
-0.171, 1.083e-9
-0.170, 1.322e-9
-0.169, 1.229e-9
-0.168, 1.028e-9
-0.167, 1.185e-9
-0.166, 1.247e-9
-0.165, 1.007e-9
-0.164, 1.041e-9
-0.163, 1.226e-9
-0.162, 1.042e-9
-0.161, 9.189e-10
-0.160, 1.155e-9
-0.159, 1.080e-9
-0.158, 8.550e-10
-0.157, 1.035e-9
-0.156, 1.095e-9
-0.155, 8.507e-10
-0.154, 8.946e-10
-0.153, 1.066e-9
-0.152, 8.871e-10
-0.151, 7.784e-10
-0.150, 9.996e-10
-0.149, 9.371e-10
-0.148, 7.117e-10
-0.147, 8.837e-10
-0.146, 9.583e-10
-0.145, 7.062e-10
-0.144, 7.584e-10
-0.143, 9.421e-10
-0.142, 7.423e-10
-0.141, 6.411e-10
-0.140, 8.677e-10
-0.139, 7.964e-10
-0.138, 5.890e-10
-0.137, 7.417e-10
-0.136, 8.319e-10
-0.135, 5.788e-10
-0.134, 6.140e-10
-0.133, 8.175e-10
-0.132, 6.148e-10
-0.131, 5.107e-10
-0.130, 7.493e-10
-0.129, 6.635e-10
-0.128, 4.553e-10
-0.127, 6.271e-10
-0.126, 6.941e-10
-0.125, 4.555e-10
-0.124, 4.932e-10
-0.123, 6.863e-10
-0.122, 4.999e-10
-0.121, 3.835e-10
-0.120, 6.247e-10
-0.119, 5.492e-10
-0.118, 3.247e-10
-0.117, 5.085e-10
-0.116, 5.627e-10
-0.115, 3.319e-10
-0.114, 3.809e-10
-0.113, 5.463e-10
-0.112, 3.803e-10
-0.111, 2.676e-10
-0.110, 4.896e-10
-0.109, 4.244e-10
-0.108, 2.019e-10
-0.107, 3.782e-10
-0.106, 4.573e-10
-0.105, 1.950e-10
-0.104, 2.562e-10
-0.103, 4.273e-10
-0.102, 2.417e-10
-0.101, 1.357e-10
-0.100, 3.596e-10
-0.099, 2.904e-10
-0.098, 7.986e-11
-0.097, 2.318e-10
-0.096, 3.242e-10
-0.095, 6.982e-11
-0.094, 1.077e-10
-0.093, 2.923e-10
-0.092, 1.029e-10
-0.091, -7.462e-12
-0.090, 2.216e-10
-0.089, 1.285e-10
-0.088, -6.171e-11
-0.087, 9.069e-11
-0.086, 1.530e-10
-0.085, -8.406e-11
-0.084, -4.399e-11
-0.083, 1.273e-10
-0.082, -5.423e-11
-0.081, -1.825e-10
-0.080, 5.564e-11
-0.079, -2.883e-11
-0.078, -2.480e-10
-0.077, -8.829e-11
-0.076, -3.198e-11
-0.075, -2.728e-10
-0.074, -2.325e-10
-0.073, -7.608e-11
-0.072, -2.549e-10
-0.071, -3.778e-10
-0.070, -1.679e-10
-0.069, -2.492e-10
-0.068, -4.714e-10
-0.067, -3.163e-10
-0.066, -2.525e-10
-0.065, -5.239e-10
-0.064, -4.823e-10
-0.063, -3.219e-10
-0.062, -5.308e-10
-0.061, -6.451e-10
-0.060, -4.437e-10
-0.059, -5.360e-10
-0.058, -7.568e-10
-0.057, -6.263e-10
-0.056, -5.637e-10
-0.055, -8.327e-10
-0.054, -8.211e-10
-0.053, -6.618e-10
-0.052, -8.797e-10
-0.051, -1.019e-9
-0.050, -8.111e-10
-0.049, -9.252e-10
-0.048, -1.158e-9
-0.047, -1.029e-9
-0.046, -9.985e-10
-0.045, -1.265e-9
-0.044, -1.271e-9
-0.043, -1.128e-9
-0.042, -1.352e-9
-0.041, -1.521e-9
-0.040, -1.318e-9
-0.039, -1.450e-9
-0.038, -1.720e-9
-0.037, -1.597e-9
-0.036, -1.587e-9
-0.035, -1.885e-9
-0.034, -1.896e-9
-0.033, -1.792e-9
-0.032, -2.023e-9
-0.031, -2.214e-9
-0.030, -2.054e-9
-0.029, -2.206e-9
-0.028, -2.488e-9
-0.027, -2.400e-9
-0.026, -2.418e-9
-0.025, -2.757e-9
-0.024, -2.790e-9
-0.023, -2.707e-9
-0.022, -3.003e-9
-0.021, -3.192e-9
-0.020, -3.093e-9
-0.019, -3.270e-9
-0.018, -3.582e-9
-0.017, -3.555e-9
-0.016, -3.590e-9
-0.015, -3.965e-9
-0.014, -4.062e-9
-0.013, -4.023e-9
-0.012, -4.355e-9
-0.011, -4.612e-9
-0.010, -4.534e-9
-0.009, -4.791e-9
-0.008, -5.139e-9
-0.007, -5.177e-9
-0.006, -5.284e-9
-0.005, -5.709e-9
-0.004, -5.877e-9
-0.003, -5.885e-9
-0.002, -6.274e-9
-0.001, -6.626e-9
-0.000, -6.704e-9
0.001, -6.972e-9
0.002, -7.410e-9
0.003, -7.492e-9
0.004, -7.694e-9
0.005, -8.189e-9
0.006, -8.421e-9
0.007, -8.559e-9
0.008, -9.022e-9
0.009, -9.442e-9
0.010, -9.548e-9
0.011, -9.946e-9
0.012, -1.050e-8
0.013, -1.069e-8
0.014, -1.099e-8
0.015, -1.161e-8
0.016, -1.194e-8
0.017, -1.218e-8
0.018, -1.278e-8
0.019, -1.329e-8
0.020, -1.354e-8
0.021, -1.406e-8
0.022, -1.471e-8
0.023, -1.506e-8
0.024, -1.549e-8
0.025, -1.623e-8
0.026, -1.672e-8
0.027, -1.709e-8
0.028, -1.783e-8
0.029, -1.847e-8
0.030, -1.885e-8
0.031, -1.956e-8
0.032, -2.031e-8
0.033, -2.083e-8
0.034, -2.141e-8
0.035, -2.226e-8
0.036, -2.291e-8
0.037, -2.345e-8
0.038, -2.432e-8
0.039, -2.516e-8
0.040, -2.564e-8
0.041, -2.651e-8
0.042, -2.741e-8
0.043, -2.806e-8
0.044, -2.883e-8
0.045, -2.979e-8
0.046, -3.059e-8
0.047, -3.129e-8
0.048, -3.227e-8
0.049, -3.323e-8
0.050, -3.388e-8
0.051, -3.487e-8
0.052, -3.592e-8
0.053, -3.666e-8
0.054, -3.751e-8
0.055, -3.865e-8
0.056, -3.949e-8
0.057, -4.026e-8
0.058, -4.137e-8
0.059, -4.235e-8
0.060, -4.313e-8
0.061, -4.410e-8
0.062, -4.519e-8
0.063, -4.605e-8
0.064, -4.689e-8
0.065, -4.805e-8
0.066, -4.893e-8
0.067, -4.967e-8
0.068, -5.081e-8
0.069, -5.172e-8
0.070, -5.243e-8
0.071, -5.344e-8
0.072, -5.442e-8
0.073, -5.520e-8
0.074, -5.599e-8
0.075, -5.696e-8
0.076, -5.782e-8
0.077, -5.845e-8
0.078, -5.940e-8
0.079, -6.028e-8
0.080, -6.074e-8
0.081, -6.162e-8
0.082, -6.246e-8
0.083, -6.299e-8
0.084, -6.365e-8
0.085, -6.443e-8
0.086, -6.500e-8
0.087, -6.547e-8
0.088, -6.615e-8
0.089, -6.680e-8
0.090, -6.710e-8
0.091, -6.765e-8
0.092, -6.826e-8
0.093, -6.853e-8
0.094, -6.889e-8
0.095, -6.946e-8
0.096, -6.971e-8
0.097, -6.992e-8
0.098, -7.038e-8
0.099, -7.070e-8
0.100, -7.074e-8
0.101, -7.103e-8
0.102, -7.141e-8
0.103, -7.144e-8
0.104, -7.149e-8
0.105, -7.179e-8
0.106, -7.185e-8
0.107, -7.173e-8
0.108, -7.194e-8
0.109, -7.200e-8
0.110, -7.179e-8
0.111, -7.191e-8
0.112, -7.196e-8
0.113, -7.176e-8
0.114, -7.163e-8
0.115, -7.170e-8
0.116, -7.157e-8
0.117, -7.124e-8
0.118, -7.124e-8
0.119, -7.118e-8
0.120, -7.075e-8
0.121, -7.065e-8
0.122, -7.062e-8
0.123, -7.022e-8
0.124, -6.994e-8
0.125, -6.988e-8
0.126, -6.959e-8
0.127, -6.917e-8
0.128, -6.906e-8
0.129, -6.887e-8
0.130, -6.838e-8
0.131, -6.812e-8
0.132, -6.803e-8
0.133, -6.755e-8
0.134, -6.716e-8
0.135, -6.708e-8
0.136, -6.668e-8
0.137, -6.621e-8
0.138, -6.606e-8
0.139, -6.580e-8
0.140, -6.526e-8
0.141, -6.500e-8
0.142, -6.484e-8
0.143, -6.435e-8
0.144, -6.393e-8
0.145, -6.382e-8
0.146, -6.343e-8
0.147, -6.289e-8
0.148, -6.276e-8
0.149, -6.251e-8
0.150, -6.192e-8
0.151, -6.168e-8
0.152, -6.150e-8
0.153, -6.103e-8
0.154, -6.063e-8
0.155, -6.051e-8
0.156, -6.015e-8
0.157, -5.964e-8
0.158, -5.949e-8
0.159, -5.928e-8
0.160, -5.871e-8
0.161, -5.847e-8
0.162, -5.836e-8
0.163, -5.788e-8
0.164, -5.751e-8
0.165, -5.742e-8
0.166, -5.707e-8
0.167, -5.662e-8
0.168, -5.648e-8
0.169, -5.629e-8
0.170, -5.578e-8
0.171, -5.555e-8
0.172, -5.547e-8
0.173, -5.502e-8
0.174, -5.466e-8
0.175, -5.464e-8
0.176, -5.430e-8
0.177, -5.386e-8
0.178, -5.377e-8
0.179, -5.361e-8
0.180, -5.314e-8
0.181, -5.294e-8
0.182, -5.289e-8
0.183, -5.250e-8
0.184, -5.216e-8
0.185, -5.216e-8
0.186, -5.188e-8
0.187, -5.146e-8
0.188, -5.141e-8
0.189, -5.127e-8
0.190, -5.083e-8
0.191, -5.068e-8
0.192, -5.067e-8
0.193, -5.029e-8
0.194, -4.999e-8
0.195, -5.002e-8
0.196, -4.977e-8
0.197, -4.938e-8
0.198, -4.935e-8
0.199, -4.928e-8
0.200, -4.883e-8
0.201, -4.872e-8
0.202, -4.874e-8
0.203, -4.838e-8
0.204, -4.812e-8
0.205, -4.818e-8
0.206, -4.795e-8
0.207, -4.760e-8
0.208, -4.759e-8
0.209, -4.752e-8
0.210, -4.713e-8
0.211, -4.702e-8
0.212, -4.707e-8
0.213, -4.673e-8
0.214, -4.648e-8
0.215, -4.658e-8
0.216, -4.636e-8
0.217, -4.603e-8
0.218, -4.606e-8
0.219, -4.600e-8
0.220, -4.563e-8
0.221, -4.555e-8
0.222, -4.561e-8
0.223, -4.531e-8
0.224, -4.508e-8
0.225, -4.518e-8
0.226, -4.501e-8
0.227, -4.469e-8
0.228, -4.473e-8
0.229, -4.470e-8
0.230, -4.435e-8
0.231, -4.430e-8
0.232, -4.437e-8
0.233, -4.407e-8
0.234, -4.388e-8
0.235, -4.399e-8
0.236, -4.383e-8
0.237, -4.352e-8
0.238, -4.358e-8
0.239, -4.359e-8
0.240, -4.323e-8
0.241, -4.319e-8
0.242, -4.329e-8
0.243, -4.301e-8
0.244, -4.283e-8
0.245, -4.296e-8
0.246, -4.280e-8
0.247, -4.252e-8
0.248, -4.259e-8
0.249, -4.260e-8
0.250, -4.228e-8
0.251, -4.223e-8
0.252, -4.236e-8
0.253, -4.208e-8
0.254, -4.191e-8
0.255, -4.206e-8
0.256, -4.192e-8
0.257, -4.165e-8
0.258, -4.174e-8
0.259, -4.175e-8
0.260, -4.143e-8
0.261, -4.141e-8
0.262, -4.151e-8
0.263, -4.129e-8
0.264, -4.110e-8
0.265, -4.126e-8
0.266, -4.115e-8
0.267, -4.087e-8
0.268, -4.099e-8
0.269, -4.100e-8
0.270, -4.068e-8
0.271, -4.069e-8
0.272, -4.081e-8
0.273, -4.057e-8
0.274, -4.042e-8
0.275, -4.058e-8
0.276, -4.047e-8
0.277, -4.021e-8
0.278, -4.032e-8
0.279, -4.036e-8
0.280, -4.005e-8
0.281, -4.006e-8
0.282, -4.020e-8
0.283, -3.996e-8
0.284, -3.982e-8
0.285, -3.999e-8
0.286, -3.988e-8
0.287, -3.964e-8
0.288, -3.975e-8
0.289, -3.980e-8
0.290, -3.951e-8
0.291, -3.951e-8
0.292, -3.967e-8
0.293, -3.944e-8
0.294, -3.931e-8
0.295, -3.950e-8
0.296, -3.938e-8
0.297, -3.914e-8
0.298, -3.928e-8
0.299, -3.932e-8
0.300, -3.738e-8
0.299, -3.618e-8
0.298, -3.612e-8
0.297, -3.572e-8
0.296, -3.548e-8
0.295, -3.552e-8
0.294, -3.533e-8
0.293, -3.500e-8
0.292, -3.503e-8
0.291, -3.501e-8
0.290, -3.466e-8
0.289, -3.458e-8
0.288, -3.469e-8
0.287, -3.439e-8
0.286, -3.420e-8
0.285, -3.433e-8
0.284, -3.416e-8
0.283, -3.388e-8
0.282, -3.395e-8
0.281, -3.395e-8
0.280, -3.363e-8
0.279, -3.360e-8
0.278, -3.371e-8
0.277, -3.345e-8
0.276, -3.327e-8
0.275, -3.342e-8
0.274, -3.329e-8
0.273, -3.299e-8
0.272, -3.311e-8
0.271, -3.311e-8
0.270, -3.280e-8
0.269, -3.278e-8
0.268, -3.290e-8
0.267, -3.265e-8
0.266, -3.250e-8
0.265, -3.264e-8
0.264, -3.253e-8
0.263, -3.225e-8
0.262, -3.236e-8
0.261, -3.238e-8
0.260, -3.207e-8
0.259, -3.207e-8
0.258, -3.220e-8
0.257, -3.194e-8
0.256, -3.179e-8
0.255, -3.195e-8
0.254, -3.184e-8
0.253, -3.157e-8
0.252, -3.167e-8
0.251, -3.171e-8
0.250, -3.140e-8
0.249, -3.139e-8
0.248, -3.153e-8
0.247, -3.127e-8
0.246, -3.113e-8
0.245, -3.130e-8
0.244, -3.117e-8
0.243, -3.091e-8
0.242, -3.103e-8
0.241, -3.104e-8
0.240, -3.076e-8
0.239, -3.073e-8
0.238, -3.089e-8
0.237, -3.063e-8
0.236, -3.048e-8
0.235, -3.065e-8
0.234, -3.054e-8
0.233, -3.026e-8
0.232, -3.038e-8
0.231, -3.039e-8
0.230, -3.011e-8
0.229, -3.010e-8
0.228, -3.022e-8
0.227, -2.999e-8
0.226, -2.984e-8
0.225, -2.998e-8
0.224, -2.988e-8
0.223, -2.960e-8
0.222, -2.973e-8
0.221, -2.974e-8
0.220, -2.943e-8
0.219, -2.943e-8
0.218, -2.956e-8
0.217, -2.929e-8
0.216, -2.916e-8
0.215, -2.929e-8
0.214, -2.918e-8
0.213, -2.891e-8
0.212, -2.900e-8
0.211, -2.903e-8
0.210, -2.872e-8
0.209, -2.868e-8
0.208, -2.882e-8
0.207, -2.853e-8
0.206, -2.838e-8
0.205, -2.851e-8
0.204, -2.838e-8
0.203, -2.810e-8
0.202, -2.820e-8
0.201, -2.818e-8
0.200, -2.787e-8
0.199, -2.781e-8
0.198, -2.793e-8
0.197, -2.765e-8
0.196, -2.746e-8
0.195, -2.759e-8
0.194, -2.744e-8
0.193, -2.712e-8
0.192, -2.721e-8
0.191, -2.716e-8
0.190, -2.683e-8
0.189, -2.677e-8
0.188, -2.685e-8
0.187, -2.654e-8
0.186, -2.635e-8
0.185, -2.643e-8
0.184, -2.626e-8
0.183, -2.591e-8
0.182, -2.596e-8
0.181, -2.590e-8
0.180, -2.552e-8
0.179, -2.542e-8
0.178, -2.548e-8
0.177, -2.512e-8
0.176, -2.490e-8
0.175, -2.493e-8
0.174, -2.473e-8
0.173, -2.434e-8
0.172, -2.432e-8
0.171, -2.424e-8
0.170, -2.381e-8
0.169, -2.365e-8
0.168, -2.365e-8
0.167, -2.325e-8
0.166, -2.296e-8
0.165, -2.295e-8
0.164, -2.266e-8
0.163, -2.223e-8
0.162, -2.216e-8
0.161, -2.198e-8
0.160, -2.150e-8
0.159, -2.129e-8
0.158, -2.120e-8
0.157, -2.074e-8
0.156, -2.036e-8
0.155, -2.029e-8
0.154, -1.991e-8
0.153, -1.939e-8
0.152, -1.925e-8
0.151, -1.898e-8
0.150, -1.842e-8
0.149, -1.810e-8
0.148, -1.791e-8
0.147, -1.737e-8
0.146, -1.691e-8
0.145, -1.668e-8
0.144, -1.624e-8
0.143, -1.560e-8
0.142, -1.535e-8
0.141, -1.494e-8
0.140, -1.425e-8
0.139, -1.384e-8
0.138, -1.353e-8
0.137, -1.283e-8
0.136, -1.227e-8
0.135, -1.191e-8
0.134, -1.134e-8
0.133, -1.058e-8
0.132, -1.016e-8
0.131, -9.655e-9
0.130, -8.819e-9
0.129, -8.246e-9
0.128, -7.807e-9
0.127, -6.936e-9
0.126, -6.249e-9
0.125, -5.755e-9
0.124, -5.002e-9
0.123, -4.125e-9
0.122, -3.567e-9
0.121, -2.881e-9
0.120, -1.947e-9
0.119, -1.203e-9
0.118, -6.067e-10
0.117, 3.431e-10
0.116, 1.248e-9
0.115, 1.856e-9
0.114, 2.759e-9
0.113, 3.785e-9
0.112, 4.442e-9
0.111, 5.291e-9
0.110, 6.337e-9
0.109, 7.172e-9
0.108, 7.934e-9
0.107, 8.998e-9
0.106, 9.962e-9
0.105, 1.073e-8
0.104, 1.167e-8
0.103, 1.285e-8
0.102, 1.360e-8
0.101, 1.447e-8
0.100, 1.567e-8
0.099, 1.650e-8
0.098, 1.729e-8
0.097, 1.844e-8
0.096, 1.939e-8
0.095, 2.020e-8
0.094, 2.115e-8
0.093, 2.226e-8
0.092, 2.307e-8
0.091, 2.390e-8
0.090, 2.504e-8
0.089, 2.590e-8
0.088, 2.662e-8
0.087, 2.767e-8
0.086, 2.854e-8
0.085, 2.924e-8
0.084, 3.016e-8
0.083, 3.113e-8
0.082, 3.176e-8
0.081, 3.253e-8
0.080, 3.347e-8
0.079, 3.418e-8
0.078, 3.473e-8
0.077, 3.563e-8
0.076, 3.637e-8
0.075, 3.681e-8
0.074, 3.749e-8
0.073, 3.830e-8
0.072, 3.869e-8
0.071, 3.923e-8
0.070, 3.993e-8
0.069, 4.036e-8
0.068, 4.076e-8
0.067, 4.131e-8
0.066, 4.180e-8
0.065, 4.205e-8
0.064, 4.241e-8
0.063, 4.300e-8
0.062, 4.310e-8
0.061, 4.335e-8
0.060, 4.384e-8
0.059, 4.397e-8
0.058, 4.403e-8
0.057, 4.441e-8
0.056, 4.458e-8
0.055, 4.459e-8
0.054, 4.470e-8
0.053, 4.500e-8
0.052, 4.492e-8
0.051, 4.489e-8
0.050, 4.511e-8
0.049, 4.508e-8
0.048, 4.485e-8
0.047, 4.502e-8
0.046, 4.498e-8
0.045, 4.473e-8
0.044, 4.471e-8
0.043, 4.475e-8
0.042, 4.446e-8
0.041, 4.428e-8
0.040, 4.430e-8
0.039, 4.413e-8
0.038, 4.374e-8
0.037, 4.372e-8
0.036, 4.361e-8
0.035, 4.315e-8
0.034, 4.299e-8
0.033, 4.295e-8
0.032, 4.250e-8
0.031, 4.222e-8
0.030, 4.216e-8
0.029, 4.183e-8
0.028, 4.140e-8
0.027, 4.127e-8
0.026, 4.107e-8
0.025, 4.058e-8
0.024, 4.031e-8
0.023, 4.023e-8
0.022, 3.972e-8
0.021, 3.935e-8
0.020, 3.928e-8
0.019, 3.888e-8
0.018, 3.838e-8
0.017, 3.827e-8
0.016, 3.800e-8
0.015, 3.751e-8
0.014, 3.722e-8
0.013, 3.710e-8
0.012, 3.661e-8
0.011, 3.621e-8
0.010, 3.612e-8
0.009, 3.577e-8
0.008, 3.525e-8
0.007, 3.514e-8
0.006, 3.488e-8
0.005, 3.437e-8
0.004, 3.412e-8
0.003, 3.400e-8
0.002, 3.352e-8
0.001, 3.316e-8
0.000, 3.316e-8
-0.001, 3.277e-8
-0.002, 3.226e-8
-0.003, 3.214e-8
-0.004, 3.194e-8
-0.005, 3.142e-8
-0.006, 3.118e-8
-0.007, 3.111e-8
-0.008, 3.064e-8
-0.009, 3.031e-8
-0.010, 3.025e-8
-0.011, 2.994e-8
-0.012, 2.948e-8
-0.013, 2.940e-8
-0.014, 2.922e-8
-0.015, 2.877e-8
-0.016, 2.854e-8
-0.017, 2.851e-8
-0.018, 2.808e-8
-0.019, 2.775e-8
-0.020, 2.776e-8
-0.021, 2.746e-8
-0.022, 2.703e-8
-0.023, 2.700e-8
-0.024, 2.683e-8
-0.025, 2.641e-8
-0.026, 2.624e-8
-0.027, 2.622e-8
-0.028, 2.584e-8
-0.029, 2.553e-8
-0.030, 2.556e-8
-0.031, 2.531e-8
-0.032, 2.490e-8
-0.033, 2.490e-8
-0.034, 2.477e-8
-0.035, 2.436e-8
-0.036, 2.422e-8
-0.037, 2.423e-8
-0.038, 2.387e-8
-0.039, 2.361e-8
-0.040, 2.365e-8
-0.041, 2.343e-8
-0.042, 2.305e-8
-0.043, 2.306e-8
-0.044, 2.299e-8
-0.045, 2.259e-8
-0.046, 2.248e-8
-0.047, 2.253e-8
-0.048, 2.218e-8
-0.049, 2.195e-8
-0.050, 2.202e-8
-0.051, 2.182e-8
-0.052, 2.148e-8
-0.053, 2.151e-8
-0.054, 2.144e-8
-0.055, 2.109e-8
-0.056, 2.098e-8
-0.057, 2.106e-8
-0.058, 2.073e-8
-0.059, 2.052e-8
-0.060, 2.062e-8
-0.061, 2.043e-8
-0.062, 2.011e-8
-0.063, 2.017e-8
-0.064, 2.011e-8
-0.065, 1.978e-8
-0.066, 1.971e-8
-0.067, 1.978e-8
-0.068, 1.949e-8
-0.069, 1.929e-8
-0.070, 1.941e-8
-0.071, 1.925e-8
-0.072, 1.892e-8
-0.073, 1.901e-8
-0.074, 1.897e-8
-0.075, 1.865e-8
-0.076, 1.860e-8
-0.077, 1.869e-8
-0.078, 1.841e-8
-0.079, 1.823e-8
-0.080, 1.835e-8
-0.081, 1.822e-8
-0.082, 1.791e-8
-0.083, 1.800e-8
-0.084, 1.800e-8
-0.085, 1.767e-8
-0.086, 1.763e-8
-0.087, 1.776e-8
-0.088, 1.747e-8
-0.089, 1.731e-8
-0.090, 1.745e-8
-0.091, 1.731e-8
-0.092, 1.703e-8
-0.093, 1.712e-8
-0.094, 1.712e-8
-0.095, 1.683e-8
-0.096, 1.679e-8
-0.097, 1.692e-8
-0.098, 1.666e-8
-0.099, 1.650e-8
-0.100, 1.667e-8
-0.101, 1.653e-8
-0.102, 1.625e-8
-0.103, 1.637e-8
-0.104, 1.637e-8
-0.105, 1.608e-8
-0.106, 1.605e-8
-0.107, 1.619e-8
-0.108, 1.596e-8
-0.109, 1.578e-8
-0.110, 1.595e-8
-0.111, 1.584e-8
-0.112, 1.556e-8
-0.113, 1.570e-8
-0.114, 1.571e-8
-0.115, 1.543e-8
-0.116, 1.542e-8
-0.117, 1.556e-8
-0.118, 1.531e-8
-0.119, 1.517e-8
-0.120, 1.534e-8
-0.121, 1.524e-8
-0.122, 1.497e-8
-0.123, 1.510e-8
-0.124, 1.514e-8
-0.125, 1.485e-8
-0.126, 1.485e-8
-0.127, 1.500e-8
-0.128, 1.476e-8
-0.129, 1.463e-8
-0.130, 1.481e-8
-0.131, 1.471e-8
-0.132, 1.447e-8
-0.133, 1.459e-8
-0.134, 1.462e-8
-0.135, 1.436e-8
-0.136, 1.435e-8
-0.137, 1.452e-8
-0.138, 1.428e-8
-0.139, 1.416e-8
-0.140, 1.435e-8
-0.141, 1.425e-8
-0.142, 1.400e-8
-0.143, 1.415e-8
-0.144, 1.418e-8
-0.145, 1.391e-8
-0.146, 1.392e-8
-0.147, 1.408e-8
-0.148, 1.387e-8
-0.149, 1.373e-8
-0.150, 1.393e-8
-0.151, 1.384e-8
-0.152, 1.359e-8
-0.153, 1.375e-8
-0.154, 1.379e-8
-0.155, 1.352e-8
-0.156, 1.355e-8
-0.157, 1.371e-8
-0.158, 1.349e-8
-0.159, 1.338e-8
-0.160, 1.357e-8
-0.161, 1.349e-8
-0.162, 1.324e-8
-0.163, 1.340e-8
-0.164, 1.345e-8
-0.165, 1.319e-8
-0.166, 1.321e-8
-0.167, 1.339e-8
-0.168, 1.317e-8
-0.169, 1.306e-8
-0.170, 1.326e-8
-0.171, 1.317e-8
-0.172, 1.296e-8
-0.173, 1.310e-8
-0.174, 1.315e-8
-0.175, 1.291e-8
-0.176, 1.293e-8
-0.177, 1.311e-8
-0.178, 1.290e-8
-0.179, 1.279e-8
-0.180, 1.301e-8
-0.181, 1.291e-8
-0.182, 1.268e-8
-0.183, 1.286e-8
-0.184, 1.290e-8
-0.185, 1.266e-8
-0.186, 1.269e-8
-0.187, 1.286e-8
-0.188, 1.268e-8
-0.189, 1.255e-8
-0.190, 1.277e-8
-0.191, 1.270e-8
-0.192, 1.247e-8
-0.193, 1.265e-8
-0.194, 1.269e-8
-0.195, 1.245e-8
-0.196, 1.249e-8
-0.197, 1.267e-8
-0.198, 1.247e-8
-0.199, 1.237e-8
