Mar. 16, 2023   09:49:29
Cyclic Voltammetry
File: c:/users/oliverrz/desktop/electrolab/data/2023_03_16\fcmeoh_macros_750_um\electrode6_cv_50mvs_750_um.bin
Data Source:  Experiment
Instrument Model:  CHI760E
Header: CV
Note: 

Init E (V) = -0.2
High E (V) = 0.3
Low E (V) = -0.2
Final E (V) = -0.2
Init P/N = P
Scan Rate (V/s) = 0.05
Segment = 3
Sample Interval (V) = 0.001
Quiet Time (sec) = 2
Sensitivity (A/V) = 1e-7

Results:

Channel 1:
Segment 1:
Ep = 0.113V
ip = -3.771e-8A
Ah = -4.919e-8C

Segment 2:
Ep = 0.042V
ip = 3.507e-8A
Ah = 4.499e-8C

Segment 3:

Potential/V, Current/A

-0.200, 2.175e-9
-0.199, 1.928e-9
-0.198, 1.874e-9
-0.197, 1.845e-9
-0.196, 1.815e-9
-0.195, 1.793e-9
-0.194, 1.766e-9
-0.193, 1.746e-9
-0.192, 1.727e-9
-0.191, 1.706e-9
-0.190, 1.684e-9
-0.189, 1.662e-9
-0.188, 1.643e-9
-0.187, 1.626e-9
-0.186, 1.607e-9
-0.185, 1.587e-9
-0.184, 1.566e-9
-0.183, 1.549e-9
-0.182, 1.535e-9
-0.181, 1.521e-9
-0.180, 1.500e-9
-0.179, 1.481e-9
-0.178, 1.466e-9
-0.177, 1.454e-9
-0.176, 1.440e-9
-0.175, 1.421e-9
-0.174, 1.405e-9
-0.173, 1.391e-9
-0.172, 1.377e-9
-0.171, 1.364e-9
-0.170, 1.348e-9
-0.169, 1.331e-9
-0.168, 1.319e-9
-0.167, 1.306e-9
-0.166, 1.295e-9
-0.165, 1.281e-9
-0.164, 1.265e-9
-0.163, 1.255e-9
-0.162, 1.245e-9
-0.161, 1.234e-9
-0.160, 1.222e-9
-0.159, 1.204e-9
-0.158, 1.196e-9
-0.157, 1.187e-9
-0.156, 1.176e-9
-0.155, 1.163e-9
-0.154, 1.147e-9
-0.153, 1.137e-9
-0.152, 1.129e-9
-0.151, 1.118e-9
-0.150, 1.107e-9
-0.149, 1.092e-9
-0.148, 1.082e-9
-0.147, 1.076e-9
-0.146, 1.065e-9
-0.145, 1.054e-9
-0.144, 1.041e-9
-0.143, 1.031e-9
-0.142, 1.024e-9
-0.141, 1.016e-9
-0.140, 1.003e-9
-0.139, 9.917e-10
-0.138, 9.840e-10
-0.137, 9.778e-10
-0.136, 9.702e-10
-0.135, 9.575e-10
-0.134, 9.467e-10
-0.133, 9.387e-10
-0.132, 9.318e-10
-0.131, 9.256e-10
-0.130, 9.122e-10
-0.129, 8.999e-10
-0.128, 8.919e-10
-0.127, 8.844e-10
-0.126, 8.779e-10
-0.125, 8.673e-10
-0.124, 8.551e-10
-0.123, 8.474e-10
-0.122, 8.415e-10
-0.121, 8.349e-10
-0.120, 8.242e-10
-0.119, 8.118e-10
-0.118, 8.059e-10
-0.117, 8.007e-10
-0.116, 7.920e-10
-0.115, 7.823e-10
-0.114, 7.710e-10
-0.113, 7.647e-10
-0.112, 7.607e-10
-0.111, 7.537e-10
-0.110, 7.447e-10
-0.109, 7.326e-10
-0.108, 7.247e-10
-0.107, 7.221e-10
-0.106, 7.146e-10
-0.105, 7.042e-10
-0.104, 6.926e-10
-0.103, 6.838e-10
-0.102, 6.777e-10
-0.101, 6.708e-10
-0.100, 6.595e-10
-0.099, 6.486e-10
-0.098, 6.401e-10
-0.097, 6.340e-10
-0.096, 6.272e-10
-0.095, 6.129e-10
-0.094, 6.010e-10
-0.093, 5.929e-10
-0.092, 5.843e-10
-0.091, 5.779e-10
-0.090, 5.651e-10
-0.089, 5.508e-10
-0.088, 5.434e-10
-0.087, 5.361e-10
-0.086, 5.278e-10
-0.085, 5.155e-10
-0.084, 5.016e-10
-0.083, 4.949e-10
-0.082, 4.850e-10
-0.081, 4.767e-10
-0.080, 4.646e-10
-0.079, 4.488e-10
-0.078, 4.404e-10
-0.077, 4.303e-10
-0.076, 4.195e-10
-0.075, 4.065e-10
-0.074, 3.907e-10
-0.073, 3.791e-10
-0.072, 3.691e-10
-0.071, 3.550e-10
-0.070, 3.411e-10
-0.069, 3.241e-10
-0.068, 3.086e-10
-0.067, 2.988e-10
-0.066, 2.831e-10
-0.065, 2.657e-10
-0.064, 2.472e-10
-0.063, 2.314e-10
-0.062, 2.196e-10
-0.061, 2.027e-10
-0.060, 1.821e-10
-0.059, 1.618e-10
-0.058, 1.438e-10
-0.057, 1.266e-10
-0.056, 1.094e-10
-0.055, 8.439e-11
-0.054, 6.116e-11
-0.053, 4.176e-11
-0.052, 2.197e-11
-0.051, -1.654e-12
-0.050, -2.932e-11
-0.049, -5.462e-11
-0.048, -7.677e-11
-0.047, -1.020e-10
-0.046, -1.279e-10
-0.045, -1.596e-10
-0.044, -1.919e-10
-0.043, -2.196e-10
-0.042, -2.489e-10
-0.041, -2.813e-10
-0.040, -3.173e-10
-0.039, -3.551e-10
-0.038, -3.896e-10
-0.037, -4.249e-10
-0.036, -4.638e-10
-0.035, -5.035e-10
-0.034, -5.475e-10
-0.033, -5.871e-10
-0.032, -6.274e-10
-0.031, -6.745e-10
-0.030, -7.225e-10
-0.029, -7.753e-10
-0.028, -8.265e-10
-0.027, -8.735e-10
-0.026, -9.304e-10
-0.025, -9.891e-10
-0.024, -1.048e-9
-0.023, -1.107e-9
-0.022, -1.164e-9
-0.021, -1.228e-9
-0.020, -1.300e-9
-0.019, -1.368e-9
-0.018, -1.442e-9
-0.017, -1.513e-9
-0.016, -1.587e-9
-0.015, -1.674e-9
-0.014, -1.758e-9
-0.013, -1.844e-9
-0.012, -1.930e-9
-0.011, -2.019e-9
-0.010, -2.120e-9
-0.009, -2.220e-9
-0.008, -2.319e-9
-0.007, -2.421e-9
-0.006, -2.525e-9
-0.005, -2.645e-9
-0.004, -2.764e-9
-0.003, -2.882e-9
-0.002, -3.007e-9
-0.001, -3.136e-9
-0.000, -3.301e-9
0.001, -3.443e-9
0.002, -3.566e-9
0.003, -3.710e-9
0.004, -3.859e-9
0.005, -4.017e-9
0.006, -4.190e-9
0.007, -4.351e-9
0.008, -4.525e-9
0.009, -4.705e-9
0.010, -4.888e-9
0.011, -5.088e-9
0.012, -5.283e-9
0.013, -5.484e-9
0.014, -5.697e-9
0.015, -5.916e-9
0.016, -6.139e-9
0.017, -6.372e-9
0.018, -6.601e-9
0.019, -6.847e-9
0.020, -7.103e-9
0.021, -7.370e-9
0.022, -7.638e-9
0.023, -7.907e-9
0.024, -8.189e-9
0.025, -8.485e-9
0.026, -8.788e-9
0.027, -9.093e-9
0.028, -9.401e-9
0.029, -9.714e-9
0.030, -1.005e-8
0.031, -1.039e-8
0.032, -1.073e-8
0.033, -1.109e-8
0.034, -1.144e-8
0.035, -1.181e-8
0.036, -1.219e-8
0.037, -1.257e-8
0.038, -1.297e-8
0.039, -1.337e-8
0.040, -1.378e-8
0.041, -1.421e-8
0.042, -1.462e-8
0.043, -1.505e-8
0.044, -1.550e-8
0.045, -1.594e-8
0.046, -1.640e-8
0.047, -1.685e-8
0.048, -1.731e-8
0.049, -1.779e-8
0.050, -1.826e-8
0.051, -1.875e-8
0.052, -1.923e-8
0.053, -1.971e-8
0.054, -2.021e-8
0.055, -2.070e-8
0.056, -2.120e-8
0.057, -2.171e-8
0.058, -2.219e-8
0.059, -2.271e-8
0.060, -2.322e-8
0.061, -2.372e-8
0.062, -2.424e-8
0.063, -2.474e-8
0.064, -2.524e-8
0.065, -2.575e-8
0.066, -2.625e-8
0.067, -2.675e-8
0.068, -2.724e-8
0.069, -2.771e-8
0.070, -2.821e-8
0.071, -2.868e-8
0.072, -2.915e-8
0.073, -2.962e-8
0.074, -3.006e-8
0.075, -3.052e-8
0.076, -3.096e-8
0.077, -3.140e-8
0.078, -3.183e-8
0.079, -3.224e-8
0.080, -3.263e-8
0.081, -3.303e-8
0.082, -3.340e-8
0.083, -3.377e-8
0.084, -3.412e-8
0.085, -3.447e-8
0.086, -3.481e-8
0.087, -3.511e-8
0.088, -3.541e-8
0.089, -3.571e-8
0.090, -3.599e-8
0.091, -3.626e-8
0.092, -3.651e-8
0.093, -3.673e-8
0.094, -3.696e-8
0.095, -3.718e-8
0.096, -3.737e-8
0.097, -3.755e-8
0.098, -3.771e-8
0.099, -3.788e-8
0.100, -3.802e-8
0.101, -3.815e-8
0.102, -3.828e-8
0.103, -3.839e-8
0.104, -3.848e-8
0.105, -3.857e-8
0.106, -3.863e-8
0.107, -3.869e-8
0.108, -3.874e-8
0.109, -3.877e-8
0.110, -3.881e-8
0.111, -3.883e-8
0.112, -3.883e-8
0.113, -3.883e-8
0.114, -3.882e-8
0.115, -3.881e-8
0.116, -3.879e-8
0.117, -3.874e-8
0.118, -3.870e-8
0.119, -3.864e-8
0.120, -3.859e-8
0.121, -3.853e-8
0.122, -3.845e-8
0.123, -3.838e-8
0.124, -3.830e-8
0.125, -3.820e-8
0.126, -3.812e-8
0.127, -3.802e-8
0.128, -3.792e-8
0.129, -3.783e-8
0.130, -3.772e-8
0.131, -3.761e-8
0.132, -3.750e-8
0.133, -3.737e-8
0.134, -3.726e-8
0.135, -3.714e-8
0.136, -3.702e-8
0.137, -3.689e-8
0.138, -3.676e-8
0.139, -3.663e-8
0.140, -3.651e-8
0.141, -3.638e-8
0.142, -3.625e-8
0.143, -3.611e-8
0.144, -3.598e-8
0.145, -3.586e-8
0.146, -3.572e-8
0.147, -3.559e-8
0.148, -3.545e-8
0.149, -3.532e-8
0.150, -3.519e-8
0.151, -3.506e-8
0.152, -3.493e-8
0.153, -3.480e-8
0.154, -3.466e-8
0.155, -3.453e-8
0.156, -3.440e-8
0.157, -3.427e-8
0.158, -3.415e-8
0.159, -3.402e-8
0.160, -3.390e-8
0.161, -3.378e-8
0.162, -3.365e-8
0.163, -3.353e-8
0.164, -3.341e-8
0.165, -3.328e-8
0.166, -3.317e-8
0.167, -3.304e-8
0.168, -3.292e-8
0.169, -3.281e-8
0.170, -3.269e-8
0.171, -3.258e-8
0.172, -3.247e-8
0.173, -3.236e-8
0.174, -3.225e-8
0.175, -3.214e-8
0.176, -3.203e-8
0.177, -3.193e-8
0.178, -3.182e-8
0.179, -3.172e-8
0.180, -3.163e-8
0.181, -3.153e-8
0.182, -3.143e-8
0.183, -3.133e-8
0.184, -3.123e-8
0.185, -3.114e-8
0.186, -3.105e-8
0.187, -3.095e-8
0.188, -3.086e-8
0.189, -3.076e-8
0.190, -3.068e-8
0.191, -3.060e-8
0.192, -3.051e-8
0.193, -3.042e-8
0.194, -3.033e-8
0.195, -3.026e-8
0.196, -3.018e-8
0.197, -3.010e-8
0.198, -3.002e-8
0.199, -2.994e-8
0.200, -2.987e-8
0.201, -2.980e-8
0.202, -2.972e-8
0.203, -2.964e-8
0.204, -2.957e-8
0.205, -2.951e-8
0.206, -2.944e-8
0.207, -2.937e-8
0.208, -2.930e-8
0.209, -2.923e-8
0.210, -2.916e-8
0.211, -2.910e-8
0.212, -2.904e-8
0.213, -2.897e-8
0.214, -2.891e-8
0.215, -2.885e-8
0.216, -2.879e-8
0.217, -2.874e-8
0.218, -2.867e-8
0.219, -2.862e-8
0.220, -2.857e-8
0.221, -2.851e-8
0.222, -2.846e-8
0.223, -2.840e-8
0.224, -2.835e-8
0.225, -2.830e-8
0.226, -2.825e-8
0.227, -2.820e-8
0.228, -2.814e-8
0.229, -2.809e-8
0.230, -2.805e-8
0.231, -2.800e-8
0.232, -2.795e-8
0.233, -2.790e-8
0.234, -2.786e-8
0.235, -2.782e-8
0.236, -2.778e-8
0.237, -2.773e-8
0.238, -2.768e-8
0.239, -2.764e-8
0.240, -2.760e-8
0.241, -2.757e-8
0.242, -2.752e-8
0.243, -2.748e-8
0.244, -2.744e-8
0.245, -2.740e-8
0.246, -2.737e-8
0.247, -2.733e-8
0.248, -2.729e-8
0.249, -2.725e-8
0.250, -2.722e-8
0.251, -2.719e-8
0.252, -2.715e-8
0.253, -2.711e-8
0.254, -2.708e-8
0.255, -2.705e-8
0.256, -2.702e-8
0.257, -2.698e-8
0.258, -2.695e-8
0.259, -2.692e-8
0.260, -2.689e-8
0.261, -2.686e-8
0.262, -2.682e-8
0.263, -2.679e-8
0.264, -2.676e-8
0.265, -2.674e-8
0.266, -2.671e-8
0.267, -2.668e-8
0.268, -2.665e-8
0.269, -2.662e-8
0.270, -2.660e-8
0.271, -2.657e-8
0.272, -2.654e-8
0.273, -2.652e-8
0.274, -2.649e-8
0.275, -2.647e-8
0.276, -2.645e-8
0.277, -2.642e-8
0.278, -2.640e-8
0.279, -2.637e-8
0.280, -2.635e-8
0.281, -2.633e-8
0.282, -2.630e-8
0.283, -2.628e-8
0.284, -2.626e-8
0.285, -2.624e-8
0.286, -2.623e-8
0.287, -2.620e-8
0.288, -2.618e-8
0.289, -2.616e-8
0.290, -2.614e-8
0.291, -2.612e-8
0.292, -2.610e-8
0.293, -2.608e-8
0.294, -2.606e-8
0.295, -2.605e-8
0.296, -2.603e-8
0.297, -2.601e-8
0.298, -2.598e-8
0.299, -2.597e-8
0.300, -2.576e-8
0.299, -2.520e-8
0.298, -2.502e-8
0.297, -2.492e-8
0.296, -2.483e-8
0.295, -2.475e-8
0.294, -2.468e-8
0.293, -2.461e-8
0.292, -2.454e-8
0.291, -2.448e-8
0.290, -2.442e-8
0.289, -2.437e-8
0.288, -2.432e-8
0.287, -2.426e-8
0.286, -2.421e-8
0.285, -2.417e-8
0.284, -2.413e-8
0.283, -2.408e-8
0.282, -2.403e-8
0.281, -2.398e-8
0.280, -2.394e-8
0.279, -2.390e-8
0.278, -2.386e-8
0.277, -2.382e-8
0.276, -2.378e-8
0.275, -2.374e-8
0.274, -2.370e-8
0.273, -2.366e-8
0.272, -2.363e-8
0.271, -2.359e-8
0.270, -2.356e-8
0.269, -2.352e-8
0.268, -2.348e-8
0.267, -2.345e-8
0.266, -2.341e-8
0.265, -2.338e-8
0.264, -2.335e-8
0.263, -2.331e-8
0.262, -2.328e-8
0.261, -2.324e-8
0.260, -2.321e-8
0.259, -2.319e-8
0.258, -2.315e-8
0.257, -2.312e-8
0.256, -2.309e-8
0.255, -2.306e-8
0.254, -2.303e-8
0.253, -2.299e-8
0.252, -2.296e-8
0.251, -2.293e-8
0.250, -2.290e-8
0.249, -2.287e-8
0.248, -2.284e-8
0.247, -2.281e-8
0.246, -2.279e-8
0.245, -2.276e-8
0.244, -2.273e-8
0.243, -2.270e-8
0.242, -2.266e-8
0.241, -2.264e-8
0.240, -2.261e-8
0.239, -2.258e-8
0.238, -2.256e-8
0.237, -2.252e-8
0.236, -2.249e-8
0.235, -2.247e-8
0.234, -2.244e-8
0.233, -2.241e-8
0.232, -2.238e-8
0.231, -2.235e-8
0.230, -2.232e-8
0.229, -2.229e-8
0.228, -2.226e-8
0.227, -2.223e-8
0.226, -2.220e-8
0.225, -2.217e-8
0.224, -2.214e-8
0.223, -2.210e-8
0.222, -2.207e-8
0.221, -2.204e-8
0.220, -2.201e-8
0.219, -2.198e-8
0.218, -2.194e-8
0.217, -2.191e-8
0.216, -2.188e-8
0.215, -2.184e-8
0.214, -2.181e-8
0.213, -2.178e-8
0.212, -2.174e-8
0.211, -2.170e-8
0.210, -2.167e-8
0.209, -2.164e-8
0.208, -2.160e-8
0.207, -2.156e-8
0.206, -2.153e-8
0.205, -2.149e-8
0.204, -2.145e-8
0.203, -2.140e-8
0.202, -2.136e-8
0.201, -2.132e-8
0.200, -2.128e-8
0.199, -2.124e-8
0.198, -2.119e-8
0.197, -2.114e-8
0.196, -2.109e-8
0.195, -2.105e-8
0.194, -2.100e-8
0.193, -2.096e-8
0.192, -2.090e-8
0.191, -2.085e-8
0.190, -2.080e-8
0.189, -2.074e-8
0.188, -2.069e-8
0.187, -2.063e-8
0.186, -2.057e-8
0.185, -2.052e-8
0.184, -2.046e-8
0.183, -2.039e-8
0.182, -2.032e-8
0.181, -2.026e-8
0.180, -2.019e-8
0.179, -2.012e-8
0.178, -2.004e-8
0.177, -1.998e-8
0.176, -1.990e-8
0.175, -1.982e-8
0.174, -1.974e-8
0.173, -1.966e-8
0.172, -1.957e-8
0.171, -1.949e-8
0.170, -1.940e-8
0.169, -1.931e-8
0.168, -1.921e-8
0.167, -1.911e-8
0.166, -1.901e-8
0.165, -1.890e-8
0.164, -1.880e-8
0.163, -1.869e-8
0.162, -1.857e-8
0.161, -1.845e-8
0.160, -1.833e-8
0.159, -1.821e-8
0.158, -1.807e-8
0.157, -1.793e-8
0.156, -1.780e-8
0.155, -1.766e-8
0.154, -1.750e-8
0.153, -1.735e-8
0.152, -1.719e-8
0.151, -1.703e-8
0.150, -1.687e-8
0.149, -1.670e-8
0.148, -1.652e-8
0.147, -1.634e-8
0.146, -1.615e-8
0.145, -1.596e-8
0.144, -1.576e-8
0.143, -1.555e-8
0.142, -1.534e-8
0.141, -1.512e-8
0.140, -1.489e-8
0.139, -1.467e-8
0.138, -1.442e-8
0.137, -1.418e-8
0.136, -1.393e-8
0.135, -1.367e-8
0.134, -1.341e-8
0.133, -1.314e-8
0.132, -1.286e-8
0.131, -1.257e-8
0.130, -1.228e-8
0.129, -1.198e-8
0.128, -1.166e-8
0.127, -1.134e-8
0.126, -1.103e-8
0.125, -1.069e-8
0.124, -1.036e-8
0.123, -1.001e-8
0.122, -9.642e-9
0.121, -9.291e-9
0.120, -8.919e-9
0.119, -8.539e-9
0.118, -8.149e-9
0.117, -7.748e-9
0.116, -7.345e-9
0.115, -6.928e-9
0.114, -6.503e-9
0.113, -6.086e-9
0.112, -5.649e-9
0.111, -5.214e-9
0.110, -4.774e-9
0.109, -4.315e-9
0.108, -3.859e-9
0.107, -3.395e-9
0.106, -2.923e-9
0.105, -2.462e-9
0.104, -1.976e-9
0.103, -1.484e-9
0.102, -9.893e-10
0.101, -4.919e-10
0.100, -1.573e-11
0.099, 4.871e-10
0.098, 1.007e-9
0.097, 1.500e-9
0.096, 2.004e-9
0.095, 2.507e-9
0.094, 3.007e-9
0.093, 3.525e-9
0.092, 4.016e-9
0.091, 4.516e-9
0.090, 5.023e-9
0.089, 5.524e-9
0.088, 6.030e-9
0.087, 6.527e-9
0.086, 6.998e-9
0.085, 7.484e-9
0.084, 7.951e-9
0.083, 8.419e-9
0.082, 8.906e-9
0.081, 9.351e-9
0.080, 9.804e-9
0.079, 1.024e-8
0.078, 1.067e-8
0.077, 1.112e-8
0.076, 1.153e-8
0.075, 1.192e-8
0.074, 1.231e-8
0.073, 1.268e-8
0.072, 1.307e-8
0.071, 1.343e-8
0.070, 1.375e-8
0.069, 1.409e-8
0.068, 1.442e-8
0.067, 1.472e-8
0.066, 1.502e-8
0.065, 1.530e-8
0.064, 1.558e-8
0.063, 1.584e-8
0.062, 1.608e-8
0.061, 1.632e-8
0.060, 1.652e-8
0.059, 1.673e-8
0.058, 1.693e-8
0.057, 1.709e-8
0.056, 1.726e-8
0.055, 1.742e-8
0.054, 1.754e-8
0.053, 1.768e-8
0.052, 1.780e-8
0.051, 1.791e-8
0.050, 1.800e-8
0.049, 1.807e-8
0.048, 1.814e-8
0.047, 1.820e-8
0.046, 1.823e-8
0.045, 1.827e-8
0.044, 1.830e-8
0.043, 1.832e-8
0.042, 1.833e-8
0.041, 1.832e-8
0.040, 1.831e-8
0.039, 1.830e-8
0.038, 1.828e-8
0.037, 1.825e-8
0.036, 1.821e-8
0.035, 1.816e-8
0.034, 1.811e-8
0.033, 1.805e-8
0.032, 1.799e-8
0.031, 1.792e-8
0.030, 1.784e-8
0.029, 1.776e-8
0.028, 1.767e-8
0.027, 1.759e-8
0.026, 1.750e-8
0.025, 1.740e-8
0.024, 1.730e-8
0.023, 1.720e-8
0.022, 1.709e-8
0.021, 1.699e-8
0.020, 1.688e-8
0.019, 1.677e-8
0.018, 1.666e-8
0.017, 1.654e-8
0.016, 1.641e-8
0.015, 1.628e-8
0.014, 1.616e-8
0.013, 1.604e-8
0.012, 1.592e-8
0.011, 1.579e-8
0.010, 1.567e-8
0.009, 1.554e-8
0.008, 1.542e-8
0.007, 1.530e-8
0.006, 1.516e-8
0.005, 1.504e-8
0.004, 1.492e-8
0.003, 1.480e-8
0.002, 1.468e-8
0.001, 1.456e-8
0.000, 1.446e-8
-0.001, 1.434e-8
-0.002, 1.420e-8
-0.003, 1.408e-8
-0.004, 1.395e-8
-0.005, 1.383e-8
-0.006, 1.371e-8
-0.007, 1.360e-8
-0.008, 1.349e-8
-0.009, 1.337e-8
-0.010, 1.325e-8
-0.011, 1.314e-8
-0.012, 1.303e-8
-0.013, 1.293e-8
-0.014, 1.282e-8
-0.015, 1.270e-8
-0.016, 1.260e-8
-0.017, 1.249e-8
-0.018, 1.238e-8
-0.019, 1.229e-8
-0.020, 1.219e-8
-0.021, 1.208e-8
-0.022, 1.199e-8
-0.023, 1.189e-8
-0.024, 1.179e-8
-0.025, 1.169e-8
-0.026, 1.160e-8
-0.027, 1.151e-8
-0.028, 1.141e-8
-0.029, 1.132e-8
-0.030, 1.123e-8
-0.031, 1.114e-8
-0.032, 1.106e-8
-0.033, 1.097e-8
-0.034, 1.088e-8
-0.035, 1.080e-8
-0.036, 1.072e-8
-0.037, 1.064e-8
-0.038, 1.056e-8
-0.039, 1.048e-8
-0.040, 1.040e-8
-0.041, 1.033e-8
-0.042, 1.025e-8
-0.043, 1.018e-8
-0.044, 1.010e-8
-0.045, 1.003e-8
-0.046, 9.958e-9
-0.047, 9.890e-9
-0.048, 9.822e-9
-0.049, 9.754e-9
-0.050, 9.681e-9
-0.051, 9.617e-9
-0.052, 9.559e-9
-0.053, 9.496e-9
-0.054, 9.430e-9
-0.055, 9.363e-9
-0.056, 9.301e-9
-0.057, 9.246e-9
-0.058, 9.185e-9
-0.059, 9.126e-9
-0.060, 9.065e-9
-0.061, 9.007e-9
-0.062, 8.956e-9
-0.063, 8.900e-9
-0.064, 8.846e-9
-0.065, 8.790e-9
-0.066, 8.735e-9
-0.067, 8.686e-9
-0.068, 8.635e-9
-0.069, 8.583e-9
-0.070, 8.531e-9
-0.071, 8.479e-9
-0.072, 8.429e-9
-0.073, 8.383e-9
-0.074, 8.332e-9
-0.075, 8.287e-9
-0.076, 8.243e-9
-0.077, 8.202e-9
-0.078, 8.160e-9
-0.079, 8.113e-9
-0.080, 8.066e-9
-0.081, 8.027e-9
-0.082, 7.986e-9
-0.083, 7.948e-9
-0.084, 7.905e-9
-0.085, 7.862e-9
-0.086, 7.823e-9
-0.087, 7.786e-9
-0.088, 7.751e-9
-0.089, 7.716e-9
-0.090, 7.675e-9
-0.091, 7.640e-9
-0.092, 7.608e-9
-0.093, 7.576e-9
-0.094, 7.545e-9
-0.095, 7.508e-9
-0.096, 7.481e-9
-0.097, 7.452e-9
-0.098, 7.409e-9
-0.099, 7.370e-9
-0.100, 7.333e-9
-0.101, 7.302e-9
-0.102, 7.277e-9
-0.103, 7.247e-9
-0.104, 7.216e-9
-0.105, 7.184e-9
-0.106, 7.153e-9
-0.107, 7.128e-9
-0.108, 7.102e-9
-0.109, 7.071e-9
-0.110, 7.041e-9
-0.111, 7.014e-9
-0.112, 6.988e-9
-0.113, 6.965e-9
-0.114, 6.938e-9
-0.115, 6.911e-9
-0.116, 6.889e-9
-0.117, 6.866e-9
-0.118, 6.848e-9
-0.119, 6.821e-9
-0.120, 6.794e-9
-0.121, 6.775e-9
-0.122, 6.753e-9
-0.123, 6.734e-9
-0.124, 6.711e-9
-0.125, 6.685e-9
-0.126, 6.665e-9
-0.127, 6.644e-9
-0.128, 6.626e-9
-0.129, 6.604e-9
-0.130, 6.581e-9
-0.131, 6.565e-9
-0.132, 6.558e-9
-0.133, 6.543e-9
-0.134, 6.520e-9
-0.135, 6.495e-9
-0.136, 6.474e-9
-0.137, 6.457e-9
-0.138, 6.438e-9
-0.139, 6.420e-9
-0.140, 6.400e-9
-0.141, 6.384e-9
-0.142, 6.371e-9
-0.143, 6.355e-9
-0.144, 6.339e-9
-0.145, 6.321e-9
-0.146, 6.306e-9
-0.147, 6.295e-9
-0.148, 6.284e-9
-0.149, 6.268e-9
-0.150, 6.254e-9
-0.151, 6.242e-9
-0.152, 6.231e-9
-0.153, 6.219e-9
-0.154, 6.205e-9
-0.155, 6.189e-9
-0.156, 6.179e-9
-0.157, 6.169e-9
-0.158, 6.159e-9
-0.159, 6.145e-9
-0.160, 6.134e-9
-0.161, 6.132e-9
-0.162, 6.121e-9
-0.163, 6.110e-9
-0.164, 6.095e-9
-0.165, 6.078e-9
-0.166, 6.072e-9
-0.167, 6.064e-9
-0.168, 6.057e-9
-0.169, 6.048e-9
-0.170, 6.033e-9
-0.171, 6.028e-9
-0.172, 6.023e-9
-0.173, 6.015e-9
-0.174, 6.008e-9
-0.175, 5.997e-9
-0.176, 5.994e-9
-0.177, 5.992e-9
-0.178, 5.985e-9
-0.179, 5.978e-9
-0.180, 5.969e-9
-0.181, 5.965e-9
-0.182, 5.964e-9
-0.183, 5.959e-9
-0.184, 5.955e-9
-0.185, 5.950e-9
-0.186, 5.948e-9
-0.187, 5.949e-9
-0.188, 5.946e-9
-0.189, 5.938e-9
-0.190, 5.930e-9
-0.191, 5.929e-9
-0.192, 5.929e-9
-0.193, 5.929e-9
-0.194, 5.923e-9
-0.195, 5.902e-9
-0.196, 5.909e-9
-0.197, 5.922e-9
-0.198, 5.925e-9
-0.199, 5.919e-9
