Mar. 16, 2023   09:49:45
Cyclic Voltammetry
File: c:/users/oliverrz/desktop/electrolab/data/2023_03_16\fcmeoh_macros_750_um\electrode6_cv_100mvs_750_um.bin
Data Source:  Experiment
Instrument Model:  CHI760E
Header: CV
Note: 

Init E (V) = -0.2
High E (V) = 0.3
Low E (V) = -0.2
Final E (V) = -0.2
Init P/N = P
Scan Rate (V/s) = 0.1
Segment = 3
Sample Interval (V) = 0.001
Quiet Time (sec) = 2
Sensitivity (A/V) = 1e-7

Results:

Channel 1:
Segment 1:
Ep = 0.110V
ip = -5.055e-8A
Ah = -3.185e-8C

Segment 2:
Ep = 0.046V
ip = 4.672e-8A
Ah = 2.907e-8C

Segment 3:

Potential/V, Current/A

-0.200, 3.223e-9
-0.199, 2.895e-9
-0.198, 2.724e-9
-0.197, 2.741e-9
-0.196, 2.680e-9
-0.195, 2.635e-9
-0.194, 2.659e-9
-0.193, 2.561e-9
-0.192, 2.596e-9
-0.191, 2.544e-9
-0.190, 2.503e-9
-0.189, 2.541e-9
-0.188, 2.443e-9
-0.187, 2.482e-9
-0.186, 2.435e-9
-0.185, 2.394e-9
-0.184, 2.432e-9
-0.183, 2.340e-9
-0.182, 2.379e-9
-0.181, 2.337e-9
-0.180, 2.295e-9
-0.179, 2.332e-9
-0.178, 2.245e-9
-0.177, 2.286e-9
-0.176, 2.247e-9
-0.175, 2.206e-9
-0.174, 2.245e-9
-0.173, 2.158e-9
-0.172, 2.196e-9
-0.171, 2.159e-9
-0.170, 2.120e-9
-0.169, 2.163e-9
-0.168, 2.077e-9
-0.167, 2.116e-9
-0.166, 2.078e-9
-0.165, 2.043e-9
-0.164, 2.081e-9
-0.163, 1.998e-9
-0.162, 2.042e-9
-0.161, 2.000e-9
-0.160, 1.967e-9
-0.159, 2.011e-9
-0.158, 1.924e-9
-0.157, 1.971e-9
-0.156, 1.931e-9
-0.155, 1.896e-9
-0.154, 1.940e-9
-0.153, 1.849e-9
-0.152, 1.898e-9
-0.151, 1.862e-9
-0.150, 1.824e-9
-0.149, 1.873e-9
-0.148, 1.785e-9
-0.147, 1.833e-9
-0.146, 1.799e-9
-0.145, 1.760e-9
-0.144, 1.809e-9
-0.143, 1.723e-9
-0.142, 1.769e-9
-0.141, 1.737e-9
-0.140, 1.697e-9
-0.139, 1.749e-9
-0.138, 1.665e-9
-0.137, 1.707e-9
-0.136, 1.679e-9
-0.135, 1.638e-9
-0.134, 1.690e-9
-0.133, 1.605e-9
-0.132, 1.648e-9
-0.131, 1.619e-9
-0.130, 1.581e-9
-0.129, 1.632e-9
-0.128, 1.544e-9
-0.127, 1.591e-9
-0.126, 1.559e-9
-0.125, 1.525e-9
-0.124, 1.570e-9
-0.123, 1.492e-9
-0.122, 1.534e-9
-0.121, 1.501e-9
-0.120, 1.468e-9
-0.119, 1.517e-9
-0.118, 1.432e-9
-0.117, 1.481e-9
-0.116, 1.447e-9
-0.115, 1.411e-9
-0.114, 1.460e-9
-0.113, 1.375e-9
-0.112, 1.424e-9
-0.111, 1.394e-9
-0.110, 1.354e-9
-0.109, 1.406e-9
-0.108, 1.320e-9
-0.107, 1.368e-9
-0.106, 1.338e-9
-0.105, 1.298e-9
-0.104, 1.350e-9
-0.103, 1.262e-9
-0.102, 1.304e-9
-0.101, 1.278e-9
-0.100, 1.240e-9
-0.099, 1.291e-9
-0.098, 1.208e-9
-0.097, 1.248e-9
-0.096, 1.222e-9
-0.095, 1.181e-9
-0.094, 1.227e-9
-0.093, 1.147e-9
-0.092, 1.189e-9
-0.091, 1.159e-9
-0.090, 1.117e-9
-0.089, 1.164e-9
-0.088, 1.078e-9
-0.087, 1.120e-9
-0.086, 1.090e-9
-0.085, 1.050e-9
-0.084, 1.092e-9
-0.083, 1.010e-9
-0.082, 1.048e-9
-0.081, 1.014e-9
-0.080, 9.754e-10
-0.079, 1.019e-9
-0.078, 9.288e-10
-0.077, 9.679e-10
-0.076, 9.311e-10
-0.075, 8.880e-10
-0.074, 9.343e-10
-0.073, 8.385e-10
-0.072, 8.802e-10
-0.071, 8.415e-10
-0.070, 7.949e-10
-0.069, 8.383e-10
-0.068, 7.423e-10
-0.067, 7.808e-10
-0.066, 7.421e-10
-0.065, 6.897e-10
-0.064, 7.299e-10
-0.063, 6.345e-10
-0.062, 6.696e-10
-0.061, 6.254e-10
-0.060, 5.661e-10
-0.059, 6.088e-10
-0.058, 5.056e-10
-0.057, 5.301e-10
-0.056, 4.923e-10
-0.055, 4.292e-10
-0.054, 4.644e-10
-0.053, 3.634e-10
-0.052, 3.824e-10
-0.051, 3.330e-10
-0.050, 2.708e-10
-0.049, 2.964e-10
-0.048, 1.945e-10
-0.047, 2.079e-10
-0.046, 1.565e-10
-0.045, 8.892e-11
-0.044, 1.080e-10
-0.043, -1.851e-12
-0.042, 4.745e-12
-0.041, -5.295e-11
-0.040, -1.265e-10
-0.039, -1.137e-10
-0.038, -2.380e-10
-0.037, -2.326e-10
-0.036, -3.041e-10
-0.035, -3.863e-10
-0.034, -3.802e-10
-0.033, -5.092e-10
-0.032, -5.133e-10
-0.031, -5.931e-10
-0.030, -6.913e-10
-0.029, -6.914e-10
-0.028, -8.354e-10
-0.027, -8.529e-10
-0.026, -9.442e-10
-0.025, -1.054e-9
-0.024, -1.068e-9
-0.023, -1.218e-9
-0.022, -1.250e-9
-0.021, -1.353e-9
-0.020, -1.478e-9
-0.019, -1.506e-9
-0.018, -1.673e-9
-0.017, -1.728e-9
-0.016, -1.840e-9
-0.015, -1.985e-9
-0.014, -2.033e-9
-0.013, -2.225e-9
-0.012, -2.295e-9
-0.011, -2.427e-9
-0.010, -2.591e-9
-0.009, -2.660e-9
-0.008, -2.865e-9
-0.007, -2.964e-9
-0.006, -3.122e-9
-0.005, -3.309e-9
-0.004, -3.411e-9
-0.003, -3.628e-9
-0.002, -3.753e-9
-0.001, -3.937e-9
-0.000, -4.201e-9
0.001, -4.317e-9
0.002, -4.568e-9
0.003, -4.717e-9
0.004, -4.933e-9
0.005, -5.173e-9
0.006, -5.332e-9
0.007, -5.633e-9
0.008, -5.820e-9
0.009, -6.076e-9
0.010, -6.356e-9
0.011, -6.557e-9
0.012, -6.895e-9
0.013, -7.127e-9
0.014, -7.424e-9
0.015, -7.759e-9
0.016, -7.990e-9
0.017, -8.381e-9
0.018, -8.649e-9
0.019, -8.985e-9
0.020, -9.370e-9
0.021, -9.650e-9
0.022, -1.008e-8
0.023, -1.041e-8
0.024, -1.079e-8
0.025, -1.123e-8
0.026, -1.157e-8
0.027, -1.205e-8
0.028, -1.243e-8
0.029, -1.286e-8
0.030, -1.334e-8
0.031, -1.375e-8
0.032, -1.427e-8
0.033, -1.471e-8
0.034, -1.521e-8
0.035, -1.574e-8
0.036, -1.620e-8
0.037, -1.677e-8
0.038, -1.728e-8
0.039, -1.783e-8
0.040, -1.841e-8
0.041, -1.892e-8
0.042, -1.954e-8
0.043, -2.010e-8
0.044, -2.069e-8
0.045, -2.132e-8
0.046, -2.188e-8
0.047, -2.256e-8
0.048, -2.315e-8
0.049, -2.379e-8
0.050, -2.447e-8
0.051, -2.507e-8
0.052, -2.581e-8
0.053, -2.641e-8
0.054, -2.710e-8
0.055, -2.780e-8
0.056, -2.840e-8
0.057, -2.915e-8
0.058, -2.979e-8
0.059, -3.048e-8
0.060, -3.122e-8
0.061, -3.182e-8
0.062, -3.258e-8
0.063, -3.323e-8
0.064, -3.391e-8
0.065, -3.464e-8
0.066, -3.524e-8
0.067, -3.597e-8
0.068, -3.661e-8
0.069, -3.725e-8
0.070, -3.796e-8
0.071, -3.854e-8
0.072, -3.921e-8
0.073, -3.982e-8
0.074, -4.043e-8
0.075, -4.107e-8
0.076, -4.162e-8
0.077, -4.225e-8
0.078, -4.279e-8
0.079, -4.334e-8
0.080, -4.389e-8
0.081, -4.438e-8
0.082, -4.491e-8
0.083, -4.537e-8
0.084, -4.585e-8
0.085, -4.632e-8
0.086, -4.673e-8
0.087, -4.720e-8
0.088, -4.755e-8
0.089, -4.795e-8
0.090, -4.833e-8
0.091, -4.862e-8
0.092, -4.902e-8
0.093, -4.925e-8
0.094, -4.955e-8
0.095, -4.986e-8
0.096, -5.004e-8
0.097, -5.033e-8
0.098, -5.049e-8
0.099, -5.068e-8
0.100, -5.090e-8
0.101, -5.097e-8
0.102, -5.119e-8
0.103, -5.129e-8
0.104, -5.136e-8
0.105, -5.150e-8
0.106, -5.148e-8
0.107, -5.160e-8
0.108, -5.161e-8
0.109, -5.161e-8
0.110, -5.166e-8
0.111, -5.160e-8
0.112, -5.162e-8
0.113, -5.155e-8
0.114, -5.149e-8
0.115, -5.148e-8
0.116, -5.136e-8
0.117, -5.132e-8
0.118, -5.119e-8
0.119, -5.108e-8
0.120, -5.101e-8
0.121, -5.082e-8
0.122, -5.075e-8
0.123, -5.058e-8
0.124, -5.044e-8
0.125, -5.031e-8
0.126, -5.010e-8
0.127, -4.999e-8
0.128, -4.978e-8
0.129, -4.961e-8
0.130, -4.946e-8
0.131, -4.921e-8
0.132, -4.909e-8
0.133, -4.884e-8
0.134, -4.865e-8
0.135, -4.849e-8
0.136, -4.821e-8
0.137, -4.807e-8
0.138, -4.782e-8
0.139, -4.762e-8
0.140, -4.745e-8
0.141, -4.717e-8
0.142, -4.702e-8
0.143, -4.677e-8
0.144, -4.654e-8
0.145, -4.637e-8
0.146, -4.609e-8
0.147, -4.593e-8
0.148, -4.568e-8
0.149, -4.546e-8
0.150, -4.529e-8
0.151, -4.501e-8
0.152, -4.486e-8
0.153, -4.461e-8
0.154, -4.441e-8
0.155, -4.424e-8
0.156, -4.397e-8
0.157, -4.382e-8
0.158, -4.358e-8
0.159, -4.338e-8
0.160, -4.322e-8
0.161, -4.295e-8
0.162, -4.282e-8
0.163, -4.258e-8
0.164, -4.239e-8
0.165, -4.224e-8
0.166, -4.199e-8
0.167, -4.187e-8
0.168, -4.164e-8
0.169, -4.146e-8
0.170, -4.131e-8
0.171, -4.107e-8
0.172, -4.096e-8
0.173, -4.074e-8
0.174, -4.057e-8
0.175, -4.044e-8
0.176, -4.020e-8
0.177, -4.011e-8
0.178, -3.990e-8
0.179, -3.974e-8
0.180, -3.962e-8
0.181, -3.939e-8
0.182, -3.930e-8
0.183, -3.911e-8
0.184, -3.896e-8
0.185, -3.886e-8
0.186, -3.863e-8
0.187, -3.855e-8
0.188, -3.837e-8
0.189, -3.822e-8
0.190, -3.813e-8
0.191, -3.792e-8
0.192, -3.785e-8
0.193, -3.768e-8
0.194, -3.755e-8
0.195, -3.747e-8
0.196, -3.728e-8
0.197, -3.721e-8
0.198, -3.705e-8
0.199, -3.693e-8
0.200, -3.685e-8
0.201, -3.666e-8
0.202, -3.661e-8
0.203, -3.646e-8
0.204, -3.635e-8
0.205, -3.628e-8
0.206, -3.610e-8
0.207, -3.606e-8
0.208, -3.592e-8
0.209, -3.581e-8
0.210, -3.575e-8
0.211, -3.557e-8
0.212, -3.555e-8
0.213, -3.541e-8
0.214, -3.531e-8
0.215, -3.526e-8
0.216, -3.509e-8
0.217, -3.507e-8
0.218, -3.494e-8
0.219, -3.485e-8
0.220, -3.481e-8
0.221, -3.465e-8
0.222, -3.463e-8
0.223, -3.451e-8
0.224, -3.442e-8
0.225, -3.438e-8
0.226, -3.423e-8
0.227, -3.421e-8
0.228, -3.410e-8
0.229, -3.402e-8
0.230, -3.398e-8
0.231, -3.384e-8
0.232, -3.383e-8
0.233, -3.372e-8
0.234, -3.364e-8
0.235, -3.362e-8
0.236, -3.348e-8
0.237, -3.347e-8
0.238, -3.336e-8
0.239, -3.330e-8
0.240, -3.327e-8
0.241, -3.314e-8
0.242, -3.314e-8
0.243, -3.304e-8
0.244, -3.297e-8
0.245, -3.295e-8
0.246, -3.282e-8
0.247, -3.283e-8
0.248, -3.273e-8
0.249, -3.267e-8
0.250, -3.266e-8
0.251, -3.253e-8
0.252, -3.255e-8
0.253, -3.245e-8
0.254, -3.239e-8
0.255, -3.239e-8
0.256, -3.226e-8
0.257, -3.228e-8
0.258, -3.219e-8
0.259, -3.214e-8
0.260, -3.214e-8
0.261, -3.201e-8
0.262, -3.203e-8
0.263, -3.195e-8
0.264, -3.190e-8
0.265, -3.190e-8
0.266, -3.178e-8
0.267, -3.180e-8
0.268, -3.172e-8
0.269, -3.167e-8
0.270, -3.168e-8
0.271, -3.156e-8
0.272, -3.158e-8
0.273, -3.150e-8
0.274, -3.146e-8
0.275, -3.146e-8
0.276, -3.136e-8
0.277, -3.138e-8
0.278, -3.131e-8
0.279, -3.126e-8
0.280, -3.127e-8
0.281, -3.117e-8
0.282, -3.120e-8
0.283, -3.112e-8
0.284, -3.109e-8
0.285, -3.109e-8
0.286, -3.099e-8
0.287, -3.102e-8
0.288, -3.095e-8
0.289, -3.092e-8
0.290, -3.093e-8
0.291, -3.082e-8
0.292, -3.086e-8
0.293, -3.079e-8
0.294, -3.076e-8
0.295, -3.078e-8
0.296, -3.068e-8
0.297, -3.072e-8
0.298, -3.065e-8
0.299, -3.062e-8
0.300, -3.014e-8
0.299, -2.919e-8
0.298, -2.897e-8
0.297, -2.877e-8
0.296, -2.864e-8
0.295, -2.858e-8
0.294, -2.840e-8
0.293, -2.838e-8
0.292, -2.825e-8
0.291, -2.816e-8
0.290, -2.813e-8
0.289, -2.798e-8
0.288, -2.797e-8
0.287, -2.786e-8
0.286, -2.778e-8
0.285, -2.777e-8
0.284, -2.763e-8
0.283, -2.763e-8
0.282, -2.753e-8
0.281, -2.745e-8
0.280, -2.745e-8
0.279, -2.731e-8
0.278, -2.733e-8
0.277, -2.723e-8
0.276, -2.716e-8
0.275, -2.716e-8
0.274, -2.704e-8
0.273, -2.705e-8
0.272, -2.697e-8
0.271, -2.690e-8
0.270, -2.690e-8
0.269, -2.678e-8
0.268, -2.679e-8
0.267, -2.671e-8
0.266, -2.665e-8
0.265, -2.665e-8
0.264, -2.654e-8
0.263, -2.655e-8
0.262, -2.648e-8
0.261, -2.642e-8
0.260, -2.642e-8
0.259, -2.631e-8
0.258, -2.633e-8
0.257, -2.625e-8
0.256, -2.620e-8
0.255, -2.620e-8
0.254, -2.609e-8
0.253, -2.611e-8
0.252, -2.603e-8
0.251, -2.598e-8
0.250, -2.599e-8
0.249, -2.587e-8
0.248, -2.589e-8
0.247, -2.582e-8
0.246, -2.577e-8
0.245, -2.577e-8
0.244, -2.566e-8
0.243, -2.569e-8
0.242, -2.561e-8
0.241, -2.556e-8
0.240, -2.557e-8
0.239, -2.545e-8
0.238, -2.548e-8
0.237, -2.540e-8
0.236, -2.534e-8
0.235, -2.536e-8
0.234, -2.524e-8
0.233, -2.527e-8
0.232, -2.520e-8
0.231, -2.513e-8
0.230, -2.514e-8
0.229, -2.503e-8
0.228, -2.505e-8
0.227, -2.498e-8
0.226, -2.493e-8
0.225, -2.493e-8
0.224, -2.482e-8
0.223, -2.484e-8
0.222, -2.477e-8
0.221, -2.471e-8
0.220, -2.472e-8
0.219, -2.460e-8
0.218, -2.462e-8
0.217, -2.454e-8
0.216, -2.448e-8
0.215, -2.448e-8
0.214, -2.437e-8
0.213, -2.438e-8
0.212, -2.430e-8
0.211, -2.424e-8
0.210, -2.424e-8
0.209, -2.411e-8
0.208, -2.413e-8
0.207, -2.404e-8
0.206, -2.398e-8
0.205, -2.397e-8
0.204, -2.384e-8
0.203, -2.385e-8
0.202, -2.375e-8
0.201, -2.368e-8
0.200, -2.368e-8
0.199, -2.354e-8
0.198, -2.355e-8
0.197, -2.345e-8
0.196, -2.337e-8
0.195, -2.335e-8
0.194, -2.321e-8
0.193, -2.321e-8
0.192, -2.311e-8
0.191, -2.301e-8
0.190, -2.299e-8
0.189, -2.284e-8
0.188, -2.282e-8
0.187, -2.272e-8
0.186, -2.262e-8
0.185, -2.259e-8
0.184, -2.243e-8
0.183, -2.240e-8
0.182, -2.229e-8
0.181, -2.217e-8
0.180, -2.213e-8
0.179, -2.195e-8
0.178, -2.191e-8
0.177, -2.178e-8
0.176, -2.166e-8
0.175, -2.160e-8
0.174, -2.142e-8
0.173, -2.136e-8
0.172, -2.120e-8
0.171, -2.107e-8
0.170, -2.099e-8
0.169, -2.079e-8
0.168, -2.071e-8
0.167, -2.054e-8
0.166, -2.038e-8
0.165, -2.028e-8
0.164, -2.006e-8
0.163, -1.996e-8
0.162, -1.976e-8
0.161, -1.958e-8
0.160, -1.946e-8
0.159, -1.921e-8
0.158, -1.909e-8
0.157, -1.888e-8
0.156, -1.866e-8
0.155, -1.851e-8
0.154, -1.823e-8
0.153, -1.807e-8
0.152, -1.783e-8
0.151, -1.757e-8
0.150, -1.740e-8
0.149, -1.708e-8
0.148, -1.689e-8
0.147, -1.661e-8
0.146, -1.632e-8
0.145, -1.611e-8
0.144, -1.576e-8
0.143, -1.551e-8
0.142, -1.520e-8
0.141, -1.486e-8
0.140, -1.459e-8
0.139, -1.421e-8
0.138, -1.393e-8
0.137, -1.356e-8
0.136, -1.320e-8
0.135, -1.288e-8
0.134, -1.245e-8
0.133, -1.211e-8
0.132, -1.169e-8
0.131, -1.128e-8
0.130, -1.091e-8
0.129, -1.042e-8
0.128, -1.003e-8
0.127, -9.556e-9
0.126, -9.098e-9
0.125, -8.681e-9
0.124, -8.138e-9
0.123, -7.710e-9
0.122, -7.175e-9
0.121, -6.653e-9
0.120, -6.183e-9
0.119, -5.584e-9
0.118, -5.103e-9
0.117, -4.532e-9
0.116, -3.945e-9
0.115, -3.431e-9
0.114, -2.778e-9
0.113, -2.248e-9
0.112, -1.630e-9
0.111, -1.000e-9
0.110, -4.484e-10
0.109, 2.640e-10
0.108, 8.556e-10
0.107, 1.497e-9
0.106, 2.178e-9
0.105, 2.773e-9
0.104, 3.505e-9
0.103, 4.137e-9
0.102, 4.826e-9
0.101, 5.517e-9
0.100, 6.147e-9
0.099, 6.869e-9
0.098, 7.532e-9
0.097, 8.211e-9
0.096, 8.923e-9
0.095, 9.579e-9
0.094, 1.031e-8
0.093, 1.094e-8
0.092, 1.165e-8
0.091, 1.233e-8
0.090, 1.297e-8
0.089, 1.369e-8
0.088, 1.431e-8
0.087, 1.500e-8
0.086, 1.562e-8
0.085, 1.623e-8
0.084, 1.694e-8
0.083, 1.750e-8
0.082, 1.814e-8
0.081, 1.875e-8
0.080, 1.929e-8
0.079, 1.993e-8
0.078, 2.042e-8
0.077, 2.101e-8
0.076, 2.157e-8
0.075, 2.201e-8
0.074, 2.259e-8
0.073, 2.303e-8
0.072, 2.351e-8
0.071, 2.399e-8
0.070, 2.435e-8
0.069, 2.485e-8
0.068, 2.520e-8
0.067, 2.557e-8
0.066, 2.596e-8
0.065, 2.625e-8
0.064, 2.665e-8
0.063, 2.691e-8
0.062, 2.719e-8
0.061, 2.749e-8
0.060, 2.769e-8
0.059, 2.796e-8
0.058, 2.813e-8
0.057, 2.832e-8
0.056, 2.852e-8
0.055, 2.863e-8
0.054, 2.881e-8
0.053, 2.891e-8
0.052, 2.903e-8
0.051, 2.914e-8
0.050, 2.916e-8
0.049, 2.928e-8
0.048, 2.926e-8
0.047, 2.932e-8
0.046, 2.933e-8
0.045, 2.928e-8
0.044, 2.933e-8
0.043, 2.925e-8
0.042, 2.923e-8
0.041, 2.919e-8
0.040, 2.907e-8
0.039, 2.907e-8
0.038, 2.893e-8
0.037, 2.886e-8
0.036, 2.878e-8
0.035, 2.861e-8
0.034, 2.855e-8
0.033, 2.838e-8
0.032, 2.825e-8
0.031, 2.813e-8
0.030, 2.793e-8
0.029, 2.784e-8
0.028, 2.763e-8
0.027, 2.748e-8
0.026, 2.734e-8
0.025, 2.711e-8
0.024, 2.699e-8
0.023, 2.676e-8
0.022, 2.658e-8
0.021, 2.642e-8
0.020, 2.618e-8
0.019, 2.605e-8
0.018, 2.581e-8
0.017, 2.562e-8
0.016, 2.544e-8
0.015, 2.519e-8
0.014, 2.505e-8
0.013, 2.480e-8
0.012, 2.462e-8
0.011, 2.443e-8
0.010, 2.417e-8
0.009, 2.403e-8
0.008, 2.377e-8
0.007, 2.360e-8
0.006, 2.341e-8
0.005, 2.315e-8
0.004, 2.303e-8
0.003, 2.276e-8
0.002, 2.259e-8
0.001, 2.242e-8
0.000, 2.221e-8
-0.001, 2.208e-8
-0.002, 2.181e-8
-0.003, 2.163e-8
-0.004, 2.146e-8
-0.005, 2.121e-8
-0.006, 2.110e-8
-0.007, 2.085e-8
-0.008, 2.069e-8
-0.009, 2.053e-8
-0.010, 2.029e-8
-0.011, 2.018e-8
-0.012, 1.996e-8
-0.013, 1.980e-8
-0.014, 1.965e-8
-0.015, 1.942e-8
-0.016, 1.933e-8
-0.017, 1.911e-8
-0.018, 1.896e-8
-0.019, 1.882e-8
-0.020, 1.861e-8
-0.021, 1.852e-8
-0.022, 1.831e-8
-0.023, 1.818e-8
-0.024, 1.805e-8
-0.025, 1.784e-8
-0.026, 1.777e-8
-0.027, 1.757e-8
-0.028, 1.744e-8
-0.029, 1.732e-8
-0.030, 1.712e-8
-0.031, 1.706e-8
-0.032, 1.687e-8
-0.033, 1.676e-8
-0.034, 1.665e-8
-0.035, 1.646e-8
-0.036, 1.640e-8
-0.037, 1.621e-8
-0.038, 1.611e-8
-0.039, 1.601e-8
-0.040, 1.583e-8
-0.041, 1.579e-8
-0.042, 1.561e-8
-0.043, 1.552e-8
-0.044, 1.543e-8
-0.045, 1.525e-8
-0.046, 1.522e-8
-0.047, 1.505e-8
-0.048, 1.496e-8
-0.049, 1.489e-8
-0.050, 1.472e-8
-0.051, 1.469e-8
-0.052, 1.454e-8
-0.053, 1.446e-8
-0.054, 1.439e-8
-0.055, 1.423e-8
-0.056, 1.421e-8
-0.057, 1.406e-8
-0.058, 1.399e-8
-0.059, 1.392e-8
-0.060, 1.377e-8
-0.061, 1.375e-8
-0.062, 1.361e-8
-0.063, 1.355e-8
-0.064, 1.349e-8
-0.065, 1.335e-8
-0.066, 1.334e-8
-0.067, 1.320e-8
-0.068, 1.314e-8
-0.069, 1.309e-8
-0.070, 1.295e-8
-0.071, 1.295e-8
-0.072, 1.282e-8
-0.073, 1.276e-8
-0.074, 1.271e-8
-0.075, 1.258e-8
-0.076, 1.258e-8
-0.077, 1.246e-8
-0.078, 1.241e-8
-0.079, 1.236e-8
-0.080, 1.225e-8
-0.081, 1.225e-8
-0.082, 1.213e-8
-0.083, 1.209e-8
-0.084, 1.205e-8
-0.085, 1.193e-8
-0.086, 1.194e-8
-0.087, 1.183e-8
-0.088, 1.178e-8
-0.089, 1.175e-8
-0.090, 1.163e-8
-0.091, 1.165e-8
-0.092, 1.154e-8
-0.093, 1.150e-8
-0.094, 1.147e-8
-0.095, 1.136e-8
-0.096, 1.137e-8
-0.097, 1.127e-8
-0.098, 1.123e-8
-0.099, 1.121e-8
-0.100, 1.110e-8
-0.101, 1.112e-8
-0.102, 1.102e-8
-0.103, 1.099e-8
-0.104, 1.097e-8
-0.105, 1.086e-8
-0.106, 1.089e-8
-0.107, 1.079e-8
-0.108, 1.076e-8
-0.109, 1.074e-8
-0.110, 1.064e-8
-0.111, 1.067e-8
-0.112, 1.057e-8
-0.113, 1.055e-8
-0.114, 1.053e-8
-0.115, 1.043e-8
-0.116, 1.046e-8
-0.117, 1.037e-8
-0.118, 1.035e-8
-0.119, 1.034e-8
-0.120, 1.024e-8
-0.121, 1.027e-8
-0.122, 1.018e-8
-0.123, 1.016e-8
-0.124, 1.015e-8
-0.125, 1.005e-8
-0.126, 1.009e-8
-0.127, 1.000e-8
-0.128, 9.984e-9
-0.129, 9.983e-9
-0.130, 9.884e-9
-0.131, 9.925e-9
-0.132, 9.842e-9
-0.133, 9.821e-9
-0.134, 9.819e-9
-0.135, 9.726e-9
-0.136, 9.768e-9
-0.137, 9.687e-9
-0.138, 9.669e-9
-0.139, 9.670e-9
-0.140, 9.583e-9
-0.141, 9.626e-9
-0.142, 9.546e-9
-0.143, 9.535e-9
-0.144, 9.537e-9
-0.145, 9.450e-9
-0.146, 9.495e-9
-0.147, 9.414e-9
-0.148, 9.406e-9
-0.149, 9.410e-9
-0.150, 9.321e-9
-0.151, 9.369e-9
-0.152, 9.292e-9
-0.153, 9.285e-9
-0.154, 9.295e-9
-0.155, 9.205e-9
-0.156, 9.259e-9
-0.157, 9.183e-9
-0.158, 9.176e-9
-0.159, 9.183e-9
-0.160, 9.098e-9
-0.161, 9.154e-9
-0.162, 9.079e-9
-0.163, 9.072e-9
-0.164, 9.088e-9
-0.165, 9.000e-9
-0.166, 9.057e-9
-0.167, 8.988e-9
-0.168, 8.980e-9
-0.169, 8.996e-9
-0.170, 8.911e-9
-0.171, 8.970e-9
-0.172, 8.903e-9
-0.173, 8.895e-9
-0.174, 8.910e-9
-0.175, 8.834e-9
-0.176, 8.888e-9
-0.177, 8.826e-9
-0.178, 8.821e-9
-0.179, 8.840e-9
-0.180, 8.766e-9
-0.181, 8.818e-9
-0.182, 8.756e-9
-0.183, 8.756e-9
-0.184, 8.773e-9
-0.185, 8.699e-9
-0.186, 8.757e-9
-0.187, 8.693e-9
-0.188, 8.698e-9
-0.189, 8.713e-9
-0.190, 8.642e-9
-0.191, 8.704e-9
-0.192, 8.641e-9
-0.193, 8.646e-9
-0.194, 8.666e-9
-0.195, 8.593e-9
-0.196, 8.659e-9
-0.197, 8.596e-9
-0.198, 8.603e-9
-0.199, 8.626e-9
