Mar. 16, 2023   09:45:58
Cyclic Voltammetry
File: c:/users/oliverrz/desktop/electrolab/data/2023_03_16\fcmeoh_macros_750_um\electrode3_cv_150mvs_750_um.bin
Data Source:  Experiment
Instrument Model:  CHI760E
Header: CV
Note: 

Init E (V) = -0.2
High E (V) = 0.3
Low E (V) = -0.2
Final E (V) = -0.2
Init P/N = P
Scan Rate (V/s) = 0.15
Segment = 3
Sample Interval (V) = 0.001
Quiet Time (sec) = 2
Sensitivity (A/V) = 1e-7

Results:

Channel 1:
Segment 1:
Ep = 0.064V
ip = -4.255e-8A
Ah = -1.652e-8C

Segment 2:
Ep = 0.005V
ip = 4.846e-8A
Ah = 2.024e-8C

Segment 3:

Potential/V, Current/A

-0.200, 1.706e-8
-0.199, 1.575e-8
-0.198, 1.528e-8
-0.197, 1.512e-8
-0.196, 1.463e-8
-0.195, 1.456e-8
-0.194, 1.423e-8
-0.193, 1.394e-8
-0.192, 1.388e-8
-0.191, 1.348e-8
-0.190, 1.346e-8
-0.189, 1.316e-8
-0.188, 1.295e-8
-0.187, 1.289e-8
-0.186, 1.251e-8
-0.185, 1.251e-8
-0.184, 1.225e-8
-0.183, 1.204e-8
-0.182, 1.201e-8
-0.181, 1.165e-8
-0.180, 1.165e-8
-0.179, 1.139e-8
-0.178, 1.121e-8
-0.177, 1.117e-8
-0.176, 1.083e-8
-0.175, 1.087e-8
-0.174, 1.058e-8
-0.173, 1.044e-8
-0.172, 1.041e-8
-0.171, 1.004e-8
-0.170, 1.011e-8
-0.169, 9.842e-9
-0.168, 9.681e-9
-0.167, 9.676e-9
-0.166, 9.317e-9
-0.165, 9.383e-9
-0.164, 9.127e-9
-0.163, 8.976e-9
-0.162, 8.973e-9
-0.161, 8.627e-9
-0.160, 8.703e-9
-0.159, 8.434e-9
-0.158, 8.269e-9
-0.157, 8.299e-9
-0.156, 7.943e-9
-0.155, 8.018e-9
-0.154, 7.784e-9
-0.153, 7.612e-9
-0.152, 7.648e-9
-0.151, 7.308e-9
-0.150, 7.354e-9
-0.149, 7.157e-9
-0.148, 6.976e-9
-0.147, 7.013e-9
-0.146, 6.687e-9
-0.145, 6.745e-9
-0.144, 6.522e-9
-0.143, 6.392e-9
-0.142, 6.397e-9
-0.141, 6.073e-9
-0.140, 6.157e-9
-0.139, 5.926e-9
-0.138, 5.794e-9
-0.137, 5.808e-9
-0.136, 5.495e-9
-0.135, 5.576e-9
-0.134, 5.340e-9
-0.133, 5.222e-9
-0.132, 5.227e-9
-0.131, 4.931e-9
-0.130, 5.013e-9
-0.129, 4.764e-9
-0.128, 4.656e-9
-0.127, 4.678e-9
-0.126, 4.341e-9
-0.125, 4.458e-9
-0.124, 4.232e-9
-0.123, 4.098e-9
-0.122, 4.154e-9
-0.121, 3.805e-9
-0.120, 3.902e-9
-0.119, 3.694e-9
-0.118, 3.559e-9
-0.117, 3.595e-9
-0.116, 3.278e-9
-0.115, 3.372e-9
-0.114, 3.148e-9
-0.113, 3.036e-9
-0.112, 3.069e-9
-0.111, 2.743e-9
-0.110, 2.847e-9
-0.109, 2.629e-9
-0.108, 2.496e-9
-0.107, 2.550e-9
-0.106, 2.233e-9
-0.105, 2.309e-9
-0.104, 2.127e-9
-0.103, 1.970e-9
-0.102, 1.994e-9
-0.101, 1.715e-9
-0.100, 1.787e-9
-0.099, 1.573e-9
-0.098, 1.471e-9
-0.097, 1.472e-9
-0.096, 1.173e-9
-0.095, 1.281e-9
-0.094, 1.030e-9
-0.093, 9.250e-10
-0.092, 9.611e-10
-0.091, 6.348e-10
-0.090, 7.244e-10
-0.089, 4.971e-10
-0.088, 3.733e-10
-0.087, 4.022e-10
-0.086, 7.851e-11
-0.085, 1.735e-10
-0.084, -6.909e-11
-0.083, -1.750e-10
-0.082, -1.568e-10
-0.081, -5.001e-10
-0.080, -3.850e-10
-0.079, -6.407e-10
-0.078, -7.779e-10
-0.077, -7.513e-10
-0.076, -1.095e-9
-0.075, -1.007e-9
-0.074, -1.226e-9
-0.073, -1.402e-9
-0.072, -1.377e-9
-0.071, -1.707e-9
-0.070, -1.658e-9
-0.069, -1.900e-9
-0.068, -2.041e-9
-0.067, -2.050e-9
-0.066, -2.389e-9
-0.065, -2.340e-9
-0.064, -2.594e-9
-0.063, -2.763e-9
-0.062, -2.775e-9
-0.061, -3.131e-9
-0.060, -3.100e-9
-0.059, -3.362e-9
-0.058, -3.532e-9
-0.057, -3.584e-9
-0.056, -3.932e-9
-0.055, -3.913e-9
-0.054, -4.232e-9
-0.053, -4.393e-9
-0.052, -4.480e-9
-0.051, -4.872e-9
-0.050, -4.846e-9
-0.049, -5.195e-9
-0.048, -5.383e-9
-0.047, -5.456e-9
-0.046, -5.906e-9
-0.045, -5.891e-9
-0.044, -6.260e-9
-0.043, -6.500e-9
-0.042, -6.588e-9
-0.041, -7.065e-9
-0.040, -7.092e-9
-0.039, -7.491e-9
-0.038, -7.771e-9
-0.037, -7.901e-9
-0.036, -8.399e-9
-0.035, -8.463e-9
-0.034, -8.883e-9
-0.033, -9.213e-9
-0.032, -9.366e-9
-0.031, -9.906e-9
-0.030, -1.003e-8
-0.029, -1.047e-8
-0.028, -1.084e-8
-0.027, -1.107e-8
-0.026, -1.163e-8
-0.025, -1.183e-8
-0.024, -1.230e-8
-0.023, -1.271e-8
-0.022, -1.300e-8
-0.021, -1.359e-8
-0.020, -1.384e-8
-0.019, -1.437e-8
-0.018, -1.483e-8
-0.017, -1.519e-8
-0.016, -1.581e-8
-0.015, -1.611e-8
-0.014, -1.674e-8
-0.013, -1.724e-8
-0.012, -1.765e-8
-0.011, -1.833e-8
-0.010, -1.868e-8
-0.009, -1.936e-8
-0.008, -1.989e-8
-0.007, -2.035e-8
-0.006, -2.114e-8
-0.005, -2.150e-8
-0.004, -2.225e-8
-0.003, -2.284e-8
-0.002, -2.337e-8
-0.001, -2.420e-8
-0.000, -2.487e-8
0.001, -2.553e-8
0.002, -2.616e-8
0.003, -2.669e-8
0.004, -2.757e-8
0.005, -2.804e-8
0.006, -2.886e-8
0.007, -2.959e-8
0.008, -3.014e-8
0.009, -3.107e-8
0.010, -3.161e-8
0.011, -3.244e-8
0.012, -3.319e-8
0.013, -3.380e-8
0.014, -3.471e-8
0.015, -3.531e-8
0.016, -3.608e-8
0.017, -3.686e-8
0.018, -3.751e-8
0.019, -3.837e-8
0.020, -3.896e-8
0.021, -3.982e-8
0.022, -4.052e-8
0.023, -4.118e-8
0.024, -4.205e-8
0.025, -4.257e-8
0.026, -4.344e-8
0.027, -4.411e-8
0.028, -4.469e-8
0.029, -4.554e-8
0.030, -4.602e-8
0.031, -4.682e-8
0.032, -4.738e-8
0.033, -4.797e-8
0.034, -4.873e-8
0.035, -4.912e-8
0.036, -4.988e-8
0.037, -5.039e-8
0.038, -5.084e-8
0.039, -5.159e-8
0.040, -5.184e-8
0.041, -5.246e-8
0.042, -5.297e-8
0.043, -5.328e-8
0.044, -5.394e-8
0.045, -5.409e-8
0.046, -5.462e-8
0.047, -5.506e-8
0.048, -5.523e-8
0.049, -5.577e-8
0.050, -5.591e-8
0.051, -5.627e-8
0.052, -5.658e-8
0.053, -5.670e-8
0.054, -5.709e-8
0.055, -5.713e-8
0.056, -5.741e-8
0.057, -5.756e-8
0.058, -5.760e-8
0.059, -5.789e-8
0.060, -5.784e-8
0.061, -5.802e-8
0.062, -5.808e-8
0.063, -5.804e-8
0.064, -5.824e-8
0.065, -5.808e-8
0.066, -5.821e-8
0.067, -5.817e-8
0.068, -5.804e-8
0.069, -5.815e-8
0.070, -5.791e-8
0.071, -5.798e-8
0.072, -5.785e-8
0.073, -5.766e-8
0.074, -5.775e-8
0.075, -5.739e-8
0.076, -5.744e-8
0.077, -5.728e-8
0.078, -5.698e-8
0.079, -5.706e-8
0.080, -5.664e-8
0.081, -5.658e-8
0.082, -5.643e-8
0.083, -5.610e-8
0.084, -5.609e-8
0.085, -5.569e-8
0.086, -5.559e-8
0.087, -5.540e-8
0.088, -5.505e-8
0.089, -5.504e-8
0.090, -5.460e-8
0.091, -5.448e-8
0.092, -5.427e-8
0.093, -5.389e-8
0.094, -5.386e-8
0.095, -5.343e-8
0.096, -5.328e-8
0.097, -5.307e-8
0.098, -5.270e-8
0.099, -5.263e-8
0.100, -5.221e-8
0.101, -5.209e-8
0.102, -5.185e-8
0.103, -5.151e-8
0.104, -5.143e-8
0.105, -5.100e-8
0.106, -5.091e-8
0.107, -5.064e-8
0.108, -5.030e-8
0.109, -5.026e-8
0.110, -4.981e-8
0.111, -4.973e-8
0.112, -4.946e-8
0.113, -4.914e-8
0.114, -4.912e-8
0.115, -4.868e-8
0.116, -4.860e-8
0.117, -4.837e-8
0.118, -4.802e-8
0.119, -4.803e-8
0.120, -4.759e-8
0.121, -4.752e-8
0.122, -4.732e-8
0.123, -4.697e-8
0.124, -4.699e-8
0.125, -4.658e-8
0.126, -4.650e-8
0.127, -4.631e-8
0.128, -4.600e-8
0.129, -4.601e-8
0.130, -4.563e-8
0.131, -4.557e-8
0.132, -4.539e-8
0.133, -4.510e-8
0.134, -4.512e-8
0.135, -4.476e-8
0.136, -4.472e-8
0.137, -4.455e-8
0.138, -4.428e-8
0.139, -4.431e-8
0.140, -4.397e-8
0.141, -4.395e-8
0.142, -4.379e-8
0.143, -4.354e-8
0.144, -4.357e-8
0.145, -4.324e-8
0.146, -4.325e-8
0.147, -4.308e-8
0.148, -4.286e-8
0.149, -4.293e-8
0.150, -4.258e-8
0.151, -4.262e-8
0.152, -4.247e-8
0.153, -4.225e-8
0.154, -4.236e-8
0.155, -4.201e-8
0.156, -4.205e-8
0.157, -4.194e-8
0.158, -4.171e-8
0.159, -4.183e-8
0.160, -4.151e-8
0.161, -4.155e-8
0.162, -4.145e-8
0.163, -4.125e-8
0.164, -4.136e-8
0.165, -4.108e-8
0.166, -4.113e-8
0.167, -4.104e-8
0.168, -4.085e-8
0.169, -4.099e-8
0.170, -4.070e-8
0.171, -4.077e-8
0.172, -4.071e-8
0.173, -4.051e-8
0.174, -4.066e-8
0.175, -4.041e-8
0.176, -4.046e-8
0.177, -4.041e-8
0.178, -4.026e-8
0.179, -4.040e-8
0.180, -4.015e-8
0.181, -4.025e-8
0.182, -4.016e-8
0.183, -4.004e-8
0.184, -4.019e-8
0.185, -3.994e-8
0.186, -4.006e-8
0.187, -4.002e-8
0.188, -3.987e-8
0.189, -4.005e-8
0.190, -3.982e-8
0.191, -3.994e-8
0.192, -3.990e-8
0.193, -3.977e-8
0.194, -3.996e-8
0.195, -3.974e-8
0.196, -3.987e-8
0.197, -3.983e-8
0.198, -3.972e-8
0.199, -3.993e-8
0.200, -3.968e-8
0.201, -3.984e-8
0.202, -3.983e-8
0.203, -3.969e-8
0.204, -3.993e-8
0.205, -3.972e-8
0.206, -3.985e-8
0.207, -3.987e-8
0.208, -3.974e-8
0.209, -3.995e-8
0.210, -3.978e-8
0.211, -3.992e-8
0.212, -3.993e-8
0.213, -3.984e-8
0.214, -4.006e-8
0.215, -3.987e-8
0.216, -4.003e-8
0.217, -4.004e-8
0.218, -3.997e-8
0.219, -4.019e-8
0.220, -4.002e-8
0.221, -4.018e-8
0.222, -4.020e-8
0.223, -4.013e-8
0.224, -4.035e-8
0.225, -4.018e-8
0.226, -4.038e-8
0.227, -4.037e-8
0.228, -4.032e-8
0.229, -4.057e-8
0.230, -4.039e-8
0.231, -4.059e-8
0.232, -4.060e-8
0.233, -4.054e-8
0.234, -4.080e-8
0.235, -4.063e-8
0.236, -4.083e-8
0.237, -4.086e-8
0.238, -4.080e-8
0.239, -4.106e-8
0.240, -4.089e-8
0.241, -4.110e-8
0.242, -4.113e-8
0.243, -4.108e-8
0.244, -4.134e-8
0.245, -4.118e-8
0.246, -4.138e-8
0.247, -4.144e-8
0.248, -4.137e-8
0.249, -4.165e-8
0.250, -4.150e-8
0.251, -4.170e-8
0.252, -4.175e-8
0.253, -4.171e-8
0.254, -4.197e-8
0.255, -4.184e-8
0.256, -4.205e-8
0.257, -4.210e-8
0.258, -4.207e-8
0.259, -4.232e-8
0.260, -4.219e-8
0.261, -4.242e-8
0.262, -4.245e-8
0.263, -4.244e-8
0.264, -4.270e-8
0.265, -4.256e-8
0.266, -4.279e-8
0.267, -4.284e-8
0.268, -4.283e-8
0.269, -4.310e-8
0.270, -4.295e-8
0.271, -4.321e-8
0.272, -4.324e-8
0.273, -4.322e-8
0.274, -4.352e-8
0.275, -4.336e-8
0.276, -4.361e-8
0.277, -4.368e-8
0.278, -4.365e-8
0.279, -4.395e-8
0.280, -4.381e-8
0.281, -4.406e-8
0.282, -4.414e-8
0.283, -4.411e-8
0.284, -4.441e-8
0.285, -4.428e-8
0.286, -4.453e-8
0.287, -4.460e-8
0.288, -4.459e-8
0.289, -4.489e-8
0.290, -4.478e-8
0.291, -4.501e-8
0.292, -4.511e-8
0.293, -4.509e-8
0.294, -4.540e-8
0.295, -4.531e-8
0.296, -4.554e-8
0.297, -4.562e-8
0.298, -4.565e-8
0.299, -4.594e-8
0.300, -4.272e-8
0.299, -4.014e-8
0.298, -3.901e-8
0.297, -3.806e-8
0.296, -3.758e-8
0.295, -3.672e-8
0.294, -3.633e-8
0.293, -3.581e-8
0.292, -3.522e-8
0.291, -3.501e-8
0.290, -3.438e-8
0.289, -3.413e-8
0.288, -3.377e-8
0.287, -3.332e-8
0.286, -3.318e-8
0.285, -3.268e-8
0.284, -3.251e-8
0.283, -3.221e-8
0.282, -3.183e-8
0.281, -3.175e-8
0.280, -3.130e-8
0.279, -3.120e-8
0.278, -3.094e-8
0.277, -3.062e-8
0.276, -3.057e-8
0.275, -3.016e-8
0.274, -3.011e-8
0.273, -2.985e-8
0.272, -2.959e-8
0.271, -2.958e-8
0.270, -2.918e-8
0.269, -2.917e-8
0.268, -2.893e-8
0.267, -2.869e-8
0.266, -2.872e-8
0.265, -2.832e-8
0.264, -2.833e-8
0.263, -2.814e-8
0.262, -2.789e-8
0.261, -2.793e-8
0.260, -2.757e-8
0.259, -2.759e-8
0.258, -2.742e-8
0.257, -2.716e-8
0.256, -2.723e-8
0.255, -2.689e-8
0.254, -2.691e-8
0.253, -2.676e-8
0.252, -2.652e-8
0.251, -2.661e-8
0.250, -2.626e-8
0.249, -2.628e-8
0.248, -2.615e-8
0.247, -2.593e-8
0.246, -2.600e-8
0.245, -2.568e-8
0.244, -2.570e-8
0.243, -2.557e-8
0.242, -2.537e-8
0.241, -2.543e-8
0.240, -2.513e-8
0.239, -2.518e-8
0.238, -2.502e-8
0.237, -2.485e-8
0.236, -2.492e-8
0.235, -2.461e-8
0.234, -2.467e-8
0.233, -2.453e-8
0.232, -2.433e-8
0.231, -2.444e-8
0.230, -2.412e-8
0.229, -2.418e-8
0.228, -2.405e-8
0.227, -2.387e-8
0.226, -2.397e-8
0.225, -2.365e-8
0.224, -2.372e-8
0.223, -2.359e-8
0.222, -2.341e-8
0.221, -2.352e-8
0.220, -2.320e-8
0.219, -2.328e-8
0.218, -2.315e-8
0.217, -2.295e-8
0.216, -2.308e-8
0.215, -2.277e-8
0.214, -2.284e-8
0.213, -2.273e-8
0.212, -2.253e-8
0.211, -2.266e-8
0.210, -2.236e-8
0.209, -2.242e-8
0.208, -2.231e-8
0.207, -2.214e-8
0.206, -2.225e-8
0.205, -2.194e-8
0.204, -2.202e-8
0.203, -2.191e-8
0.202, -2.174e-8
0.201, -2.184e-8
0.200, -2.156e-8
0.199, -2.163e-8
0.198, -2.152e-8
0.197, -2.135e-8
0.196, -2.145e-8
0.195, -2.118e-8
0.194, -2.125e-8
0.193, -2.112e-8
0.192, -2.097e-8
0.191, -2.108e-8
0.190, -2.078e-8
0.189, -2.088e-8
0.188, -2.074e-8
0.187, -2.059e-8
0.186, -2.072e-8
0.185, -2.041e-8
0.184, -2.050e-8
0.183, -2.039e-8
0.182, -2.021e-8
0.181, -2.034e-8
0.180, -2.003e-8
0.179, -2.012e-8
0.178, -2.001e-8
0.177, -1.983e-8
0.176, -1.996e-8
0.175, -1.965e-8
0.174, -1.974e-8
0.173, -1.963e-8
0.172, -1.944e-8
0.171, -1.959e-8
0.170, -1.927e-8
0.169, -1.935e-8
0.168, -1.925e-8
0.167, -1.907e-8
0.166, -1.917e-8
0.165, -1.889e-8
0.164, -1.895e-8
0.163, -1.885e-8
0.162, -1.868e-8
0.161, -1.877e-8
0.160, -1.848e-8
0.159, -1.855e-8
0.158, -1.841e-8
0.157, -1.825e-8
0.156, -1.834e-8
0.155, -1.804e-8
0.154, -1.809e-8
0.153, -1.797e-8
0.152, -1.778e-8
0.151, -1.787e-8
0.150, -1.756e-8
0.149, -1.762e-8
0.148, -1.746e-8
0.147, -1.730e-8
0.146, -1.736e-8
0.145, -1.703e-8
0.144, -1.711e-8
0.143, -1.693e-8
0.142, -1.674e-8
0.141, -1.681e-8
0.140, -1.645e-8
0.139, -1.650e-8
0.138, -1.635e-8
0.137, -1.611e-8
0.136, -1.617e-8
0.135, -1.583e-8
0.134, -1.583e-8
0.133, -1.566e-8
0.132, -1.541e-8
0.131, -1.548e-8
0.130, -1.509e-8
0.129, -1.508e-8
0.128, -1.487e-8
0.127, -1.462e-8
0.126, -1.463e-8
0.125, -1.425e-8
0.124, -1.421e-8
0.123, -1.401e-8
0.122, -1.371e-8
0.121, -1.368e-8
0.120, -1.329e-8
0.119, -1.323e-8
0.118, -1.297e-8
0.117, -1.268e-8
0.116, -1.260e-8
0.115, -1.217e-8
0.114, -1.209e-8
0.113, -1.177e-8
0.112, -1.146e-8
0.111, -1.137e-8
0.110, -1.088e-8
0.109, -1.078e-8
0.108, -1.042e-8
0.107, -1.007e-8
0.106, -9.931e-9
0.105, -9.382e-9
0.104, -9.235e-9
0.103, -8.839e-9
0.102, -8.428e-9
0.101, -8.256e-9
0.100, -7.654e-9
0.099, -7.491e-9
0.098, -7.040e-9
0.097, -6.548e-9
0.096, -6.357e-9
0.095, -5.705e-9
0.094, -5.441e-9
0.093, -4.966e-9
0.092, -4.421e-9
0.091, -4.156e-9
0.090, -3.480e-9
0.089, -3.135e-9
0.088, -2.614e-9
0.087, -2.018e-9
0.086, -1.677e-9
0.085, -9.485e-10
0.084, -5.236e-10
0.083, 1.760e-11
0.082, 7.042e-10
0.081, 1.115e-9
0.080, 1.895e-9
0.079, 2.363e-9
0.078, 3.011e-9
0.077, 3.739e-9
0.076, 4.228e-9
0.075, 5.020e-9
0.074, 5.543e-9
0.073, 6.289e-9
0.072, 6.994e-9
0.071, 7.558e-9
0.070, 8.445e-9
0.069, 9.012e-9
0.068, 9.789e-9
0.067, 1.056e-8
0.066, 1.114e-8
0.065, 1.210e-8
0.064, 1.268e-8
0.063, 1.348e-8
0.062, 1.431e-8
0.061, 1.490e-8
0.060, 1.590e-8
0.059, 1.647e-8
0.058, 1.732e-8
0.057, 1.816e-8
0.056, 1.876e-8
0.055, 1.976e-8
0.054, 2.035e-8
0.053, 2.117e-8
0.052, 2.205e-8
0.051, 2.261e-8
0.050, 2.357e-8
0.049, 2.421e-8
0.048, 2.496e-8
0.047, 2.579e-8
0.046, 2.635e-8
0.045, 2.725e-8
0.044, 2.786e-8
0.043, 2.854e-8
0.042, 2.930e-8
0.041, 2.984e-8
0.040, 3.067e-8
0.039, 3.120e-8
0.038, 3.185e-8
0.037, 3.251e-8
0.036, 3.302e-8
0.035, 3.370e-8
0.034, 3.414e-8
0.033, 3.475e-8
0.032, 3.528e-8
0.031, 3.568e-8
0.030, 3.633e-8
0.029, 3.661e-8
0.028, 3.716e-8
0.027, 3.759e-8
0.026, 3.786e-8
0.025, 3.845e-8
0.024, 3.862e-8
0.023, 3.900e-8
0.022, 3.938e-8
0.021, 3.950e-8
0.020, 3.999e-8
0.019, 4.003e-8
0.018, 4.032e-8
0.017, 4.060e-8
0.016, 4.059e-8
0.015, 4.099e-8
0.014, 4.097e-8
0.013, 4.113e-8
0.012, 4.134e-8
0.011, 4.119e-8
0.010, 4.149e-8
0.009, 4.141e-8
0.008, 4.146e-8
0.007, 4.156e-8
0.006, 4.138e-8
0.005, 4.156e-8
0.004, 4.143e-8
0.003, 4.137e-8
0.002, 4.140e-8
0.001, 4.119e-8
0.000, 4.149e-8
-0.001, 4.114e-8
-0.002, 4.106e-8
-0.003, 4.100e-8
-0.004, 4.072e-8
-0.005, 4.074e-8
-0.006, 4.046e-8
-0.007, 4.035e-8
-0.008, 4.025e-8
-0.009, 3.992e-8
-0.010, 3.993e-8
-0.011, 3.960e-8
-0.012, 3.948e-8
-0.013, 3.935e-8
-0.014, 3.898e-8
-0.015, 3.900e-8
-0.016, 3.864e-8
-0.017, 3.849e-8
-0.018, 3.835e-8
-0.019, 3.796e-8
-0.020, 3.797e-8
-0.021, 3.758e-8
-0.022, 3.742e-8
-0.023, 3.729e-8
-0.024, 3.690e-8
-0.025, 3.691e-8
-0.026, 3.653e-8
-0.027, 3.636e-8
-0.028, 3.623e-8
-0.029, 3.581e-8
-0.030, 3.582e-8
-0.031, 3.547e-8
-0.032, 3.529e-8
-0.033, 3.517e-8
-0.034, 3.478e-8
-0.035, 3.478e-8
-0.036, 3.443e-8
-0.037, 3.426e-8
-0.038, 3.416e-8
-0.039, 3.379e-8
-0.040, 3.381e-8
-0.041, 3.346e-8
-0.042, 3.332e-8
-0.043, 3.321e-8
-0.044, 3.286e-8
-0.045, 3.288e-8
-0.046, 3.255e-8
-0.047, 3.245e-8
-0.048, 3.234e-8
-0.049, 3.200e-8
-0.050, 3.206e-8
-0.051, 3.173e-8
-0.052, 3.165e-8
-0.053, 3.155e-8
-0.054, 3.121e-8
-0.055, 3.132e-8
-0.056, 3.100e-8
-0.057, 3.093e-8
-0.058, 3.086e-8
-0.059, 3.055e-8
-0.060, 3.065e-8
-0.061, 3.035e-8
-0.062, 3.030e-8
-0.063, 3.027e-8
-0.064, 2.997e-8
-0.065, 3.009e-8
-0.066, 2.981e-8
-0.067, 2.976e-8
-0.068, 2.977e-8
-0.069, 2.946e-8
-0.070, 2.958e-8
-0.071, 2.936e-8
-0.072, 2.931e-8
-0.073, 2.931e-8
-0.074, 2.906e-8
-0.075, 2.920e-8
-0.076, 2.898e-8
-0.077, 2.896e-8
-0.078, 2.896e-8
-0.079, 2.874e-8
-0.080, 2.889e-8
-0.081, 2.867e-8
-0.082, 2.867e-8
-0.083, 2.871e-8
-0.084, 2.849e-8
-0.085, 2.864e-8
-0.086, 2.845e-8
-0.087, 2.847e-8
-0.088, 2.849e-8
-0.089, 2.830e-8
-0.090, 2.849e-8
-0.091, 2.828e-8
-0.092, 2.836e-8
-0.093, 2.836e-8
-0.094, 2.818e-8
-0.095, 2.841e-8
-0.096, 2.819e-8
-0.097, 2.825e-8
-0.098, 2.834e-8
-0.099, 2.813e-8
-0.100, 2.837e-8
-0.101, 2.818e-8
-0.102, 2.826e-8
-0.103, 2.833e-8
-0.104, 2.817e-8
-0.105, 2.839e-8
-0.106, 2.822e-8
-0.107, 2.831e-8
-0.108, 2.839e-8
-0.109, 2.822e-8
-0.110, 2.848e-8
-0.111, 2.833e-8
-0.112, 2.839e-8
-0.113, 2.851e-8
-0.114, 2.835e-8
-0.115, 2.859e-8
-0.116, 2.849e-8
-0.117, 2.855e-8
-0.118, 2.865e-8
-0.119, 2.854e-8
-0.120, 2.878e-8
-0.121, 2.865e-8
-0.122, 2.878e-8
-0.123, 2.887e-8
-0.124, 2.875e-8
-0.125, 2.900e-8
-0.126, 2.888e-8
-0.127, 2.900e-8
-0.128, 2.912e-8
-0.129, 2.901e-8
-0.130, 2.927e-8
-0.131, 2.916e-8
-0.132, 2.930e-8
-0.133, 2.939e-8
-0.134, 2.929e-8
-0.135, 2.960e-8
-0.136, 2.946e-8
-0.137, 2.962e-8
-0.138, 2.974e-8
-0.139, 2.962e-8
-0.140, 2.994e-8
-0.141, 2.982e-8
-0.142, 2.996e-8
-0.143, 3.012e-8
-0.144, 3.000e-8
-0.145, 3.030e-8
-0.146, 3.022e-8
-0.147, 3.035e-8
-0.148, 3.052e-8
-0.149, 3.041e-8
-0.150, 3.071e-8
-0.151, 3.064e-8
-0.152, 3.080e-8
-0.153, 3.096e-8
-0.154, 3.086e-8
-0.155, 3.118e-8
-0.156, 3.112e-8
-0.157, 3.125e-8
-0.158, 3.143e-8
-0.159, 3.138e-8
-0.160, 3.168e-8
-0.161, 3.162e-8
-0.162, 3.180e-8
-0.163, 3.196e-8
-0.164, 3.193e-8
-0.165, 3.224e-8
-0.166, 3.218e-8
-0.167, 3.240e-8
-0.168, 3.256e-8
-0.169, 3.251e-8
-0.170, 3.287e-8
-0.171, 3.280e-8
-0.172, 3.301e-8
-0.173, 3.318e-8
-0.174, 3.316e-8
-0.175, 3.352e-8
-0.176, 3.348e-8
-0.177, 3.368e-8
-0.178, 3.387e-8
-0.179, 3.386e-8
-0.180, 3.424e-8
-0.181, 3.418e-8
-0.182, 3.440e-8
-0.183, 3.463e-8
-0.184, 3.459e-8
-0.185, 3.497e-8
-0.186, 3.495e-8
-0.187, 3.516e-8
-0.188, 3.541e-8
-0.189, 3.538e-8
-0.190, 3.576e-8
-0.191, 3.577e-8
-0.192, 3.599e-8
-0.193, 3.621e-8
-0.194, 3.622e-8
-0.195, 3.660e-8
-0.196, 3.662e-8
-0.197, 3.683e-8
-0.198, 3.707e-8
-0.199, 3.709e-8
