Mar. 16, 2023   09:42:51
Cyclic Voltammetry
File: c:/users/oliverrz/desktop/electrolab/data/2023_03_16\fcmeoh_macros_750_um\electrode1_cv_50mvs_750_um.bin
Data Source:  Experiment
Instrument Model:  CHI760E
Header: CV
Note: 

Init E (V) = -0.2
High E (V) = 0.3
Low E (V) = -0.2
Final E (V) = -0.2
Init P/N = P
Scan Rate (V/s) = 0.05
Segment = 3
Sample Interval (V) = 0.001
Quiet Time (sec) = 2
Sensitivity (A/V) = 1e-7

Results:

Channel 1:
Segment 1:
Ep = 0.123V
ip = -3.716e-8A
Ah = -4.808e-8C

Segment 2:
Ep = 0.051V
ip = 3.433e-8A
Ah = 4.477e-8C

Segment 3:

Potential/V, Current/A

-0.200, 2.781e-9
-0.199, 2.409e-9
-0.198, 2.318e-9
-0.197, 2.274e-9
-0.196, 2.236e-9
-0.195, 2.200e-9
-0.194, 2.161e-9
-0.193, 2.127e-9
-0.192, 2.098e-9
-0.191, 2.068e-9
-0.190, 2.040e-9
-0.189, 2.010e-9
-0.188, 1.981e-9
-0.187, 1.961e-9
-0.186, 1.934e-9
-0.185, 1.907e-9
-0.184, 1.881e-9
-0.183, 1.853e-9
-0.182, 1.834e-9
-0.181, 1.813e-9
-0.180, 1.788e-9
-0.179, 1.762e-9
-0.178, 1.740e-9
-0.177, 1.722e-9
-0.176, 1.705e-9
-0.175, 1.680e-9
-0.174, 1.658e-9
-0.173, 1.638e-9
-0.172, 1.619e-9
-0.171, 1.602e-9
-0.170, 1.579e-9
-0.169, 1.557e-9
-0.168, 1.539e-9
-0.167, 1.521e-9
-0.166, 1.507e-9
-0.165, 1.488e-9
-0.164, 1.464e-9
-0.163, 1.450e-9
-0.162, 1.434e-9
-0.161, 1.418e-9
-0.160, 1.402e-9
-0.159, 1.379e-9
-0.158, 1.364e-9
-0.157, 1.351e-9
-0.156, 1.335e-9
-0.155, 1.320e-9
-0.154, 1.298e-9
-0.153, 1.283e-9
-0.152, 1.272e-9
-0.151, 1.259e-9
-0.150, 1.245e-9
-0.149, 1.227e-9
-0.148, 1.213e-9
-0.147, 1.205e-9
-0.146, 1.191e-9
-0.145, 1.175e-9
-0.144, 1.158e-9
-0.143, 1.144e-9
-0.142, 1.134e-9
-0.141, 1.119e-9
-0.140, 1.104e-9
-0.139, 1.091e-9
-0.138, 1.075e-9
-0.137, 1.066e-9
-0.136, 1.058e-9
-0.135, 1.040e-9
-0.134, 1.027e-9
-0.133, 1.014e-9
-0.132, 1.003e-9
-0.131, 9.945e-10
-0.130, 9.807e-10
-0.129, 9.658e-10
-0.128, 9.533e-10
-0.127, 9.435e-10
-0.126, 9.352e-10
-0.125, 9.233e-10
-0.124, 9.058e-10
-0.123, 8.975e-10
-0.122, 8.873e-10
-0.121, 8.780e-10
-0.120, 8.654e-10
-0.119, 8.488e-10
-0.118, 8.405e-10
-0.117, 8.330e-10
-0.116, 8.196e-10
-0.115, 8.094e-10
-0.114, 7.954e-10
-0.113, 7.837e-10
-0.112, 7.787e-10
-0.111, 7.684e-10
-0.110, 7.594e-10
-0.109, 7.454e-10
-0.108, 7.336e-10
-0.107, 7.311e-10
-0.106, 7.200e-10
-0.105, 7.096e-10
-0.104, 6.968e-10
-0.103, 6.846e-10
-0.102, 6.759e-10
-0.101, 6.676e-10
-0.100, 6.569e-10
-0.099, 6.457e-10
-0.098, 6.330e-10
-0.097, 6.265e-10
-0.096, 6.191e-10
-0.095, 6.027e-10
-0.094, 5.901e-10
-0.093, 5.805e-10
-0.092, 5.701e-10
-0.091, 5.626e-10
-0.090, 5.495e-10
-0.089, 5.346e-10
-0.088, 5.247e-10
-0.087, 5.183e-10
-0.086, 5.105e-10
-0.085, 4.984e-10
-0.084, 4.839e-10
-0.083, 4.760e-10
-0.082, 4.651e-10
-0.081, 4.575e-10
-0.080, 4.469e-10
-0.079, 4.303e-10
-0.078, 4.214e-10
-0.077, 4.111e-10
-0.076, 4.005e-10
-0.075, 3.909e-10
-0.074, 3.741e-10
-0.073, 3.630e-10
-0.072, 3.541e-10
-0.071, 3.423e-10
-0.070, 3.316e-10
-0.069, 3.127e-10
-0.068, 2.984e-10
-0.067, 2.930e-10
-0.066, 2.771e-10
-0.065, 2.638e-10
-0.064, 2.459e-10
-0.063, 2.317e-10
-0.062, 2.215e-10
-0.061, 2.100e-10
-0.060, 1.926e-10
-0.059, 1.763e-10
-0.058, 1.584e-10
-0.057, 1.473e-10
-0.056, 1.326e-10
-0.055, 1.116e-10
-0.054, 9.266e-11
-0.053, 7.474e-11
-0.052, 5.968e-11
-0.051, 4.334e-11
-0.050, 2.256e-11
-0.049, 1.181e-13
-0.048, -1.642e-11
-0.047, -3.552e-11
-0.046, -5.393e-11
-0.045, -7.618e-11
-0.044, -1.007e-10
-0.043, -1.228e-10
-0.042, -1.464e-10
-0.041, -1.671e-10
-0.040, -1.926e-10
-0.039, -2.243e-10
-0.038, -2.493e-10
-0.037, -2.741e-10
-0.036, -3.017e-10
-0.035, -3.301e-10
-0.034, -3.655e-10
-0.033, -3.947e-10
-0.032, -4.244e-10
-0.031, -4.574e-10
-0.030, -4.904e-10
-0.029, -5.294e-10
-0.028, -5.651e-10
-0.027, -5.967e-10
-0.026, -6.376e-10
-0.025, -6.808e-10
-0.024, -7.235e-10
-0.023, -7.688e-10
-0.022, -8.075e-10
-0.021, -8.534e-10
-0.020, -9.029e-10
-0.019, -9.509e-10
-0.018, -1.004e-9
-0.017, -1.053e-9
-0.016, -1.102e-9
-0.015, -1.161e-9
-0.014, -1.219e-9
-0.013, -1.282e-9
-0.012, -1.341e-9
-0.011, -1.402e-9
-0.010, -1.472e-9
-0.009, -1.542e-9
-0.008, -1.614e-9
-0.007, -1.688e-9
-0.006, -1.760e-9
-0.005, -1.841e-9
-0.004, -1.928e-9
-0.003, -2.010e-9
-0.002, -2.098e-9
-0.001, -2.187e-9
-0.000, -2.307e-9
0.001, -2.403e-9
0.002, -2.492e-9
0.003, -2.594e-9
0.004, -2.701e-9
0.005, -2.809e-9
0.006, -2.934e-9
0.007, -3.047e-9
0.008, -3.170e-9
0.009, -3.300e-9
0.010, -3.425e-9
0.011, -3.561e-9
0.012, -3.706e-9
0.013, -3.846e-9
0.014, -3.997e-9
0.015, -4.153e-9
0.016, -4.315e-9
0.017, -4.487e-9
0.018, -4.652e-9
0.019, -4.829e-9
0.020, -5.014e-9
0.021, -5.201e-9
0.022, -5.399e-9
0.023, -5.595e-9
0.024, -5.800e-9
0.025, -6.025e-9
0.026, -6.244e-9
0.027, -6.471e-9
0.028, -6.706e-9
0.029, -6.940e-9
0.030, -7.193e-9
0.031, -7.456e-9
0.032, -7.717e-9
0.033, -7.990e-9
0.034, -8.261e-9
0.035, -8.547e-9
0.036, -8.848e-9
0.037, -9.138e-9
0.038, -9.449e-9
0.039, -9.764e-9
0.040, -1.009e-8
0.041, -1.043e-8
0.042, -1.076e-8
0.043, -1.111e-8
0.044, -1.147e-8
0.045, -1.182e-8
0.046, -1.220e-8
0.047, -1.258e-8
0.048, -1.296e-8
0.049, -1.336e-8
0.050, -1.376e-8
0.051, -1.418e-8
0.052, -1.461e-8
0.053, -1.503e-8
0.054, -1.548e-8
0.055, -1.591e-8
0.056, -1.635e-8
0.057, -1.681e-8
0.058, -1.726e-8
0.059, -1.773e-8
0.060, -1.820e-8
0.061, -1.867e-8
0.062, -1.915e-8
0.063, -1.962e-8
0.064, -2.013e-8
0.065, -2.062e-8
0.066, -2.111e-8
0.067, -2.161e-8
0.068, -2.211e-8
0.069, -2.259e-8
0.070, -2.311e-8
0.071, -2.362e-8
0.072, -2.412e-8
0.073, -2.463e-8
0.074, -2.511e-8
0.075, -2.562e-8
0.076, -2.613e-8
0.077, -2.662e-8
0.078, -2.712e-8
0.079, -2.760e-8
0.080, -2.807e-8
0.081, -2.856e-8
0.082, -2.902e-8
0.083, -2.948e-8
0.084, -2.994e-8
0.085, -3.038e-8
0.086, -3.084e-8
0.087, -3.127e-8
0.088, -3.168e-8
0.089, -3.211e-8
0.090, -3.251e-8
0.091, -3.290e-8
0.092, -3.329e-8
0.093, -3.364e-8
0.094, -3.401e-8
0.095, -3.434e-8
0.096, -3.468e-8
0.097, -3.501e-8
0.098, -3.530e-8
0.099, -3.560e-8
0.100, -3.589e-8
0.101, -3.615e-8
0.102, -3.642e-8
0.103, -3.667e-8
0.104, -3.689e-8
0.105, -3.710e-8
0.106, -3.730e-8
0.107, -3.749e-8
0.108, -3.767e-8
0.109, -3.781e-8
0.110, -3.797e-8
0.111, -3.810e-8
0.112, -3.823e-8
0.113, -3.834e-8
0.114, -3.843e-8
0.115, -3.853e-8
0.116, -3.860e-8
0.117, -3.866e-8
0.118, -3.872e-8
0.119, -3.875e-8
0.120, -3.878e-8
0.121, -3.882e-8
0.122, -3.882e-8
0.123, -3.883e-8
0.124, -3.882e-8
0.125, -3.880e-8
0.126, -3.878e-8
0.127, -3.873e-8
0.128, -3.870e-8
0.129, -3.866e-8
0.130, -3.860e-8
0.131, -3.854e-8
0.132, -3.847e-8
0.133, -3.839e-8
0.134, -3.832e-8
0.135, -3.823e-8
0.136, -3.815e-8
0.137, -3.806e-8
0.138, -3.796e-8
0.139, -3.786e-8
0.140, -3.776e-8
0.141, -3.765e-8
0.142, -3.755e-8
0.143, -3.743e-8
0.144, -3.731e-8
0.145, -3.720e-8
0.146, -3.707e-8
0.147, -3.695e-8
0.148, -3.683e-8
0.149, -3.669e-8
0.150, -3.657e-8
0.151, -3.644e-8
0.152, -3.631e-8
0.153, -3.618e-8
0.154, -3.605e-8
0.155, -3.592e-8
0.156, -3.579e-8
0.157, -3.565e-8
0.158, -3.552e-8
0.159, -3.539e-8
0.160, -3.525e-8
0.161, -3.513e-8
0.162, -3.500e-8
0.163, -3.487e-8
0.164, -3.474e-8
0.165, -3.460e-8
0.166, -3.449e-8
0.167, -3.435e-8
0.168, -3.422e-8
0.169, -3.409e-8
0.170, -3.397e-8
0.171, -3.385e-8
0.172, -3.373e-8
0.173, -3.360e-8
0.174, -3.348e-8
0.175, -3.336e-8
0.176, -3.324e-8
0.177, -3.312e-8
0.178, -3.300e-8
0.179, -3.288e-8
0.180, -3.277e-8
0.181, -3.266e-8
0.182, -3.255e-8
0.183, -3.244e-8
0.184, -3.233e-8
0.185, -3.223e-8
0.186, -3.212e-8
0.187, -3.202e-8
0.188, -3.191e-8
0.189, -3.180e-8
0.190, -3.170e-8
0.191, -3.161e-8
0.192, -3.151e-8
0.193, -3.142e-8
0.194, -3.132e-8
0.195, -3.122e-8
0.196, -3.113e-8
0.197, -3.104e-8
0.198, -3.095e-8
0.199, -3.085e-8
0.200, -3.076e-8
0.201, -3.068e-8
0.202, -3.060e-8
0.203, -3.051e-8
0.204, -3.043e-8
0.205, -3.035e-8
0.206, -3.027e-8
0.207, -3.019e-8
0.208, -3.011e-8
0.209, -3.004e-8
0.210, -2.996e-8
0.211, -2.989e-8
0.212, -2.981e-8
0.213, -2.973e-8
0.214, -2.967e-8
0.215, -2.960e-8
0.216, -2.953e-8
0.217, -2.946e-8
0.218, -2.939e-8
0.219, -2.932e-8
0.220, -2.926e-8
0.221, -2.919e-8
0.222, -2.913e-8
0.223, -2.907e-8
0.224, -2.901e-8
0.225, -2.895e-8
0.226, -2.890e-8
0.227, -2.884e-8
0.228, -2.878e-8
0.229, -2.873e-8
0.230, -2.867e-8
0.231, -2.862e-8
0.232, -2.856e-8
0.233, -2.851e-8
0.234, -2.845e-8
0.235, -2.840e-8
0.236, -2.835e-8
0.237, -2.830e-8
0.238, -2.825e-8
0.239, -2.820e-8
0.240, -2.816e-8
0.241, -2.811e-8
0.242, -2.807e-8
0.243, -2.802e-8
0.244, -2.797e-8
0.245, -2.793e-8
0.246, -2.789e-8
0.247, -2.785e-8
0.248, -2.780e-8
0.249, -2.776e-8
0.250, -2.772e-8
0.251, -2.768e-8
0.252, -2.764e-8
0.253, -2.760e-8
0.254, -2.756e-8
0.255, -2.753e-8
0.256, -2.750e-8
0.257, -2.746e-8
0.258, -2.742e-8
0.259, -2.738e-8
0.260, -2.735e-8
0.261, -2.732e-8
0.262, -2.728e-8
0.263, -2.724e-8
0.264, -2.721e-8
0.265, -2.718e-8
0.266, -2.715e-8
0.267, -2.711e-8
0.268, -2.708e-8
0.269, -2.705e-8
0.270, -2.703e-8
0.271, -2.701e-8
0.272, -2.697e-8
0.273, -2.695e-8
0.274, -2.691e-8
0.275, -2.689e-8
0.276, -2.686e-8
0.277, -2.683e-8
0.278, -2.681e-8
0.279, -2.678e-8
0.280, -2.675e-8
0.281, -2.673e-8
0.282, -2.671e-8
0.283, -2.668e-8
0.284, -2.666e-8
0.285, -2.663e-8
0.286, -2.662e-8
0.287, -2.659e-8
0.288, -2.657e-8
0.289, -2.655e-8
0.290, -2.652e-8
0.291, -2.651e-8
0.292, -2.649e-8
0.293, -2.646e-8
0.294, -2.644e-8
0.295, -2.643e-8
0.296, -2.641e-8
0.297, -2.640e-8
0.298, -2.637e-8
0.299, -2.635e-8
0.300, -2.606e-8
0.299, -2.526e-8
0.298, -2.503e-8
0.297, -2.491e-8
0.296, -2.481e-8
0.295, -2.472e-8
0.294, -2.465e-8
0.293, -2.457e-8
0.292, -2.450e-8
0.291, -2.443e-8
0.290, -2.437e-8
0.289, -2.431e-8
0.288, -2.425e-8
0.287, -2.419e-8
0.286, -2.414e-8
0.285, -2.409e-8
0.284, -2.404e-8
0.283, -2.399e-8
0.282, -2.394e-8
0.281, -2.389e-8
0.280, -2.385e-8
0.279, -2.381e-8
0.278, -2.377e-8
0.277, -2.372e-8
0.276, -2.368e-8
0.275, -2.364e-8
0.274, -2.360e-8
0.273, -2.356e-8
0.272, -2.351e-8
0.271, -2.347e-8
0.270, -2.344e-8
0.269, -2.340e-8
0.268, -2.336e-8
0.267, -2.332e-8
0.266, -2.329e-8
0.265, -2.325e-8
0.264, -2.322e-8
0.263, -2.318e-8
0.262, -2.315e-8
0.261, -2.311e-8
0.260, -2.309e-8
0.259, -2.305e-8
0.258, -2.301e-8
0.257, -2.297e-8
0.256, -2.294e-8
0.255, -2.290e-8
0.254, -2.288e-8
0.253, -2.284e-8
0.252, -2.281e-8
0.251, -2.277e-8
0.250, -2.274e-8
0.249, -2.271e-8
0.248, -2.268e-8
0.247, -2.264e-8
0.246, -2.261e-8
0.245, -2.257e-8
0.244, -2.254e-8
0.243, -2.251e-8
0.242, -2.247e-8
0.241, -2.244e-8
0.240, -2.241e-8
0.239, -2.238e-8
0.238, -2.235e-8
0.237, -2.232e-8
0.236, -2.229e-8
0.235, -2.226e-8
0.234, -2.222e-8
0.233, -2.219e-8
0.232, -2.216e-8
0.231, -2.212e-8
0.230, -2.209e-8
0.229, -2.206e-8
0.228, -2.203e-8
0.227, -2.199e-8
0.226, -2.195e-8
0.225, -2.192e-8
0.224, -2.188e-8
0.223, -2.184e-8
0.222, -2.181e-8
0.221, -2.177e-8
0.220, -2.173e-8
0.219, -2.170e-8
0.218, -2.166e-8
0.217, -2.162e-8
0.216, -2.158e-8
0.215, -2.154e-8
0.214, -2.151e-8
0.213, -2.146e-8
0.212, -2.142e-8
0.211, -2.138e-8
0.210, -2.133e-8
0.209, -2.129e-8
0.208, -2.124e-8
0.207, -2.119e-8
0.206, -2.115e-8
0.205, -2.110e-8
0.204, -2.105e-8
0.203, -2.101e-8
0.202, -2.095e-8
0.201, -2.089e-8
0.200, -2.084e-8
0.199, -2.079e-8
0.198, -2.073e-8
0.197, -2.067e-8
0.196, -2.061e-8
0.195, -2.056e-8
0.194, -2.049e-8
0.193, -2.043e-8
0.192, -2.036e-8
0.191, -2.029e-8
0.190, -2.023e-8
0.189, -2.016e-8
0.188, -2.009e-8
0.187, -2.001e-8
0.186, -1.993e-8
0.185, -1.986e-8
0.184, -1.978e-8
0.183, -1.969e-8
0.182, -1.960e-8
0.181, -1.951e-8
0.180, -1.942e-8
0.179, -1.933e-8
0.178, -1.923e-8
0.177, -1.914e-8
0.176, -1.904e-8
0.175, -1.893e-8
0.174, -1.883e-8
0.173, -1.871e-8
0.172, -1.859e-8
0.171, -1.846e-8
0.170, -1.834e-8
0.169, -1.821e-8
0.168, -1.808e-8
0.167, -1.794e-8
0.166, -1.781e-8
0.165, -1.766e-8
0.164, -1.752e-8
0.163, -1.736e-8
0.162, -1.720e-8
0.161, -1.704e-8
0.160, -1.687e-8
0.159, -1.670e-8
0.158, -1.652e-8
0.157, -1.633e-8
0.156, -1.615e-8
0.155, -1.596e-8
0.154, -1.575e-8
0.153, -1.554e-8
0.152, -1.533e-8
0.151, -1.510e-8
0.150, -1.488e-8
0.149, -1.464e-8
0.148, -1.441e-8
0.147, -1.416e-8
0.146, -1.391e-8
0.145, -1.365e-8
0.144, -1.339e-8
0.143, -1.311e-8
0.142, -1.283e-8
0.141, -1.254e-8
0.140, -1.225e-8
0.139, -1.195e-8
0.138, -1.164e-8
0.137, -1.133e-8
0.136, -1.099e-8
0.135, -1.066e-8
0.134, -1.033e-8
0.133, -9.972e-9
0.132, -9.618e-9
0.131, -9.254e-9
0.130, -8.878e-9
0.129, -8.502e-9
0.128, -8.100e-9
0.127, -7.696e-9
0.126, -7.300e-9
0.125, -6.878e-9
0.124, -6.466e-9
0.123, -6.042e-9
0.122, -5.601e-9
0.121, -5.173e-9
0.120, -4.720e-9
0.119, -4.266e-9
0.118, -3.813e-9
0.117, -3.350e-9
0.116, -2.876e-9
0.115, -2.395e-9
0.114, -1.915e-9
0.113, -1.439e-9
0.112, -9.452e-10
0.111, -4.576e-10
0.110, 3.034e-11
0.109, 5.410e-10
0.108, 1.046e-9
0.107, 1.553e-9
0.106, 2.062e-9
0.105, 2.551e-9
0.104, 3.060e-9
0.103, 3.571e-9
0.102, 4.087e-9
0.101, 4.588e-9
0.100, 5.077e-9
0.099, 5.567e-9
0.098, 6.071e-9
0.097, 6.544e-9
0.096, 7.031e-9
0.095, 7.509e-9
0.094, 7.970e-9
0.093, 8.454e-9
0.092, 8.916e-9
0.091, 9.372e-9
0.090, 9.824e-9
0.089, 1.026e-8
0.088, 1.068e-8
0.087, 1.110e-8
0.086, 1.150e-8
0.085, 1.191e-8
0.084, 1.229e-8
0.083, 1.265e-8
0.082, 1.303e-8
0.081, 1.338e-8
0.080, 1.371e-8
0.079, 1.405e-8
0.078, 1.436e-8
0.077, 1.467e-8
0.076, 1.496e-8
0.075, 1.523e-8
0.074, 1.550e-8
0.073, 1.574e-8
0.072, 1.599e-8
0.071, 1.621e-8
0.070, 1.641e-8
0.069, 1.662e-8
0.068, 1.680e-8
0.067, 1.698e-8
0.066, 1.713e-8
0.065, 1.727e-8
0.064, 1.742e-8
0.063, 1.754e-8
0.062, 1.765e-8
0.061, 1.775e-8
0.060, 1.783e-8
0.059, 1.790e-8
0.058, 1.798e-8
0.057, 1.802e-8
0.056, 1.807e-8
0.055, 1.810e-8
0.054, 1.811e-8
0.053, 1.814e-8
0.052, 1.814e-8
0.051, 1.815e-8
0.050, 1.814e-8
0.049, 1.811e-8
0.048, 1.808e-8
0.047, 1.805e-8
0.046, 1.801e-8
0.045, 1.796e-8
0.044, 1.790e-8
0.043, 1.784e-8
0.042, 1.777e-8
0.041, 1.770e-8
0.040, 1.763e-8
0.039, 1.755e-8
0.038, 1.746e-8
0.037, 1.738e-8
0.036, 1.728e-8
0.035, 1.718e-8
0.034, 1.708e-8
0.033, 1.698e-8
0.032, 1.688e-8
0.031, 1.677e-8
0.030, 1.665e-8
0.029, 1.654e-8
0.028, 1.642e-8
0.027, 1.630e-8
0.026, 1.619e-8
0.025, 1.607e-8
0.024, 1.595e-8
0.023, 1.583e-8
0.022, 1.571e-8
0.021, 1.559e-8
0.020, 1.546e-8
0.019, 1.534e-8
0.018, 1.522e-8
0.017, 1.510e-8
0.016, 1.497e-8
0.015, 1.485e-8
0.014, 1.472e-8
0.013, 1.461e-8
0.012, 1.449e-8
0.011, 1.437e-8
0.010, 1.425e-8
0.009, 1.412e-8
0.008, 1.401e-8
0.007, 1.389e-8
0.006, 1.377e-8
0.005, 1.365e-8
0.004, 1.354e-8
0.003, 1.342e-8
0.002, 1.332e-8
0.001, 1.320e-8
0.000, 1.311e-8
-0.001, 1.300e-8
-0.002, 1.288e-8
-0.003, 1.277e-8
-0.004, 1.266e-8
-0.005, 1.255e-8
-0.006, 1.244e-8
-0.007, 1.234e-8
-0.008, 1.225e-8
-0.009, 1.215e-8
-0.010, 1.204e-8
-0.011, 1.194e-8
-0.012, 1.185e-8
-0.013, 1.176e-8
-0.014, 1.167e-8
-0.015, 1.157e-8
-0.016, 1.147e-8
-0.017, 1.138e-8
-0.018, 1.129e-8
-0.019, 1.121e-8
-0.020, 1.112e-8
-0.021, 1.103e-8
-0.022, 1.094e-8
-0.023, 1.086e-8
-0.024, 1.079e-8
-0.025, 1.070e-8
-0.026, 1.062e-8
-0.027, 1.055e-8
-0.028, 1.047e-8
-0.029, 1.039e-8
-0.030, 1.032e-8
-0.031, 1.024e-8
-0.032, 1.017e-8
-0.033, 1.010e-8
-0.034, 1.003e-8
-0.035, 9.957e-9
-0.036, 9.886e-9
-0.037, 9.820e-9
-0.038, 9.757e-9
-0.039, 9.690e-9
-0.040, 9.622e-9
-0.041, 9.560e-9
-0.042, 9.498e-9
-0.043, 9.441e-9
-0.044, 9.380e-9
-0.045, 9.315e-9
-0.046, 9.258e-9
-0.047, 9.200e-9
-0.048, 9.144e-9
-0.049, 9.091e-9
-0.050, 9.033e-9
-0.051, 8.979e-9
-0.052, 8.929e-9
-0.053, 8.876e-9
-0.054, 8.826e-9
-0.055, 8.769e-9
-0.056, 8.718e-9
-0.057, 8.672e-9
-0.058, 8.622e-9
-0.059, 8.577e-9
-0.060, 8.525e-9
-0.061, 8.473e-9
-0.062, 8.429e-9
-0.063, 8.384e-9
-0.064, 8.342e-9
-0.065, 8.298e-9
-0.066, 8.252e-9
-0.067, 8.216e-9
-0.068, 8.177e-9
-0.069, 8.135e-9
-0.070, 8.092e-9
-0.071, 8.049e-9
-0.072, 8.012e-9
-0.073, 7.978e-9
-0.074, 7.939e-9
-0.075, 7.901e-9
-0.076, 7.863e-9
-0.077, 7.830e-9
-0.078, 7.799e-9
-0.079, 7.763e-9
-0.080, 7.727e-9
-0.081, 7.692e-9
-0.082, 7.659e-9
-0.083, 7.631e-9
-0.084, 7.600e-9
-0.085, 7.563e-9
-0.086, 7.532e-9
-0.087, 7.502e-9
-0.088, 7.475e-9
-0.089, 7.448e-9
-0.090, 7.414e-9
-0.091, 7.387e-9
-0.092, 7.360e-9
-0.093, 7.334e-9
-0.094, 7.310e-9
-0.095, 7.280e-9
-0.096, 7.253e-9
-0.097, 7.232e-9
-0.098, 7.206e-9
-0.099, 7.184e-9
-0.100, 7.157e-9
-0.101, 7.129e-9
-0.102, 7.112e-9
-0.103, 7.092e-9
-0.104, 7.066e-9
-0.105, 7.042e-9
-0.106, 7.016e-9
-0.107, 6.999e-9
-0.108, 6.980e-9
-0.109, 6.959e-9
-0.110, 6.938e-9
-0.111, 6.915e-9
-0.112, 6.898e-9
-0.113, 6.884e-9
-0.114, 6.864e-9
-0.115, 6.844e-9
-0.116, 6.824e-9
-0.117, 6.806e-9
-0.118, 6.793e-9
-0.119, 6.775e-9
-0.120, 6.755e-9
-0.121, 6.739e-9
-0.122, 6.723e-9
-0.123, 6.713e-9
-0.124, 6.696e-9
-0.125, 6.678e-9
-0.126, 6.665e-9
-0.127, 6.652e-9
-0.128, 6.644e-9
-0.129, 6.632e-9
-0.130, 6.611e-9
-0.131, 6.598e-9
-0.132, 6.589e-9
-0.133, 6.579e-9
-0.134, 6.569e-9
-0.135, 6.553e-9
-0.136, 6.539e-9
-0.137, 6.534e-9
-0.138, 6.521e-9
-0.139, 6.515e-9
-0.140, 6.501e-9
-0.141, 6.489e-9
-0.142, 6.484e-9
-0.143, 6.476e-9
-0.144, 6.468e-9
-0.145, 6.458e-9
-0.146, 6.447e-9
-0.147, 6.443e-9
-0.148, 6.438e-9
-0.149, 6.429e-9
-0.150, 6.421e-9
-0.151, 6.412e-9
-0.152, 6.409e-9
-0.153, 6.407e-9
-0.154, 6.401e-9
-0.155, 6.393e-9
-0.156, 6.386e-9
-0.157, 6.383e-9
-0.158, 6.383e-9
-0.159, 6.377e-9
-0.160, 6.370e-9
-0.161, 6.367e-9
-0.162, 6.364e-9
-0.163, 6.365e-9
-0.164, 6.364e-9
-0.165, 6.356e-9
-0.166, 6.354e-9
-0.167, 6.354e-9
-0.168, 6.355e-9
-0.169, 6.355e-9
-0.170, 6.349e-9
-0.171, 6.347e-9
-0.172, 6.352e-9
-0.173, 6.350e-9
-0.174, 6.355e-9
-0.175, 6.349e-9
-0.176, 6.348e-9
-0.177, 6.355e-9
-0.178, 6.357e-9
-0.179, 6.360e-9
-0.180, 6.361e-9
-0.181, 6.357e-9
-0.182, 6.367e-9
-0.183, 6.368e-9
-0.184, 6.375e-9
-0.185, 6.377e-9
-0.186, 6.376e-9
-0.187, 6.386e-9
-0.188, 6.392e-9
-0.189, 6.397e-9
-0.190, 6.401e-9
-0.191, 6.403e-9
-0.192, 6.413e-9
-0.193, 6.423e-9
-0.194, 6.426e-9
-0.195, 6.431e-9
-0.196, 6.437e-9
-0.197, 6.446e-9
-0.198, 6.459e-9
-0.199, 6.464e-9
