Mar. 16, 2023   09:46:09
Cyclic Voltammetry
File: c:/users/oliverrz/desktop/electrolab/data/2023_03_16\fcmeoh_macros_750_um\electrode3_cv_200mvs_750_um.bin
Data Source:  Experiment
Instrument Model:  CHI760E
Header: CV
Note: 

Init E (V) = -0.2
High E (V) = 0.3
Low E (V) = -0.2
Final E (V) = -0.2
Init P/N = P
Scan Rate (V/s) = 0.2
Segment = 3
Sample Interval (V) = 0.001
Quiet Time (sec) = 2
Sensitivity (A/V) = 1e-7

Results:

Channel 1:
Segment 1:
Ep = 0.074V
ip = -5.305e-8A
Ah = -1.595e-8C

Segment 2:
Ep = 0.014V
ip = 5.971e-8A
Ah = 1.925e-8C

Segment 3:

Potential/V, Current/A

-0.200, 1.718e-8
-0.199, 1.529e-8
-0.198, 1.495e-8
-0.197, 1.462e-8
-0.196, 1.409e-8
-0.195, 1.386e-8
-0.194, 1.376e-8
-0.193, 1.331e-8
-0.192, 1.302e-8
-0.191, 1.298e-8
-0.190, 1.268e-8
-0.189, 1.232e-8
-0.188, 1.227e-8
-0.187, 1.209e-8
-0.186, 1.174e-8
-0.185, 1.155e-8
-0.184, 1.156e-8
-0.183, 1.118e-8
-0.182, 1.093e-8
-0.181, 1.096e-8
-0.180, 1.070e-8
-0.179, 1.035e-8
-0.178, 1.037e-8
-0.177, 1.021e-8
-0.176, 9.882e-9
-0.175, 9.748e-9
-0.174, 9.743e-9
-0.173, 9.424e-9
-0.172, 9.197e-9
-0.171, 9.246e-9
-0.170, 9.024e-9
-0.169, 8.664e-9
-0.168, 8.727e-9
-0.167, 8.574e-9
-0.166, 8.240e-9
-0.165, 8.168e-9
-0.164, 8.168e-9
-0.163, 7.854e-9
-0.162, 7.666e-9
-0.161, 7.690e-9
-0.160, 7.511e-9
-0.159, 7.187e-9
-0.158, 7.224e-9
-0.157, 7.129e-9
-0.156, 6.787e-9
-0.155, 6.735e-9
-0.154, 6.747e-9
-0.153, 6.424e-9
-0.152, 6.261e-9
-0.151, 6.332e-9
-0.150, 6.115e-9
-0.149, 5.830e-9
-0.148, 5.882e-9
-0.147, 5.792e-9
-0.146, 5.487e-9
-0.145, 5.380e-9
-0.144, 5.461e-9
-0.143, 5.147e-9
-0.142, 4.972e-9
-0.141, 5.054e-9
-0.140, 4.854e-9
-0.139, 4.572e-9
-0.138, 4.638e-9
-0.137, 4.538e-9
-0.136, 4.260e-9
-0.135, 4.190e-9
-0.134, 4.227e-9
-0.133, 3.957e-9
-0.132, 3.775e-9
-0.131, 3.872e-9
-0.130, 3.694e-9
-0.129, 3.383e-9
-0.128, 3.476e-9
-0.127, 3.404e-9
-0.126, 3.089e-9
-0.125, 3.058e-9
-0.124, 3.095e-9
-0.123, 2.811e-9
-0.122, 2.676e-9
-0.121, 2.736e-9
-0.120, 2.580e-9
-0.119, 2.286e-9
-0.118, 2.367e-9
-0.117, 2.304e-9
-0.116, 1.996e-9
-0.115, 1.963e-9
-0.114, 2.024e-9
-0.113, 1.713e-9
-0.112, 1.600e-9
-0.111, 1.682e-9
-0.110, 1.482e-9
-0.109, 1.241e-9
-0.108, 1.305e-9
-0.107, 1.235e-9
-0.106, 9.542e-10
-0.105, 8.842e-10
-0.104, 9.785e-10
-0.103, 6.497e-10
-0.102, 5.117e-10
-0.101, 6.320e-10
-0.100, 4.126e-10
-0.099, 1.642e-10
-0.098, 2.593e-10
-0.097, 1.438e-10
-0.096, -1.131e-10
-0.095, -1.620e-10
-0.094, -1.125e-10
-0.093, -3.864e-10
-0.092, -5.470e-10
-0.091, -4.391e-10
-0.090, -6.192e-10
-0.089, -9.268e-10
-0.088, -8.078e-10
-0.087, -9.113e-10
-0.086, -1.214e-9
-0.085, -1.228e-9
-0.084, -1.203e-9
-0.083, -1.483e-9
-0.082, -1.636e-9
-0.081, -1.560e-9
-0.080, -1.732e-9
-0.079, -2.028e-9
-0.078, -1.958e-9
-0.077, -2.053e-9
-0.076, -2.369e-9
-0.075, -2.402e-9
-0.074, -2.367e-9
-0.073, -2.692e-9
-0.072, -2.830e-9
-0.071, -2.768e-9
-0.070, -2.980e-9
-0.069, -3.253e-9
-0.068, -3.226e-9
-0.067, -3.314e-9
-0.066, -3.624e-9
-0.065, -3.726e-9
-0.064, -3.686e-9
-0.063, -4.010e-9
-0.062, -4.210e-9
-0.061, -4.126e-9
-0.060, -4.395e-9
-0.059, -4.685e-9
-0.058, -4.653e-9
-0.057, -4.821e-9
-0.056, -5.126e-9
-0.055, -5.245e-9
-0.054, -5.264e-9
-0.053, -5.600e-9
-0.052, -5.844e-9
-0.051, -5.813e-9
-0.050, -6.086e-9
-0.049, -6.446e-9
-0.048, -6.409e-9
-0.047, -6.612e-9
-0.046, -7.009e-9
-0.045, -7.126e-9
-0.044, -7.213e-9
-0.043, -7.603e-9
-0.042, -7.861e-9
-0.041, -7.917e-9
-0.040, -8.216e-9
-0.039, -8.622e-9
-0.038, -8.695e-9
-0.037, -8.911e-9
-0.036, -9.370e-9
-0.035, -9.564e-9
-0.034, -9.663e-9
-0.033, -1.017e-8
-0.032, -1.046e-8
-0.031, -1.058e-8
-0.030, -1.097e-8
-0.029, -1.142e-8
-0.028, -1.158e-8
-0.027, -1.189e-8
-0.026, -1.241e-8
-0.025, -1.272e-8
-0.024, -1.290e-8
-0.023, -1.346e-8
-0.022, -1.388e-8
-0.021, -1.404e-8
-0.020, -1.456e-8
-0.019, -1.511e-8
-0.018, -1.535e-8
-0.017, -1.579e-8
-0.016, -1.638e-8
-0.015, -1.678e-8
-0.014, -1.713e-8
-0.013, -1.776e-8
-0.012, -1.829e-8
-0.011, -1.859e-8
-0.010, -1.920e-8
-0.009, -1.989e-8
-0.008, -2.022e-8
-0.007, -2.078e-8
-0.006, -2.152e-8
-0.005, -2.201e-8
-0.004, -2.250e-8
-0.003, -2.324e-8
-0.002, -2.392e-8
-0.001, -2.438e-8
-0.000, -2.534e-8
0.001, -2.602e-8
0.002, -2.649e-8
0.003, -2.715e-8
0.004, -2.803e-8
0.005, -2.865e-8
0.006, -2.921e-8
0.007, -3.017e-8
0.008, -3.092e-8
0.009, -3.151e-8
0.010, -3.237e-8
0.011, -3.327e-8
0.012, -3.394e-8
0.013, -3.468e-8
0.014, -3.568e-8
0.015, -3.645e-8
0.016, -3.709e-8
0.017, -3.815e-8
0.018, -3.903e-8
0.019, -3.965e-8
0.020, -4.065e-8
0.021, -4.163e-8
0.022, -4.233e-8
0.023, -4.322e-8
0.024, -4.421e-8
0.025, -4.505e-8
0.026, -4.581e-8
0.027, -4.681e-8
0.028, -4.779e-8
0.029, -4.839e-8
0.030, -4.937e-8
0.031, -5.040e-8
0.032, -5.104e-8
0.033, -5.189e-8
0.034, -5.292e-8
0.035, -5.366e-8
0.036, -5.437e-8
0.037, -5.535e-8
0.038, -5.620e-8
0.039, -5.683e-8
0.040, -5.763e-8
0.041, -5.854e-8
0.042, -5.912e-8
0.043, -5.984e-8
0.044, -6.070e-8
0.045, -6.130e-8
0.046, -6.187e-8
0.047, -6.269e-8
0.048, -6.329e-8
0.049, -6.377e-8
0.050, -6.443e-8
0.051, -6.512e-8
0.052, -6.553e-8
0.053, -6.601e-8
0.054, -6.664e-8
0.055, -6.706e-8
0.056, -6.734e-8
0.057, -6.792e-8
0.058, -6.836e-8
0.059, -6.849e-8
0.060, -6.898e-8
0.061, -6.937e-8
0.062, -6.949e-8
0.063, -6.977e-8
0.064, -7.015e-8
0.065, -7.033e-8
0.066, -7.035e-8
0.067, -7.065e-8
0.068, -7.088e-8
0.069, -7.076e-8
0.070, -7.094e-8
0.071, -7.119e-8
0.072, -7.101e-8
0.073, -7.106e-8
0.074, -7.124e-8
0.075, -7.112e-8
0.076, -7.100e-8
0.077, -7.110e-8
0.078, -7.105e-8
0.079, -7.081e-8
0.080, -7.075e-8
0.081, -7.076e-8
0.082, -7.047e-8
0.083, -7.027e-8
0.084, -7.035e-8
0.085, -7.004e-8
0.086, -6.970e-8
0.087, -6.968e-8
0.088, -6.952e-8
0.089, -6.910e-8
0.090, -6.896e-8
0.091, -6.884e-8
0.092, -6.843e-8
0.093, -6.815e-8
0.094, -6.807e-8
0.095, -6.772e-8
0.096, -6.728e-8
0.097, -6.718e-8
0.098, -6.694e-8
0.099, -6.640e-8
0.100, -6.625e-8
0.101, -6.606e-8
0.102, -6.560e-8
0.103, -6.529e-8
0.104, -6.514e-8
0.105, -6.473e-8
0.106, -6.431e-8
0.107, -6.414e-8
0.108, -6.389e-8
0.109, -6.333e-8
0.110, -6.312e-8
0.111, -6.296e-8
0.112, -6.243e-8
0.113, -6.210e-8
0.114, -6.200e-8
0.115, -6.157e-8
0.116, -6.115e-8
0.117, -6.099e-8
0.118, -6.071e-8
0.119, -6.022e-8
0.120, -5.999e-8
0.121, -5.983e-8
0.122, -5.935e-8
0.123, -5.901e-8
0.124, -5.895e-8
0.125, -5.853e-8
0.126, -5.810e-8
0.127, -5.802e-8
0.128, -5.776e-8
0.129, -5.726e-8
0.130, -5.710e-8
0.131, -5.694e-8
0.132, -5.651e-8
0.133, -5.619e-8
0.134, -5.613e-8
0.135, -5.578e-8
0.136, -5.537e-8
0.137, -5.529e-8
0.138, -5.509e-8
0.139, -5.460e-8
0.140, -5.448e-8
0.141, -5.436e-8
0.142, -5.394e-8
0.143, -5.369e-8
0.144, -5.364e-8
0.145, -5.331e-8
0.146, -5.297e-8
0.147, -5.289e-8
0.148, -5.274e-8
0.149, -5.230e-8
0.150, -5.218e-8
0.151, -5.213e-8
0.152, -5.172e-8
0.153, -5.150e-8
0.154, -5.152e-8
0.155, -5.119e-8
0.156, -5.090e-8
0.157, -5.086e-8
0.158, -5.070e-8
0.159, -5.033e-8
0.160, -5.025e-8
0.161, -5.020e-8
0.162, -4.985e-8
0.163, -4.964e-8
0.164, -4.970e-8
0.165, -4.941e-8
0.166, -4.912e-8
0.167, -4.914e-8
0.168, -4.902e-8
0.169, -4.863e-8
0.170, -4.862e-8
0.171, -4.858e-8
0.172, -4.826e-8
0.173, -4.810e-8
0.174, -4.814e-8
0.175, -4.793e-8
0.176, -4.764e-8
0.177, -4.769e-8
0.178, -4.761e-8
0.179, -4.725e-8
0.180, -4.726e-8
0.181, -4.727e-8
0.182, -4.694e-8
0.183, -4.683e-8
0.184, -4.690e-8
0.185, -4.668e-8
0.186, -4.645e-8
0.187, -4.650e-8
0.188, -4.646e-8
0.189, -4.612e-8
0.190, -4.614e-8
0.191, -4.619e-8
0.192, -4.590e-8
0.193, -4.578e-8
0.194, -4.591e-8
0.195, -4.570e-8
0.196, -4.550e-8
0.197, -4.558e-8
0.198, -4.553e-8
0.199, -4.526e-8
0.200, -4.528e-8
0.201, -4.533e-8
0.202, -4.509e-8
0.203, -4.499e-8
0.204, -4.515e-8
0.205, -4.497e-8
0.206, -4.477e-8
0.207, -4.491e-8
0.208, -4.487e-8
0.209, -4.460e-8
0.210, -4.468e-8
0.211, -4.474e-8
0.212, -4.452e-8
0.213, -4.444e-8
0.214, -4.460e-8
0.215, -4.446e-8
0.216, -4.430e-8
0.217, -4.442e-8
0.218, -4.444e-8
0.219, -4.417e-8
0.220, -4.427e-8
0.221, -4.437e-8
0.222, -4.414e-8
0.223, -4.412e-8
0.224, -4.428e-8
0.225, -4.416e-8
0.226, -4.403e-8
0.227, -4.416e-8
0.228, -4.421e-8
0.229, -4.397e-8
0.230, -4.407e-8
0.231, -4.422e-8
0.232, -4.400e-8
0.233, -4.398e-8
0.234, -4.419e-8
0.235, -4.407e-8
0.236, -4.396e-8
0.237, -4.413e-8
0.238, -4.417e-8
0.239, -4.397e-8
0.240, -4.409e-8
0.241, -4.423e-8
0.242, -4.407e-8
0.243, -4.404e-8
0.244, -4.429e-8
0.245, -4.418e-8
0.246, -4.408e-8
0.247, -4.428e-8
0.248, -4.433e-8
0.249, -4.414e-8
0.250, -4.431e-8
0.251, -4.445e-8
0.252, -4.431e-8
0.253, -4.430e-8
0.254, -4.455e-8
0.255, -4.449e-8
0.256, -4.440e-8
0.257, -4.461e-8
0.258, -4.470e-8
0.259, -4.451e-8
0.260, -4.469e-8
0.261, -4.485e-8
0.262, -4.471e-8
0.263, -4.477e-8
0.264, -4.501e-8
0.265, -4.494e-8
0.266, -4.490e-8
0.267, -4.510e-8
0.268, -4.523e-8
0.269, -4.505e-8
0.270, -4.524e-8
0.271, -4.544e-8
0.272, -4.530e-8
0.273, -4.535e-8
0.274, -4.565e-8
0.275, -4.558e-8
0.276, -4.556e-8
0.277, -4.579e-8
0.278, -4.588e-8
0.279, -4.578e-8
0.280, -4.596e-8
0.281, -4.618e-8
0.282, -4.608e-8
0.283, -4.612e-8
0.284, -4.644e-8
0.285, -4.638e-8
0.286, -4.636e-8
0.287, -4.665e-8
0.288, -4.674e-8
0.289, -4.662e-8
0.290, -4.687e-8
0.291, -4.707e-8
0.292, -4.699e-8
0.293, -4.708e-8
0.294, -4.738e-8
0.295, -4.738e-8
0.296, -4.736e-8
0.297, -4.763e-8
0.298, -4.778e-8
0.299, -4.766e-8
0.300, -4.474e-8
0.299, -4.183e-8
0.298, -4.066e-8
0.297, -3.990e-8
0.296, -3.950e-8
0.295, -3.882e-8
0.294, -3.822e-8
0.293, -3.796e-8
0.292, -3.756e-8
0.291, -3.698e-8
0.290, -3.674e-8
0.289, -3.652e-8
0.288, -3.602e-8
0.287, -3.569e-8
0.286, -3.562e-8
0.285, -3.521e-8
0.284, -3.481e-8
0.283, -3.476e-8
0.282, -3.453e-8
0.281, -3.406e-8
0.280, -3.398e-8
0.279, -3.386e-8
0.278, -3.348e-8
0.277, -3.325e-8
0.276, -3.324e-8
0.275, -3.295e-8
0.274, -3.265e-8
0.273, -3.262e-8
0.272, -3.249e-8
0.271, -3.208e-8
0.270, -3.206e-8
0.269, -3.200e-8
0.268, -3.164e-8
0.267, -3.149e-8
0.266, -3.154e-8
0.265, -3.126e-8
0.264, -3.101e-8
0.263, -3.104e-8
0.262, -3.091e-8
0.261, -3.057e-8
0.260, -3.054e-8
0.259, -3.056e-8
0.258, -3.023e-8
0.257, -3.008e-8
0.256, -3.017e-8
0.255, -2.991e-8
0.254, -2.969e-8
0.253, -2.974e-8
0.252, -2.964e-8
0.251, -2.933e-8
0.250, -2.935e-8
0.249, -2.935e-8
0.248, -2.908e-8
0.247, -2.894e-8
0.246, -2.905e-8
0.245, -2.882e-8
0.244, -2.860e-8
0.243, -2.869e-8
0.242, -2.861e-8
0.241, -2.829e-8
0.240, -2.834e-8
0.239, -2.834e-8
0.238, -2.807e-8
0.237, -2.797e-8
0.236, -2.808e-8
0.235, -2.787e-8
0.234, -2.767e-8
0.233, -2.775e-8
0.232, -2.770e-8
0.231, -2.738e-8
0.230, -2.743e-8
0.229, -2.748e-8
0.228, -2.719e-8
0.227, -2.712e-8
0.226, -2.723e-8
0.225, -2.702e-8
0.224, -2.684e-8
0.223, -2.693e-8
0.222, -2.687e-8
0.221, -2.659e-8
0.220, -2.662e-8
0.219, -2.668e-8
0.218, -2.640e-8
0.217, -2.631e-8
0.216, -2.646e-8
0.215, -2.623e-8
0.214, -2.607e-8
0.213, -2.617e-8
0.212, -2.610e-8
0.211, -2.584e-8
0.210, -2.589e-8
0.209, -2.592e-8
0.208, -2.567e-8
0.207, -2.558e-8
0.206, -2.571e-8
0.205, -2.552e-8
0.204, -2.531e-8
0.203, -2.545e-8
0.202, -2.538e-8
0.201, -2.509e-8
0.200, -2.517e-8
0.199, -2.519e-8
0.198, -2.493e-8
0.197, -2.487e-8
0.196, -2.498e-8
0.195, -2.480e-8
0.194, -2.461e-8
0.193, -2.470e-8
0.192, -2.465e-8
0.191, -2.437e-8
0.190, -2.442e-8
0.189, -2.448e-8
0.188, -2.418e-8
0.187, -2.412e-8
0.186, -2.424e-8
0.185, -2.402e-8
0.184, -2.386e-8
0.183, -2.393e-8
0.182, -2.388e-8
0.181, -2.359e-8
0.180, -2.363e-8
0.179, -2.368e-8
0.178, -2.340e-8
0.177, -2.330e-8
0.176, -2.344e-8
0.175, -2.322e-8
0.174, -2.302e-8
0.173, -2.312e-8
0.172, -2.302e-8
0.171, -2.274e-8
0.170, -2.278e-8
0.169, -2.278e-8
0.168, -2.251e-8
0.167, -2.240e-8
0.166, -2.250e-8
0.165, -2.229e-8
0.164, -2.205e-8
0.163, -2.215e-8
0.162, -2.205e-8
0.161, -2.172e-8
0.160, -2.175e-8
0.159, -2.175e-8
0.158, -2.144e-8
0.157, -2.133e-8
0.156, -2.139e-8
0.155, -2.115e-8
0.154, -2.091e-8
0.153, -2.096e-8
0.152, -2.084e-8
0.151, -2.050e-8
0.150, -2.050e-8
0.149, -2.047e-8
0.148, -2.010e-8
0.147, -1.998e-8
0.146, -2.001e-8
0.145, -1.972e-8
0.144, -1.947e-8
0.143, -1.946e-8
0.142, -1.931e-8
0.141, -1.893e-8
0.140, -1.886e-8
0.139, -1.882e-8
0.138, -1.842e-8
0.137, -1.822e-8
0.136, -1.822e-8
0.135, -1.787e-8
0.134, -1.757e-8
0.133, -1.753e-8
0.132, -1.728e-8
0.131, -1.687e-8
0.130, -1.675e-8
0.129, -1.662e-8
0.128, -1.616e-8
0.127, -1.590e-8
0.126, -1.582e-8
0.125, -1.543e-8
0.124, -1.502e-8
0.123, -1.492e-8
0.122, -1.462e-8
0.121, -1.409e-8
0.120, -1.392e-8
0.119, -1.368e-8
0.118, -1.316e-8
0.117, -1.282e-8
0.116, -1.262e-8
0.115, -1.214e-8
0.114, -1.166e-8
0.113, -1.144e-8
0.112, -1.104e-8
0.111, -1.041e-8
0.110, -1.013e-8
0.109, -9.814e-9
0.108, -9.144e-9
0.107, -8.715e-9
0.106, -8.411e-9
0.105, -7.790e-9
0.104, -7.194e-9
0.103, -6.834e-9
0.102, -6.281e-9
0.101, -5.586e-9
0.100, -5.129e-9
0.099, -4.713e-9
0.098, -3.911e-9
0.097, -3.339e-9
0.096, -2.903e-9
0.095, -2.145e-9
0.094, -1.423e-9
0.093, -9.681e-10
0.092, -2.478e-10
0.091, 5.904e-10
0.090, 1.181e-9
0.089, 1.803e-9
0.088, 2.687e-9
0.087, 3.438e-9
0.086, 3.981e-9
0.085, 4.846e-9
0.084, 5.758e-9
0.083, 6.342e-9
0.082, 7.133e-9
0.081, 8.164e-9
0.080, 8.843e-9
0.079, 9.611e-9
0.078, 1.062e-8
0.077, 1.147e-8
0.076, 1.220e-8
0.075, 1.311e-8
0.074, 1.412e-8
0.073, 1.485e-8
0.072, 1.572e-8
0.071, 1.684e-8
0.070, 1.756e-8
0.069, 1.839e-8
0.068, 1.951e-8
0.067, 2.033e-8
0.066, 2.115e-8
0.065, 2.215e-8
0.064, 2.317e-8
0.063, 2.392e-8
0.062, 2.479e-8
0.061, 2.589e-8
0.060, 2.670e-8
0.059, 2.745e-8
0.058, 2.853e-8
0.057, 2.935e-8
0.056, 3.002e-8
0.055, 3.104e-8
0.054, 3.191e-8
0.053, 3.260e-8
0.052, 3.346e-8
0.051, 3.441e-8
0.050, 3.508e-8
0.049, 3.574e-8
0.048, 3.661e-8
0.047, 3.738e-8
0.046, 3.788e-8
0.045, 3.865e-8
0.044, 3.944e-8
0.043, 3.988e-8
0.042, 4.054e-8
0.041, 4.129e-8
0.040, 4.172e-8
0.039, 4.223e-8
0.038, 4.289e-8
0.037, 4.337e-8
0.036, 4.372e-8
0.035, 4.420e-8
0.034, 4.475e-8
0.033, 4.497e-8
0.032, 4.530e-8
0.031, 4.588e-8
0.030, 4.607e-8
0.029, 4.622e-8
0.028, 4.674e-8
0.027, 4.688e-8
0.026, 4.702e-8
0.025, 4.733e-8
0.024, 4.754e-8
0.023, 4.755e-8
0.022, 4.767e-8
0.021, 4.797e-8
0.020, 4.796e-8
0.019, 4.783e-8
0.018, 4.811e-8
0.017, 4.811e-8
0.016, 4.796e-8
0.015, 4.808e-8
0.014, 4.812e-8
0.013, 4.791e-8
0.012, 4.789e-8
0.011, 4.792e-8
0.010, 4.771e-8
0.009, 4.751e-8
0.008, 4.758e-8
0.007, 4.745e-8
0.006, 4.711e-8
0.005, 4.706e-8
0.004, 4.705e-8
0.003, 4.662e-8
0.002, 4.650e-8
0.001, 4.648e-8
0.000, 4.635e-8
-0.001, 4.594e-8
-0.002, 4.587e-8
-0.003, 4.559e-8
-0.004, 4.525e-8
-0.005, 4.507e-8
-0.006, 4.495e-8
-0.007, 4.454e-8
-0.008, 4.429e-8
-0.009, 4.426e-8
-0.010, 4.384e-8
-0.011, 4.351e-8
-0.012, 4.349e-8
-0.013, 4.318e-8
-0.014, 4.275e-8
-0.015, 4.264e-8
-0.016, 4.246e-8
-0.017, 4.205e-8
-0.018, 4.181e-8
-0.019, 4.171e-8
-0.020, 4.138e-8
-0.021, 4.099e-8
-0.022, 4.096e-8
-0.023, 4.069e-8
-0.024, 4.026e-8
-0.025, 4.016e-8
-0.026, 4.001e-8
-0.027, 3.956e-8
-0.028, 3.938e-8
-0.029, 3.931e-8
-0.030, 3.896e-8
-0.031, 3.862e-8
-0.032, 3.859e-8
-0.033, 3.836e-8
-0.034, 3.796e-8
-0.035, 3.788e-8
-0.036, 3.779e-8
-0.037, 3.736e-8
-0.038, 3.721e-8
-0.039, 3.719e-8
-0.040, 3.686e-8
-0.041, 3.657e-8
-0.042, 3.659e-8
-0.043, 3.636e-8
-0.044, 3.604e-8
-0.045, 3.596e-8
-0.046, 3.591e-8
-0.047, 3.556e-8
-0.048, 3.539e-8
-0.049, 3.544e-8
-0.050, 3.515e-8
-0.051, 3.488e-8
-0.052, 3.497e-8
-0.053, 3.477e-8
-0.054, 3.446e-8
-0.055, 3.446e-8
-0.056, 3.442e-8
-0.057, 3.411e-8
-0.058, 3.400e-8
-0.059, 3.405e-8
-0.060, 3.384e-8
-0.061, 3.358e-8
-0.062, 3.370e-8
-0.063, 3.356e-8
-0.064, 3.329e-8
-0.065, 3.332e-8
-0.066, 3.332e-8
-0.067, 3.302e-8
-0.068, 3.298e-8
-0.069, 3.305e-8
-0.070, 3.285e-8
-0.071, 3.266e-8
-0.072, 3.279e-8
-0.073, 3.269e-8
-0.074, 3.245e-8
-0.075, 3.250e-8
-0.076, 3.256e-8
-0.077, 3.228e-8
-0.078, 3.226e-8
-0.079, 3.239e-8
-0.080, 3.218e-8
-0.081, 3.204e-8
-0.082, 3.221e-8
-0.083, 3.211e-8
-0.084, 3.192e-8
-0.085, 3.197e-8
-0.086, 3.206e-8
-0.087, 3.184e-8
-0.088, 3.182e-8
-0.089, 3.199e-8
-0.090, 3.182e-8
-0.091, 3.168e-8
-0.092, 3.190e-8
-0.093, 3.180e-8
-0.094, 3.163e-8
-0.095, 3.177e-8
-0.096, 3.183e-8
-0.097, 3.163e-8
-0.098, 3.165e-8
-0.099, 3.181e-8
-0.100, 3.170e-8
-0.101, 3.156e-8
-0.102, 3.181e-8
-0.103, 3.176e-8
-0.104, 3.158e-8
-0.105, 3.173e-8
-0.106, 3.183e-8
-0.107, 3.164e-8
-0.108, 3.170e-8
-0.109, 3.186e-8
-0.110, 3.175e-8
-0.111, 3.168e-8
-0.112, 3.189e-8
-0.113, 3.188e-8
-0.114, 3.174e-8
-0.115, 3.188e-8
-0.116, 3.204e-8
-0.117, 3.183e-8
-0.118, 3.189e-8
-0.119, 3.213e-8
-0.120, 3.198e-8
-0.121, 3.195e-8
-0.122, 3.220e-8
-0.123, 3.218e-8
-0.124, 3.208e-8
-0.125, 3.223e-8
-0.126, 3.237e-8
-0.127, 3.224e-8
-0.128, 3.231e-8
-0.129, 3.255e-8
-0.130, 3.247e-8
-0.131, 3.241e-8
-0.132, 3.271e-8
-0.133, 3.271e-8
-0.134, 3.259e-8
-0.135, 3.281e-8
-0.136, 3.296e-8
-0.137, 3.286e-8
-0.138, 3.294e-8
-0.139, 3.319e-8
-0.140, 3.316e-8
-0.141, 3.313e-8
-0.142, 3.342e-8
-0.143, 3.348e-8
-0.144, 3.337e-8
-0.145, 3.362e-8
-0.146, 3.379e-8
-0.147, 3.368e-8
-0.148, 3.385e-8
-0.149, 3.410e-8
-0.150, 3.406e-8
-0.151, 3.408e-8
-0.152, 3.439e-8
-0.153, 3.447e-8
-0.154, 3.441e-8
-0.155, 3.466e-8
-0.156, 3.488e-8
-0.157, 3.478e-8
-0.158, 3.493e-8
-0.159, 3.525e-8
-0.160, 3.522e-8
-0.161, 3.527e-8
-0.162, 3.560e-8
-0.163, 3.568e-8
-0.164, 3.566e-8
-0.165, 3.591e-8
-0.166, 3.615e-8
-0.167, 3.612e-8
-0.168, 3.626e-8
-0.169, 3.661e-8
-0.170, 3.661e-8
-0.171, 3.665e-8
-0.172, 3.705e-8
-0.173, 3.712e-8
-0.174, 3.711e-8
-0.175, 3.743e-8
-0.176, 3.766e-8
-0.177, 3.765e-8
-0.178, 3.783e-8
-0.179, 3.819e-8
-0.180, 3.822e-8
-0.181, 3.828e-8
-0.182, 3.867e-8
-0.183, 3.883e-8
-0.184, 3.879e-8
-0.185, 3.915e-8
-0.186, 3.941e-8
-0.187, 3.939e-8
-0.188, 3.964e-8
-0.189, 3.997e-8
-0.190, 4.004e-8
-0.191, 4.015e-8
-0.192, 4.055e-8
-0.193, 4.071e-8
-0.194, 4.073e-8
-0.195, 4.107e-8
-0.196, 4.139e-8
-0.197, 4.136e-8
-0.198, 4.162e-8
-0.199, 4.202e-8
