Mar. 16, 2023   09:50:48
Cyclic Voltammetry
File: c:/users/oliverrz/desktop/electrolab/data/2023_03_16\fcmeoh_macros_750_um\electrode7_cv_50mvs_750_um.bin
Data Source:  Experiment
Instrument Model:  CHI760E
Header: CV
Note: 

Init E (V) = -0.2
High E (V) = 0.3
Low E (V) = -0.2
Final E (V) = -0.2
Init P/N = P
Scan Rate (V/s) = 0.05
Segment = 3
Sample Interval (V) = 0.001
Quiet Time (sec) = 2
Sensitivity (A/V) = 1e-7

Results:

Channel 1:
Segment 1:
Ep = 0.115V
ip = -3.759e-8A
Ah = -4.877e-8C

Segment 2:
Ep = 0.045V
ip = 3.469e-8A
Ah = 4.379e-8C

Segment 3:

Potential/V, Current/A

-0.200, 1.943e-9
-0.199, 1.702e-9
-0.198, 1.648e-9
-0.197, 1.614e-9
-0.196, 1.584e-9
-0.195, 1.563e-9
-0.194, 1.542e-9
-0.193, 1.521e-9
-0.192, 1.499e-9
-0.191, 1.474e-9
-0.190, 1.457e-9
-0.189, 1.441e-9
-0.188, 1.421e-9
-0.187, 1.403e-9
-0.186, 1.381e-9
-0.185, 1.365e-9
-0.184, 1.352e-9
-0.183, 1.334e-9
-0.182, 1.317e-9
-0.181, 1.298e-9
-0.180, 1.283e-9
-0.179, 1.270e-9
-0.178, 1.257e-9
-0.177, 1.239e-9
-0.176, 1.224e-9
-0.175, 1.212e-9
-0.174, 1.201e-9
-0.173, 1.188e-9
-0.172, 1.171e-9
-0.171, 1.155e-9
-0.170, 1.142e-9
-0.169, 1.131e-9
-0.168, 1.121e-9
-0.167, 1.103e-9
-0.166, 1.089e-9
-0.165, 1.078e-9
-0.164, 1.067e-9
-0.163, 1.058e-9
-0.162, 1.042e-9
-0.161, 1.027e-9
-0.160, 1.019e-9
-0.159, 1.010e-9
-0.158, 1.001e-9
-0.157, 9.860e-10
-0.156, 9.723e-10
-0.155, 9.642e-10
-0.154, 9.547e-10
-0.153, 9.458e-10
-0.152, 9.324e-10
-0.151, 9.176e-10
-0.150, 9.114e-10
-0.149, 9.041e-10
-0.148, 8.932e-10
-0.147, 8.817e-10
-0.146, 8.673e-10
-0.145, 8.610e-10
-0.144, 8.539e-10
-0.143, 8.440e-10
-0.142, 8.332e-10
-0.141, 8.185e-10
-0.140, 8.106e-10
-0.139, 8.075e-10
-0.138, 7.974e-10
-0.137, 7.856e-10
-0.136, 7.759e-10
-0.135, 7.675e-10
-0.134, 7.630e-10
-0.133, 7.560e-10
-0.132, 7.438e-10
-0.131, 7.361e-10
-0.130, 7.271e-10
-0.129, 7.229e-10
-0.128, 7.146e-10
-0.127, 7.030e-10
-0.126, 6.941e-10
-0.125, 6.887e-10
-0.124, 6.828e-10
-0.123, 6.776e-10
-0.122, 6.651e-10
-0.121, 6.544e-10
-0.120, 6.492e-10
-0.119, 6.434e-10
-0.118, 6.351e-10
-0.117, 6.235e-10
-0.116, 6.129e-10
-0.115, 6.070e-10
-0.114, 6.009e-10
-0.113, 5.938e-10
-0.112, 5.818e-10
-0.111, 5.690e-10
-0.110, 5.671e-10
-0.109, 5.614e-10
-0.108, 5.507e-10
-0.107, 5.421e-10
-0.106, 5.314e-10
-0.105, 5.246e-10
-0.104, 5.212e-10
-0.103, 5.109e-10
-0.102, 5.002e-10
-0.101, 4.921e-10
-0.100, 4.858e-10
-0.099, 4.819e-10
-0.098, 4.740e-10
-0.097, 4.629e-10
-0.096, 4.534e-10
-0.095, 4.467e-10
-0.094, 4.422e-10
-0.093, 4.351e-10
-0.092, 4.209e-10
-0.091, 4.116e-10
-0.090, 4.041e-10
-0.089, 3.967e-10
-0.088, 3.909e-10
-0.087, 3.773e-10
-0.086, 3.667e-10
-0.085, 3.591e-10
-0.084, 3.513e-10
-0.083, 3.429e-10
-0.082, 3.295e-10
-0.081, 3.153e-10
-0.080, 3.095e-10
-0.079, 3.000e-10
-0.078, 2.912e-10
-0.077, 2.751e-10
-0.076, 2.601e-10
-0.075, 2.527e-10
-0.074, 2.432e-10
-0.073, 2.329e-10
-0.072, 2.191e-10
-0.071, 2.035e-10
-0.070, 1.955e-10
-0.069, 1.847e-10
-0.068, 1.713e-10
-0.067, 1.551e-10
-0.066, 1.379e-10
-0.065, 1.259e-10
-0.064, 1.141e-10
-0.063, 9.719e-11
-0.062, 8.055e-11
-0.061, 6.175e-11
-0.060, 4.678e-11
-0.059, 3.438e-11
-0.058, 1.754e-11
-0.057, -3.721e-12
-0.056, -2.361e-11
-0.055, -4.162e-11
-0.054, -5.659e-11
-0.053, -7.667e-11
-0.052, -1.007e-10
-0.051, -1.265e-10
-0.050, -1.477e-10
-0.049, -1.669e-10
-0.048, -1.891e-10
-0.047, -2.189e-10
-0.046, -2.457e-10
-0.045, -2.694e-10
-0.044, -2.927e-10
-0.043, -3.184e-10
-0.042, -3.519e-10
-0.041, -3.837e-10
-0.040, -4.126e-10
-0.039, -4.458e-10
-0.038, -4.757e-10
-0.037, -5.127e-10
-0.036, -5.514e-10
-0.035, -5.827e-10
-0.034, -6.200e-10
-0.033, -6.580e-10
-0.032, -7.014e-10
-0.031, -7.487e-10
-0.030, -7.859e-10
-0.029, -8.312e-10
-0.028, -8.781e-10
-0.027, -9.273e-10
-0.026, -9.815e-10
-0.025, -1.028e-9
-0.024, -1.080e-9
-0.023, -1.135e-9
-0.022, -1.193e-9
-0.021, -1.254e-9
-0.020, -1.315e-9
-0.019, -1.373e-9
-0.018, -1.440e-9
-0.017, -1.512e-9
-0.016, -1.586e-9
-0.015, -1.657e-9
-0.014, -1.729e-9
-0.013, -1.811e-9
-0.012, -1.896e-9
-0.011, -1.979e-9
-0.010, -2.067e-9
-0.009, -2.154e-9
-0.008, -2.247e-9
-0.007, -2.348e-9
-0.006, -2.444e-9
-0.005, -2.549e-9
-0.004, -2.654e-9
-0.003, -2.763e-9
-0.002, -2.886e-9
-0.001, -3.005e-9
-0.000, -3.153e-9
0.001, -3.281e-9
0.002, -3.403e-9
0.003, -3.529e-9
0.004, -3.672e-9
0.005, -3.812e-9
0.006, -3.962e-9
0.007, -4.118e-9
0.008, -4.280e-9
0.009, -4.451e-9
0.010, -4.616e-9
0.011, -4.794e-9
0.012, -4.977e-9
0.013, -5.169e-9
0.014, -5.365e-9
0.015, -5.561e-9
0.016, -5.768e-9
0.017, -5.986e-9
0.018, -6.202e-9
0.019, -6.432e-9
0.020, -6.664e-9
0.021, -6.901e-9
0.022, -7.155e-9
0.023, -7.417e-9
0.024, -7.681e-9
0.025, -7.953e-9
0.026, -8.233e-9
0.027, -8.519e-9
0.028, -8.815e-9
0.029, -9.112e-9
0.030, -9.419e-9
0.031, -9.731e-9
0.032, -1.006e-8
0.033, -1.040e-8
0.034, -1.073e-8
0.035, -1.108e-8
0.036, -1.144e-8
0.037, -1.179e-8
0.038, -1.218e-8
0.039, -1.256e-8
0.040, -1.294e-8
0.041, -1.334e-8
0.042, -1.374e-8
0.043, -1.415e-8
0.044, -1.458e-8
0.045, -1.499e-8
0.046, -1.544e-8
0.047, -1.588e-8
0.048, -1.633e-8
0.049, -1.678e-8
0.050, -1.723e-8
0.051, -1.771e-8
0.052, -1.818e-8
0.053, -1.865e-8
0.054, -1.914e-8
0.055, -1.961e-8
0.056, -2.010e-8
0.057, -2.060e-8
0.058, -2.108e-8
0.059, -2.159e-8
0.060, -2.209e-8
0.061, -2.259e-8
0.062, -2.309e-8
0.063, -2.361e-8
0.064, -2.411e-8
0.065, -2.462e-8
0.066, -2.511e-8
0.067, -2.561e-8
0.068, -2.612e-8
0.069, -2.661e-8
0.070, -2.710e-8
0.071, -2.758e-8
0.072, -2.806e-8
0.073, -2.855e-8
0.074, -2.901e-8
0.075, -2.947e-8
0.076, -2.993e-8
0.077, -3.039e-8
0.078, -3.084e-8
0.079, -3.127e-8
0.080, -3.169e-8
0.081, -3.211e-8
0.082, -3.251e-8
0.083, -3.290e-8
0.084, -3.328e-8
0.085, -3.364e-8
0.086, -3.401e-8
0.087, -3.435e-8
0.088, -3.468e-8
0.089, -3.501e-8
0.090, -3.531e-8
0.091, -3.561e-8
0.092, -3.590e-8
0.093, -3.616e-8
0.094, -3.642e-8
0.095, -3.665e-8
0.096, -3.688e-8
0.097, -3.710e-8
0.098, -3.730e-8
0.099, -3.749e-8
0.100, -3.766e-8
0.101, -3.781e-8
0.102, -3.798e-8
0.103, -3.813e-8
0.104, -3.825e-8
0.105, -3.837e-8
0.106, -3.845e-8
0.107, -3.853e-8
0.108, -3.862e-8
0.109, -3.867e-8
0.110, -3.873e-8
0.111, -3.877e-8
0.112, -3.880e-8
0.113, -3.883e-8
0.114, -3.883e-8
0.115, -3.884e-8
0.116, -3.883e-8
0.117, -3.881e-8
0.118, -3.880e-8
0.119, -3.876e-8
0.120, -3.871e-8
0.121, -3.866e-8
0.122, -3.860e-8
0.123, -3.855e-8
0.124, -3.849e-8
0.125, -3.841e-8
0.126, -3.834e-8
0.127, -3.825e-8
0.128, -3.817e-8
0.129, -3.808e-8
0.130, -3.798e-8
0.131, -3.788e-8
0.132, -3.777e-8
0.133, -3.766e-8
0.134, -3.756e-8
0.135, -3.743e-8
0.136, -3.731e-8
0.137, -3.720e-8
0.138, -3.708e-8
0.139, -3.696e-8
0.140, -3.683e-8
0.141, -3.671e-8
0.142, -3.659e-8
0.143, -3.646e-8
0.144, -3.633e-8
0.145, -3.620e-8
0.146, -3.606e-8
0.147, -3.593e-8
0.148, -3.580e-8
0.149, -3.567e-8
0.150, -3.554e-8
0.151, -3.540e-8
0.152, -3.527e-8
0.153, -3.515e-8
0.154, -3.502e-8
0.155, -3.489e-8
0.156, -3.476e-8
0.157, -3.462e-8
0.158, -3.450e-8
0.159, -3.437e-8
0.160, -3.424e-8
0.161, -3.411e-8
0.162, -3.399e-8
0.163, -3.387e-8
0.164, -3.375e-8
0.165, -3.363e-8
0.166, -3.350e-8
0.167, -3.338e-8
0.168, -3.326e-8
0.169, -3.315e-8
0.170, -3.303e-8
0.171, -3.291e-8
0.172, -3.280e-8
0.173, -3.269e-8
0.174, -3.258e-8
0.175, -3.247e-8
0.176, -3.236e-8
0.177, -3.225e-8
0.178, -3.215e-8
0.179, -3.204e-8
0.180, -3.194e-8
0.181, -3.183e-8
0.182, -3.173e-8
0.183, -3.164e-8
0.184, -3.154e-8
0.185, -3.144e-8
0.186, -3.135e-8
0.187, -3.125e-8
0.188, -3.117e-8
0.189, -3.107e-8
0.190, -3.098e-8
0.191, -3.088e-8
0.192, -3.079e-8
0.193, -3.071e-8
0.194, -3.062e-8
0.195, -3.054e-8
0.196, -3.045e-8
0.197, -3.037e-8
0.198, -3.029e-8
0.199, -3.021e-8
0.200, -3.013e-8
0.201, -3.006e-8
0.202, -2.998e-8
0.203, -2.991e-8
0.204, -2.984e-8
0.205, -2.977e-8
0.206, -2.970e-8
0.207, -2.963e-8
0.208, -2.956e-8
0.209, -2.949e-8
0.210, -2.942e-8
0.211, -2.935e-8
0.212, -2.928e-8
0.213, -2.922e-8
0.214, -2.916e-8
0.215, -2.910e-8
0.216, -2.903e-8
0.217, -2.898e-8
0.218, -2.892e-8
0.219, -2.887e-8
0.220, -2.881e-8
0.221, -2.875e-8
0.222, -2.870e-8
0.223, -2.865e-8
0.224, -2.859e-8
0.225, -2.854e-8
0.226, -2.848e-8
0.227, -2.843e-8
0.228, -2.839e-8
0.229, -2.834e-8
0.230, -2.829e-8
0.231, -2.824e-8
0.232, -2.819e-8
0.233, -2.814e-8
0.234, -2.809e-8
0.235, -2.805e-8
0.236, -2.800e-8
0.237, -2.795e-8
0.238, -2.792e-8
0.239, -2.788e-8
0.240, -2.783e-8
0.241, -2.779e-8
0.242, -2.775e-8
0.243, -2.771e-8
0.244, -2.767e-8
0.245, -2.763e-8
0.246, -2.759e-8
0.247, -2.755e-8
0.248, -2.751e-8
0.249, -2.748e-8
0.250, -2.744e-8
0.251, -2.740e-8
0.252, -2.737e-8
0.253, -2.734e-8
0.254, -2.730e-8
0.255, -2.726e-8
0.256, -2.723e-8
0.257, -2.720e-8
0.258, -2.717e-8
0.259, -2.714e-8
0.260, -2.710e-8
0.261, -2.707e-8
0.262, -2.705e-8
0.263, -2.702e-8
0.264, -2.699e-8
0.265, -2.696e-8
0.266, -2.692e-8
0.267, -2.690e-8
0.268, -2.687e-8
0.269, -2.684e-8
0.270, -2.681e-8
0.271, -2.679e-8
0.272, -2.676e-8
0.273, -2.674e-8
0.274, -2.671e-8
0.275, -2.669e-8
0.276, -2.666e-8
0.277, -2.663e-8
0.278, -2.662e-8
0.279, -2.659e-8
0.280, -2.657e-8
0.281, -2.654e-8
0.282, -2.653e-8
0.283, -2.651e-8
0.284, -2.648e-8
0.285, -2.645e-8
0.286, -2.643e-8
0.287, -2.641e-8
0.288, -2.639e-8
0.289, -2.637e-8
0.290, -2.635e-8
0.291, -2.633e-8
0.292, -2.632e-8
0.293, -2.630e-8
0.294, -2.628e-8
0.295, -2.626e-8
0.296, -2.624e-8
0.297, -2.623e-8
0.298, -2.621e-8
0.299, -2.619e-8
0.300, -2.597e-8
0.299, -2.542e-8
0.298, -2.524e-8
0.297, -2.514e-8
0.296, -2.506e-8
0.295, -2.498e-8
0.294, -2.491e-8
0.293, -2.484e-8
0.292, -2.478e-8
0.291, -2.472e-8
0.290, -2.466e-8
0.289, -2.460e-8
0.288, -2.455e-8
0.287, -2.450e-8
0.286, -2.445e-8
0.285, -2.440e-8
0.284, -2.435e-8
0.283, -2.430e-8
0.282, -2.426e-8
0.281, -2.422e-8
0.280, -2.418e-8
0.279, -2.414e-8
0.278, -2.410e-8
0.277, -2.406e-8
0.276, -2.402e-8
0.275, -2.398e-8
0.274, -2.393e-8
0.273, -2.390e-8
0.272, -2.387e-8
0.271, -2.383e-8
0.270, -2.379e-8
0.269, -2.375e-8
0.268, -2.372e-8
0.267, -2.369e-8
0.266, -2.365e-8
0.265, -2.362e-8
0.264, -2.358e-8
0.263, -2.355e-8
0.262, -2.353e-8
0.261, -2.349e-8
0.260, -2.345e-8
0.259, -2.342e-8
0.258, -2.339e-8
0.257, -2.336e-8
0.256, -2.333e-8
0.255, -2.329e-8
0.254, -2.326e-8
0.253, -2.323e-8
0.252, -2.321e-8
0.251, -2.318e-8
0.250, -2.314e-8
0.249, -2.312e-8
0.248, -2.309e-8
0.247, -2.306e-8
0.246, -2.303e-8
0.245, -2.299e-8
0.244, -2.296e-8
0.243, -2.293e-8
0.242, -2.290e-8
0.241, -2.287e-8
0.240, -2.284e-8
0.239, -2.281e-8
0.238, -2.278e-8
0.237, -2.276e-8
0.236, -2.273e-8
0.235, -2.269e-8
0.234, -2.266e-8
0.233, -2.263e-8
0.232, -2.261e-8
0.231, -2.258e-8
0.230, -2.254e-8
0.229, -2.251e-8
0.228, -2.248e-8
0.227, -2.246e-8
0.226, -2.242e-8
0.225, -2.239e-8
0.224, -2.235e-8
0.223, -2.232e-8
0.222, -2.229e-8
0.221, -2.226e-8
0.220, -2.223e-8
0.219, -2.220e-8
0.218, -2.217e-8
0.217, -2.214e-8
0.216, -2.210e-8
0.215, -2.206e-8
0.214, -2.203e-8
0.213, -2.200e-8
0.212, -2.196e-8
0.211, -2.193e-8
0.210, -2.189e-8
0.209, -2.185e-8
0.208, -2.182e-8
0.207, -2.178e-8
0.206, -2.174e-8
0.205, -2.170e-8
0.204, -2.165e-8
0.203, -2.162e-8
0.202, -2.157e-8
0.201, -2.153e-8
0.200, -2.149e-8
0.199, -2.144e-8
0.198, -2.140e-8
0.197, -2.136e-8
0.196, -2.130e-8
0.195, -2.125e-8
0.194, -2.120e-8
0.193, -2.115e-8
0.192, -2.111e-8
0.191, -2.105e-8
0.190, -2.099e-8
0.189, -2.093e-8
0.188, -2.088e-8
0.187, -2.082e-8
0.186, -2.076e-8
0.185, -2.069e-8
0.184, -2.063e-8
0.183, -2.057e-8
0.182, -2.050e-8
0.181, -2.042e-8
0.180, -2.035e-8
0.179, -2.028e-8
0.178, -2.020e-8
0.177, -2.013e-8
0.176, -2.005e-8
0.175, -1.996e-8
0.174, -1.988e-8
0.173, -1.979e-8
0.172, -1.970e-8
0.171, -1.960e-8
0.170, -1.950e-8
0.169, -1.940e-8
0.168, -1.930e-8
0.167, -1.920e-8
0.166, -1.910e-8
0.165, -1.899e-8
0.164, -1.887e-8
0.163, -1.876e-8
0.162, -1.863e-8
0.161, -1.851e-8
0.160, -1.838e-8
0.159, -1.824e-8
0.158, -1.811e-8
0.157, -1.797e-8
0.156, -1.782e-8
0.155, -1.766e-8
0.154, -1.750e-8
0.153, -1.735e-8
0.152, -1.718e-8
0.151, -1.701e-8
0.150, -1.683e-8
0.149, -1.665e-8
0.148, -1.646e-8
0.147, -1.628e-8
0.146, -1.607e-8
0.145, -1.587e-8
0.144, -1.566e-8
0.143, -1.545e-8
0.142, -1.522e-8
0.141, -1.498e-8
0.140, -1.474e-8
0.139, -1.450e-8
0.138, -1.425e-8
0.137, -1.400e-8
0.136, -1.373e-8
0.135, -1.345e-8
0.134, -1.318e-8
0.133, -1.289e-8
0.132, -1.261e-8
0.131, -1.230e-8
0.130, -1.199e-8
0.129, -1.167e-8
0.128, -1.135e-8
0.127, -1.102e-8
0.126, -1.068e-8
0.125, -1.033e-8
0.124, -9.975e-9
0.123, -9.618e-9
0.122, -9.244e-9
0.121, -8.875e-9
0.120, -8.470e-9
0.119, -8.076e-9
0.118, -7.688e-9
0.117, -7.270e-9
0.116, -6.854e-9
0.115, -6.423e-9
0.114, -5.986e-9
0.113, -5.562e-9
0.112, -5.116e-9
0.111, -4.662e-9
0.110, -4.209e-9
0.109, -3.737e-9
0.108, -3.287e-9
0.107, -2.816e-9
0.106, -2.326e-9
0.105, -1.851e-9
0.104, -1.356e-9
0.103, -8.702e-10
0.102, -3.648e-10
0.101, 1.413e-10
0.100, 6.333e-10
0.099, 1.136e-9
0.098, 1.643e-9
0.097, 2.138e-9
0.096, 2.638e-9
0.095, 3.139e-9
0.094, 3.626e-9
0.093, 4.140e-9
0.092, 4.625e-9
0.091, 5.135e-9
0.090, 5.636e-9
0.089, 6.115e-9
0.088, 6.594e-9
0.087, 7.073e-9
0.086, 7.536e-9
0.085, 8.015e-9
0.084, 8.471e-9
0.083, 8.927e-9
0.082, 9.384e-9
0.081, 9.810e-9
0.080, 1.024e-8
0.079, 1.066e-8
0.078, 1.106e-8
0.077, 1.148e-8
0.076, 1.187e-8
0.075, 1.224e-8
0.074, 1.261e-8
0.073, 1.294e-8
0.072, 1.329e-8
0.071, 1.363e-8
0.070, 1.393e-8
0.069, 1.425e-8
0.068, 1.453e-8
0.067, 1.480e-8
0.066, 1.507e-8
0.065, 1.532e-8
0.064, 1.557e-8
0.063, 1.580e-8
0.062, 1.600e-8
0.061, 1.621e-8
0.060, 1.639e-8
0.059, 1.657e-8
0.058, 1.673e-8
0.057, 1.687e-8
0.056, 1.701e-8
0.055, 1.713e-8
0.054, 1.723e-8
0.053, 1.734e-8
0.052, 1.743e-8
0.051, 1.751e-8
0.050, 1.758e-8
0.049, 1.763e-8
0.048, 1.767e-8
0.047, 1.770e-8
0.046, 1.773e-8
0.045, 1.775e-8
0.044, 1.775e-8
0.043, 1.774e-8
0.042, 1.774e-8
0.041, 1.771e-8
0.040, 1.769e-8
0.039, 1.766e-8
0.038, 1.761e-8
0.037, 1.757e-8
0.036, 1.751e-8
0.035, 1.745e-8
0.034, 1.739e-8
0.033, 1.731e-8
0.032, 1.723e-8
0.031, 1.716e-8
0.030, 1.707e-8
0.029, 1.699e-8
0.028, 1.689e-8
0.027, 1.679e-8
0.026, 1.670e-8
0.025, 1.659e-8
0.024, 1.649e-8
0.023, 1.638e-8
0.022, 1.625e-8
0.021, 1.614e-8
0.020, 1.603e-8
0.019, 1.591e-8
0.018, 1.579e-8
0.017, 1.567e-8
0.016, 1.555e-8
0.015, 1.544e-8
0.014, 1.531e-8
0.013, 1.519e-8
0.012, 1.506e-8
0.011, 1.494e-8
0.010, 1.482e-8
0.009, 1.469e-8
0.008, 1.456e-8
0.007, 1.444e-8
0.006, 1.432e-8
0.005, 1.420e-8
0.004, 1.408e-8
0.003, 1.395e-8
0.002, 1.383e-8
0.001, 1.370e-8
0.000, 1.361e-8
-0.001, 1.349e-8
-0.002, 1.335e-8
-0.003, 1.323e-8
-0.004, 1.312e-8
-0.005, 1.300e-8
-0.006, 1.289e-8
-0.007, 1.277e-8
-0.008, 1.265e-8
-0.009, 1.254e-8
-0.010, 1.243e-8
-0.011, 1.232e-8
-0.012, 1.221e-8
-0.013, 1.211e-8
-0.014, 1.200e-8
-0.015, 1.190e-8
-0.016, 1.180e-8
-0.017, 1.169e-8
-0.018, 1.158e-8
-0.019, 1.149e-8
-0.020, 1.139e-8
-0.021, 1.129e-8
-0.022, 1.119e-8
-0.023, 1.109e-8
-0.024, 1.100e-8
-0.025, 1.091e-8
-0.026, 1.082e-8
-0.027, 1.073e-8
-0.028, 1.064e-8
-0.029, 1.055e-8
-0.030, 1.047e-8
-0.031, 1.038e-8
-0.032, 1.029e-8
-0.033, 1.021e-8
-0.034, 1.013e-8
-0.035, 1.005e-8
-0.036, 9.969e-9
-0.037, 9.886e-9
-0.038, 9.811e-9
-0.039, 9.738e-9
-0.040, 9.661e-9
-0.041, 9.588e-9
-0.042, 9.513e-9
-0.043, 9.439e-9
-0.044, 9.371e-9
-0.045, 9.302e-9
-0.046, 9.234e-9
-0.047, 9.160e-9
-0.048, 9.093e-9
-0.049, 9.031e-9
-0.050, 8.968e-9
-0.051, 8.905e-9
-0.052, 8.837e-9
-0.053, 8.774e-9
-0.054, 8.717e-9
-0.055, 8.656e-9
-0.056, 8.595e-9
-0.057, 8.534e-9
-0.058, 8.469e-9
-0.059, 8.415e-9
-0.060, 8.360e-9
-0.061, 8.303e-9
-0.062, 8.249e-9
-0.063, 8.195e-9
-0.064, 8.147e-9
-0.065, 8.096e-9
-0.066, 8.042e-9
-0.067, 7.990e-9
-0.068, 7.939e-9
-0.069, 7.891e-9
-0.070, 7.848e-9
-0.071, 7.797e-9
-0.072, 7.748e-9
-0.073, 7.703e-9
-0.074, 7.658e-9
-0.075, 7.618e-9
-0.076, 7.572e-9
-0.077, 7.525e-9
-0.078, 7.480e-9
-0.079, 7.440e-9
-0.080, 7.401e-9
-0.081, 7.360e-9
-0.082, 7.315e-9
-0.083, 7.276e-9
-0.084, 7.240e-9
-0.085, 7.204e-9
-0.086, 7.167e-9
-0.087, 7.124e-9
-0.088, 7.087e-9
-0.089, 7.055e-9
-0.090, 7.017e-9
-0.091, 6.981e-9
-0.092, 6.944e-9
-0.093, 6.908e-9
-0.094, 6.879e-9
-0.095, 6.846e-9
-0.096, 6.811e-9
-0.097, 6.776e-9
-0.098, 6.743e-9
-0.099, 6.715e-9
-0.100, 6.687e-9
-0.101, 6.654e-9
-0.102, 6.623e-9
-0.103, 6.592e-9
-0.104, 6.566e-9
-0.105, 6.538e-9
-0.106, 6.507e-9
-0.107, 6.476e-9
-0.108, 6.450e-9
-0.109, 6.427e-9
-0.110, 6.404e-9
-0.111, 6.375e-9
-0.112, 6.345e-9
-0.113, 6.320e-9
-0.114, 6.296e-9
-0.115, 6.273e-9
-0.116, 6.247e-9
-0.117, 6.217e-9
-0.118, 6.198e-9
-0.119, 6.175e-9
-0.120, 6.154e-9
-0.121, 6.131e-9
-0.122, 6.103e-9
-0.123, 6.081e-9
-0.124, 6.063e-9
-0.125, 6.042e-9
-0.126, 6.019e-9
-0.127, 5.994e-9
-0.128, 5.976e-9
-0.129, 5.961e-9
-0.130, 5.941e-9
-0.131, 5.923e-9
-0.132, 5.900e-9
-0.133, 5.882e-9
-0.134, 5.868e-9
-0.135, 5.848e-9
-0.136, 5.830e-9
-0.137, 5.810e-9
-0.138, 5.791e-9
-0.139, 5.776e-9
-0.140, 5.761e-9
-0.141, 5.742e-9
-0.142, 5.724e-9
-0.143, 5.708e-9
-0.144, 5.697e-9
-0.145, 5.683e-9
-0.146, 5.665e-9
-0.147, 5.648e-9
-0.148, 5.634e-9
-0.149, 5.622e-9
-0.150, 5.612e-9
-0.151, 5.592e-9
-0.152, 5.576e-9
-0.153, 5.565e-9
-0.154, 5.555e-9
-0.155, 5.544e-9
-0.156, 5.529e-9
-0.157, 5.512e-9
-0.158, 5.503e-9
-0.159, 5.494e-9
-0.160, 5.482e-9
-0.161, 5.473e-9
-0.162, 5.456e-9
-0.163, 5.448e-9
-0.164, 5.441e-9
-0.165, 5.431e-9
-0.166, 5.422e-9
-0.167, 5.407e-9
-0.168, 5.400e-9
-0.169, 5.396e-9
-0.170, 5.388e-9
-0.171, 5.378e-9
-0.172, 5.367e-9
-0.173, 5.358e-9
-0.174, 5.356e-9
-0.175, 5.348e-9
-0.176, 5.340e-9
-0.177, 5.330e-9
-0.178, 5.322e-9
-0.179, 5.323e-9
-0.180, 5.317e-9
-0.181, 5.307e-9
-0.182, 5.298e-9
-0.183, 5.293e-9
-0.184, 5.292e-9
-0.185, 5.291e-9
-0.186, 5.280e-9
-0.187, 5.275e-9
-0.188, 5.271e-9
-0.189, 5.270e-9
-0.190, 5.269e-9
-0.191, 5.261e-9
-0.192, 5.256e-9
-0.193, 5.255e-9
-0.194, 5.253e-9
-0.195, 5.254e-9
-0.196, 5.249e-9
-0.197, 5.244e-9
-0.198, 5.247e-9
-0.199, 5.246e-9
