Mar. 16, 2023   09:48:48
Cyclic Voltammetry
File: c:/users/oliverrz/desktop/electrolab/data/2023_03_16\fcmeoh_macros_750_um\electrode5_cv_200mvs_750_um.bin
Data Source:  Experiment
Instrument Model:  CHI760E
Header: CV
Note: 

Init E (V) = -0.2
High E (V) = 0.3
Low E (V) = -0.2
Final E (V) = -0.2
Init P/N = P
Scan Rate (V/s) = 0.2
Segment = 3
Sample Interval (V) = 0.001
Quiet Time (sec) = 2
Sensitivity (A/V) = 1e-7

Results:

Channel 1:
Segment 1:
Ep = 0.108V
ip = -6.548e-8A
Ah = -2.033e-8C

Segment 2:
Ep = 0.044V
ip = 6.314e-8A
Ah = 2.010e-8C

Segment 3:

Potential/V, Current/A

-0.200, 9.540e-9
-0.199, 8.189e-9
-0.198, 8.079e-9
-0.197, 7.812e-9
-0.196, 7.442e-9
-0.195, 7.435e-9
-0.194, 7.358e-9
-0.193, 6.992e-9
-0.192, 6.932e-9
-0.191, 6.951e-9
-0.190, 6.671e-9
-0.189, 6.485e-9
-0.188, 6.559e-9
-0.187, 6.405e-9
-0.186, 6.144e-9
-0.185, 6.153e-9
-0.184, 6.141e-9
-0.183, 5.845e-9
-0.182, 5.783e-9
-0.181, 5.859e-9
-0.180, 5.602e-9
-0.179, 5.418e-9
-0.178, 5.554e-9
-0.177, 5.373e-9
-0.176, 5.137e-9
-0.175, 5.201e-9
-0.174, 5.166e-9
-0.173, 4.917e-9
-0.172, 4.841e-9
-0.171, 4.939e-9
-0.170, 4.723e-9
-0.169, 4.509e-9
-0.168, 4.680e-9
-0.167, 4.522e-9
-0.166, 4.281e-9
-0.165, 4.354e-9
-0.164, 4.350e-9
-0.163, 4.085e-9
-0.162, 4.055e-9
-0.161, 4.119e-9
-0.160, 3.934e-9
-0.159, 3.755e-9
-0.158, 3.902e-9
-0.157, 3.765e-9
-0.156, 3.532e-9
-0.155, 3.607e-9
-0.154, 3.615e-9
-0.153, 3.331e-9
-0.152, 3.340e-9
-0.151, 3.427e-9
-0.150, 3.209e-9
-0.149, 3.063e-9
-0.148, 3.200e-9
-0.147, 3.096e-9
-0.146, 2.862e-9
-0.145, 2.924e-9
-0.144, 2.972e-9
-0.143, 2.694e-9
-0.142, 2.668e-9
-0.141, 2.785e-9
-0.140, 2.585e-9
-0.139, 2.437e-9
-0.138, 2.590e-9
-0.137, 2.468e-9
-0.136, 2.260e-9
-0.135, 2.355e-9
-0.134, 2.349e-9
-0.133, 2.118e-9
-0.132, 2.095e-9
-0.131, 2.220e-9
-0.130, 2.023e-9
-0.129, 1.866e-9
-0.128, 2.024e-9
-0.127, 1.918e-9
-0.126, 1.695e-9
-0.125, 1.799e-9
-0.124, 1.821e-9
-0.123, 1.574e-9
-0.122, 1.581e-9
-0.121, 1.676e-9
-0.120, 1.515e-9
-0.119, 1.347e-9
-0.118, 1.510e-9
-0.117, 1.419e-9
-0.116, 1.197e-9
-0.115, 1.288e-9
-0.114, 1.340e-9
-0.113, 1.072e-9
-0.112, 1.098e-9
-0.111, 1.207e-9
-0.110, 1.016e-9
-0.109, 8.946e-10
-0.108, 1.043e-9
-0.107, 9.432e-10
-0.106, 7.398e-10
-0.105, 8.200e-10
-0.104, 8.858e-10
-0.103, 6.029e-10
-0.102, 6.187e-10
-0.101, 7.502e-10
-0.100, 5.579e-10
-0.099, 4.202e-10
-0.098, 6.043e-10
-0.097, 4.736e-10
-0.096, 2.951e-10
-0.095, 3.808e-10
-0.094, 4.111e-10
-0.093, 1.848e-10
-0.092, 1.807e-10
-0.091, 3.043e-10
-0.090, 1.242e-10
-0.089, -2.853e-11
-0.088, 1.585e-10
-0.087, 6.411e-11
-0.086, -1.626e-10
-0.085, -4.438e-11
-0.084, -1.347e-11
-0.083, -2.441e-10
-0.082, -2.482e-10
-0.081, -1.458e-10
-0.080, -2.961e-10
-0.079, -4.523e-10
-0.078, -2.931e-10
-0.077, -3.796e-10
-0.076, -5.960e-10
-0.075, -5.066e-10
-0.074, -4.478e-10
-0.073, -7.219e-10
-0.072, -6.983e-10
-0.071, -5.818e-10
-0.070, -7.844e-10
-0.069, -9.093e-10
-0.068, -7.657e-10
-0.067, -8.457e-10
-0.066, -1.051e-9
-0.065, -9.967e-10
-0.064, -9.364e-10
-0.063, -1.194e-9
-0.062, -1.205e-9
-0.061, -1.084e-9
-0.060, -1.279e-9
-0.059, -1.429e-9
-0.058, -1.264e-9
-0.057, -1.397e-9
-0.056, -1.588e-9
-0.055, -1.525e-9
-0.054, -1.496e-9
-0.053, -1.748e-9
-0.052, -1.786e-9
-0.051, -1.676e-9
-0.050, -1.868e-9
-0.049, -2.058e-9
-0.048, -1.878e-9
-0.047, -2.015e-9
-0.046, -2.261e-9
-0.045, -2.185e-9
-0.044, -2.170e-9
-0.043, -2.447e-9
-0.042, -2.474e-9
-0.041, -2.406e-9
-0.040, -2.602e-9
-0.039, -2.797e-9
-0.038, -2.681e-9
-0.037, -2.804e-9
-0.036, -3.068e-9
-0.035, -3.020e-9
-0.034, -3.022e-9
-0.033, -3.342e-9
-0.032, -3.383e-9
-0.031, -3.333e-9
-0.030, -3.577e-9
-0.029, -3.760e-9
-0.028, -3.676e-9
-0.027, -3.846e-9
-0.026, -4.131e-9
-0.025, -4.141e-9
-0.024, -4.159e-9
-0.023, -4.495e-9
-0.022, -4.597e-9
-0.021, -4.565e-9
-0.020, -4.854e-9
-0.019, -5.093e-9
-0.018, -5.024e-9
-0.017, -5.278e-9
-0.016, -5.568e-9
-0.015, -5.617e-9
-0.014, -5.717e-9
-0.013, -6.086e-9
-0.012, -6.241e-9
-0.011, -6.258e-9
-0.010, -6.580e-9
-0.009, -6.921e-9
-0.008, -6.896e-9
-0.007, -7.176e-9
-0.006, -7.572e-9
-0.005, -7.660e-9
-0.004, -7.838e-9
-0.003, -8.271e-9
-0.002, -8.492e-9
-0.001, -8.622e-9
-0.000, -9.150e-9
0.001, -9.432e-9
0.002, -9.523e-9
0.003, -9.851e-9
0.004, -1.033e-8
0.005, -1.052e-8
0.006, -1.075e-8
0.007, -1.132e-8
0.008, -1.160e-8
0.009, -1.181e-8
0.010, -1.232e-8
0.011, -1.280e-8
0.012, -1.300e-8
0.013, -1.346e-8
0.014, -1.402e-8
0.015, -1.438e-8
0.016, -1.469e-8
0.017, -1.537e-8
0.018, -1.583e-8
0.019, -1.613e-8
0.020, -1.677e-8
0.021, -1.736e-8
0.022, -1.770e-8
0.023, -1.832e-8
0.024, -1.899e-8
0.025, -1.946e-8
0.026, -1.998e-8
0.027, -2.073e-8
0.028, -2.137e-8
0.029, -2.180e-8
0.030, -2.256e-8
0.031, -2.337e-8
0.032, -2.380e-8
0.033, -2.457e-8
0.034, -2.543e-8
0.035, -2.601e-8
0.036, -2.669e-8
0.037, -2.758e-8
0.038, -2.833e-8
0.039, -2.900e-8
0.040, -2.987e-8
0.041, -3.077e-8
0.042, -3.144e-8
0.043, -3.229e-8
0.044, -3.330e-8
0.045, -3.398e-8
0.046, -3.483e-8
0.047, -3.588e-8
0.048, -3.667e-8
0.049, -3.749e-8
0.050, -3.848e-8
0.051, -3.951e-8
0.052, -4.027e-8
0.053, -4.125e-8
0.054, -4.225e-8
0.055, -4.315e-8
0.056, -4.398e-8
0.057, -4.509e-8
0.058, -4.603e-8
0.059, -4.679e-8
0.060, -4.792e-8
0.061, -4.889e-8
0.062, -4.964e-8
0.063, -5.072e-8
0.064, -5.170e-8
0.065, -5.257e-8
0.066, -5.342e-8
0.067, -5.444e-8
0.068, -5.537e-8
0.069, -5.607e-8
0.070, -5.706e-8
0.071, -5.803e-8
0.072, -5.868e-8
0.073, -5.959e-8
0.074, -6.051e-8
0.075, -6.121e-8
0.076, -6.197e-8
0.077, -6.283e-8
0.078, -6.356e-8
0.079, -6.419e-8
0.080, -6.492e-8
0.081, -6.572e-8
0.082, -6.621e-8
0.083, -6.684e-8
0.084, -6.758e-8
0.085, -6.803e-8
0.086, -6.851e-8
0.087, -6.921e-8
0.088, -6.962e-8
0.089, -6.999e-8
0.090, -7.057e-8
0.091, -7.102e-8
0.092, -7.129e-8
0.093, -7.166e-8
0.094, -7.211e-8
0.095, -7.237e-8
0.096, -7.248e-8
0.097, -7.291e-8
0.098, -7.312e-8
0.099, -7.314e-8
0.100, -7.349e-8
0.101, -7.369e-8
0.102, -7.363e-8
0.103, -7.387e-8
0.104, -7.398e-8
0.105, -7.394e-8
0.106, -7.390e-8
0.107, -7.403e-8
0.108, -7.404e-8
0.109, -7.382e-8
0.110, -7.388e-8
0.111, -7.395e-8
0.112, -7.360e-8
0.113, -7.360e-8
0.114, -7.358e-8
0.115, -7.332e-8
0.116, -7.312e-8
0.117, -7.310e-8
0.118, -7.287e-8
0.119, -7.253e-8
0.120, -7.241e-8
0.121, -7.233e-8
0.122, -7.187e-8
0.123, -7.166e-8
0.124, -7.160e-8
0.125, -7.118e-8
0.126, -7.082e-8
0.127, -7.075e-8
0.128, -7.043e-8
0.129, -6.998e-8
0.130, -6.979e-8
0.131, -6.957e-8
0.132, -6.911e-8
0.133, -6.880e-8
0.134, -6.863e-8
0.135, -6.821e-8
0.136, -6.779e-8
0.137, -6.764e-8
0.138, -6.730e-8
0.139, -6.679e-8
0.140, -6.661e-8
0.141, -6.638e-8
0.142, -6.582e-8
0.143, -6.557e-8
0.144, -6.535e-8
0.145, -6.494e-8
0.146, -6.451e-8
0.147, -6.434e-8
0.148, -6.402e-8
0.149, -6.348e-8
0.150, -6.329e-8
0.151, -6.310e-8
0.152, -6.254e-8
0.153, -6.227e-8
0.154, -6.211e-8
0.155, -6.166e-8
0.156, -6.127e-8
0.157, -6.113e-8
0.158, -6.079e-8
0.159, -6.034e-8
0.160, -6.012e-8
0.161, -5.995e-8
0.162, -5.944e-8
0.163, -5.917e-8
0.164, -5.908e-8
0.165, -5.864e-8
0.166, -5.825e-8
0.167, -5.819e-8
0.168, -5.787e-8
0.169, -5.741e-8
0.170, -5.728e-8
0.171, -5.710e-8
0.172, -5.665e-8
0.173, -5.640e-8
0.174, -5.631e-8
0.175, -5.595e-8
0.176, -5.557e-8
0.177, -5.553e-8
0.178, -5.528e-8
0.179, -5.483e-8
0.180, -5.474e-8
0.181, -5.460e-8
0.182, -5.415e-8
0.183, -5.397e-8
0.184, -5.389e-8
0.185, -5.355e-8
0.186, -5.324e-8
0.187, -5.320e-8
0.188, -5.298e-8
0.189, -5.258e-8
0.190, -5.250e-8
0.191, -5.243e-8
0.192, -5.200e-8
0.193, -5.183e-8
0.194, -5.183e-8
0.195, -5.148e-8
0.196, -5.121e-8
0.197, -5.120e-8
0.198, -5.099e-8
0.199, -5.067e-8
0.200, -5.058e-8
0.201, -5.053e-8
0.202, -5.016e-8
0.203, -5.000e-8
0.204, -5.002e-8
0.205, -4.974e-8
0.206, -4.945e-8
0.207, -4.950e-8
0.208, -4.931e-8
0.209, -4.897e-8
0.210, -4.896e-8
0.211, -4.889e-8
0.212, -4.856e-8
0.213, -4.843e-8
0.214, -4.844e-8
0.215, -4.821e-8
0.216, -4.794e-8
0.217, -4.800e-8
0.218, -4.787e-8
0.219, -4.752e-8
0.220, -4.753e-8
0.221, -4.750e-8
0.222, -4.717e-8
0.223, -4.708e-8
0.224, -4.712e-8
0.225, -4.687e-8
0.226, -4.665e-8
0.227, -4.671e-8
0.228, -4.660e-8
0.229, -4.628e-8
0.230, -4.630e-8
0.231, -4.631e-8
0.232, -4.597e-8
0.233, -4.589e-8
0.234, -4.598e-8
0.235, -4.572e-8
0.236, -4.553e-8
0.237, -4.561e-8
0.238, -4.549e-8
0.239, -4.522e-8
0.240, -4.522e-8
0.241, -4.526e-8
0.242, -4.496e-8
0.243, -4.489e-8
0.244, -4.498e-8
0.245, -4.476e-8
0.246, -4.456e-8
0.247, -4.469e-8
0.248, -4.455e-8
0.249, -4.429e-8
0.250, -4.435e-8
0.251, -4.436e-8
0.252, -4.409e-8
0.253, -4.402e-8
0.254, -4.411e-8
0.255, -4.393e-8
0.256, -4.374e-8
0.257, -4.385e-8
0.258, -4.377e-8
0.259, -4.350e-8
0.260, -4.357e-8
0.261, -4.360e-8
0.262, -4.332e-8
0.263, -4.330e-8
0.264, -4.339e-8
0.265, -4.321e-8
0.266, -4.303e-8
0.267, -4.315e-8
0.268, -4.310e-8
0.269, -4.284e-8
0.270, -4.289e-8
0.271, -4.298e-8
0.272, -4.269e-8
0.273, -4.267e-8
0.274, -4.280e-8
0.275, -4.260e-8
0.276, -4.246e-8
0.277, -4.259e-8
0.278, -4.252e-8
0.279, -4.231e-8
0.280, -4.235e-8
0.281, -4.243e-8
0.282, -4.220e-8
0.283, -4.216e-8
0.284, -4.230e-8
0.285, -4.213e-8
0.286, -4.197e-8
0.287, -4.214e-8
0.288, -4.206e-8
0.289, -4.185e-8
0.290, -4.195e-8
0.291, -4.201e-8
0.292, -4.179e-8
0.293, -4.176e-8
0.294, -4.191e-8
0.295, -4.177e-8
0.296, -4.161e-8
0.297, -4.178e-8
0.298, -4.174e-8
0.299, -4.152e-8
0.300, -3.876e-8
0.299, -3.659e-8
0.298, -3.592e-8
0.297, -3.557e-8
0.296, -3.547e-8
0.295, -3.508e-8
0.294, -3.475e-8
0.293, -3.473e-8
0.292, -3.450e-8
0.291, -3.417e-8
0.290, -3.409e-8
0.289, -3.404e-8
0.288, -3.370e-8
0.287, -3.354e-8
0.286, -3.357e-8
0.285, -3.334e-8
0.284, -3.306e-8
0.283, -3.313e-8
0.282, -3.299e-8
0.281, -3.266e-8
0.280, -3.269e-8
0.279, -3.268e-8
0.278, -3.237e-8
0.277, -3.229e-8
0.276, -3.233e-8
0.275, -3.213e-8
0.274, -3.190e-8
0.273, -3.198e-8
0.272, -3.189e-8
0.271, -3.159e-8
0.270, -3.161e-8
0.269, -3.165e-8
0.268, -3.132e-8
0.267, -3.128e-8
0.266, -3.135e-8
0.265, -3.114e-8
0.264, -3.095e-8
0.263, -3.104e-8
0.262, -3.095e-8
0.261, -3.069e-8
0.260, -3.068e-8
0.259, -3.077e-8
0.258, -3.047e-8
0.257, -3.039e-8
0.256, -3.050e-8
0.255, -3.031e-8
0.254, -3.011e-8
0.253, -3.023e-8
0.252, -3.014e-8
0.251, -2.990e-8
0.250, -2.992e-8
0.249, -2.996e-8
0.248, -2.971e-8
0.247, -2.963e-8
0.246, -2.974e-8
0.245, -2.957e-8
0.244, -2.936e-8
0.243, -2.949e-8
0.242, -2.941e-8
0.241, -2.915e-8
0.240, -2.920e-8
0.239, -2.924e-8
0.238, -2.897e-8
0.237, -2.894e-8
0.236, -2.902e-8
0.235, -2.886e-8
0.234, -2.868e-8
0.233, -2.878e-8
0.232, -2.872e-8
0.231, -2.846e-8
0.230, -2.849e-8
0.229, -2.856e-8
0.228, -2.827e-8
0.227, -2.823e-8
0.226, -2.834e-8
0.225, -2.815e-8
0.224, -2.797e-8
0.223, -2.808e-8
0.222, -2.801e-8
0.221, -2.776e-8
0.220, -2.778e-8
0.219, -2.785e-8
0.218, -2.757e-8
0.217, -2.751e-8
0.216, -2.762e-8
0.215, -2.743e-8
0.214, -2.724e-8
0.213, -2.735e-8
0.212, -2.726e-8
0.211, -2.702e-8
0.210, -2.704e-8
0.209, -2.708e-8
0.208, -2.682e-8
0.207, -2.673e-8
0.206, -2.683e-8
0.205, -2.664e-8
0.204, -2.642e-8
0.203, -2.655e-8
0.202, -2.645e-8
0.201, -2.616e-8
0.200, -2.620e-8
0.199, -2.624e-8
0.198, -2.594e-8
0.197, -2.586e-8
0.196, -2.591e-8
0.195, -2.574e-8
0.194, -2.551e-8
0.193, -2.558e-8
0.192, -2.549e-8
0.191, -2.518e-8
0.190, -2.520e-8
0.189, -2.521e-8
0.188, -2.488e-8
0.187, -2.479e-8
0.186, -2.485e-8
0.185, -2.461e-8
0.184, -2.438e-8
0.183, -2.442e-8
0.182, -2.430e-8
0.181, -2.398e-8
0.180, -2.392e-8
0.179, -2.393e-8
0.178, -2.358e-8
0.177, -2.343e-8
0.176, -2.348e-8
0.175, -2.320e-8
0.174, -2.291e-8
0.173, -2.294e-8
0.172, -2.274e-8
0.171, -2.240e-8
0.170, -2.233e-8
0.169, -2.225e-8
0.168, -2.187e-8
0.167, -2.167e-8
0.166, -2.165e-8
0.165, -2.135e-8
0.164, -2.099e-8
0.163, -2.098e-8
0.162, -2.074e-8
0.161, -2.030e-8
0.160, -2.021e-8
0.159, -2.006e-8
0.158, -1.961e-8
0.157, -1.936e-8
0.156, -1.924e-8
0.155, -1.888e-8
0.154, -1.846e-8
0.153, -1.833e-8
0.152, -1.806e-8
0.151, -1.751e-8
0.150, -1.733e-8
0.149, -1.711e-8
0.148, -1.654e-8
0.147, -1.624e-8
0.146, -1.603e-8
0.145, -1.553e-8
0.144, -1.505e-8
0.143, -1.480e-8
0.142, -1.440e-8
0.141, -1.380e-8
0.140, -1.344e-8
0.139, -1.316e-8
0.138, -1.250e-8
0.137, -1.203e-8
0.136, -1.171e-8
0.135, -1.110e-8
0.134, -1.050e-8
0.133, -1.014e-8
0.132, -9.580e-9
0.131, -8.875e-9
0.130, -8.417e-9
0.129, -7.915e-9
0.128, -7.142e-9
0.127, -6.519e-9
0.126, -6.067e-9
0.125, -5.350e-9
0.124, -4.545e-9
0.123, -4.099e-9
0.122, -3.397e-9
0.121, -2.508e-9
0.120, -1.947e-9
0.119, -1.274e-9
0.118, -3.706e-10
0.117, 3.596e-10
0.116, 1.037e-9
0.115, 1.877e-9
0.114, 2.801e-9
0.113, 3.467e-9
0.112, 4.240e-9
0.111, 5.312e-9
0.110, 6.020e-9
0.109, 6.769e-9
0.108, 7.873e-9
0.107, 8.688e-9
0.106, 9.473e-9
0.105, 1.046e-8
0.104, 1.146e-8
0.103, 1.230e-8
0.102, 1.319e-8
0.101, 1.428e-8
0.100, 1.514e-8
0.099, 1.592e-8
0.098, 1.707e-8
0.097, 1.801e-8
0.096, 1.881e-8
0.095, 1.989e-8
0.094, 2.089e-8
0.093, 2.169e-8
0.092, 2.267e-8
0.091, 2.373e-8
0.090, 2.461e-8
0.089, 2.547e-8
0.088, 2.653e-8
0.087, 2.745e-8
0.086, 2.817e-8
0.085, 2.918e-8
0.084, 3.018e-8
0.083, 3.084e-8
0.082, 3.174e-8
0.081, 3.279e-8
0.080, 3.342e-8
0.079, 3.422e-8
0.078, 3.514e-8
0.077, 3.589e-8
0.076, 3.658e-8
0.075, 3.731e-8
0.074, 3.813e-8
0.073, 3.867e-8
0.072, 3.933e-8
0.071, 4.014e-8
0.070, 4.062e-8
0.069, 4.113e-8
0.068, 4.190e-8
0.067, 4.234e-8
0.066, 4.278e-8
0.065, 4.333e-8
0.064, 4.386e-8
0.063, 4.419e-8
0.062, 4.453e-8
0.061, 4.509e-8
0.060, 4.534e-8
0.059, 4.556e-8
0.058, 4.605e-8
0.057, 4.626e-8
0.056, 4.638e-8
0.055, 4.672e-8
0.054, 4.696e-8
0.053, 4.698e-8
0.052, 4.717e-8
0.051, 4.745e-8
0.050, 4.745e-8
0.049, 4.742e-8
0.048, 4.762e-8
0.047, 4.765e-8
0.046, 4.752e-8
0.045, 4.761e-8
0.044, 4.769e-8
0.043, 4.745e-8
0.042, 4.738e-8
0.041, 4.752e-8
0.040, 4.727e-8
0.039, 4.710e-8
0.038, 4.713e-8
0.037, 4.696e-8
0.036, 4.670e-8
0.035, 4.656e-8
0.034, 4.651e-8
0.033, 4.618e-8
0.032, 4.592e-8
0.031, 4.595e-8
0.030, 4.558e-8
0.029, 4.524e-8
0.028, 4.522e-8
0.027, 4.492e-8
0.026, 4.456e-8
0.025, 4.439e-8
0.024, 4.421e-8
0.023, 4.380e-8
0.022, 4.349e-8
0.021, 4.341e-8
0.020, 4.305e-8
0.019, 4.260e-8
0.018, 4.251e-8
0.017, 4.222e-8
0.016, 4.175e-8
0.015, 4.158e-8
0.014, 4.139e-8
0.013, 4.091e-8
0.012, 4.064e-8
0.011, 4.049e-8
0.010, 4.010e-8
0.009, 3.968e-8
0.008, 3.958e-8
0.007, 3.929e-8
0.006, 3.880e-8
0.005, 3.860e-8
0.004, 3.846e-8
0.003, 3.797e-8
0.002, 3.769e-8
0.001, 3.759e-8
0.000, 3.733e-8
-0.001, 3.683e-8
-0.002, 3.673e-8
-0.003, 3.643e-8
-0.004, 3.602e-8
-0.005, 3.580e-8
-0.006, 3.567e-8
-0.007, 3.524e-8
-0.008, 3.495e-8
-0.009, 3.489e-8
-0.010, 3.453e-8
-0.011, 3.413e-8
-0.012, 3.411e-8
-0.013, 3.384e-8
-0.014, 3.342e-8
-0.015, 3.328e-8
-0.016, 3.316e-8
-0.017, 3.276e-8
-0.018, 3.251e-8
-0.019, 3.246e-8
-0.020, 3.217e-8
-0.021, 3.178e-8
-0.022, 3.177e-8
-0.023, 3.156e-8
-0.024, 3.116e-8
-0.025, 3.106e-8
-0.026, 3.099e-8
-0.027, 3.059e-8
-0.028, 3.041e-8
-0.029, 3.038e-8
-0.030, 3.010e-8
-0.031, 2.979e-8
-0.032, 2.978e-8
-0.033, 2.962e-8
-0.034, 2.926e-8
-0.035, 2.915e-8
-0.036, 2.915e-8
-0.037, 2.878e-8
-0.038, 2.861e-8
-0.039, 2.864e-8
-0.040, 2.838e-8
-0.041, 2.808e-8
-0.042, 2.812e-8
-0.043, 2.797e-8
-0.044, 2.767e-8
-0.045, 2.759e-8
-0.046, 2.759e-8
-0.047, 2.729e-8
-0.048, 2.710e-8
-0.049, 2.718e-8
-0.050, 2.695e-8
-0.051, 2.668e-8
-0.052, 2.677e-8
-0.053, 2.663e-8
-0.054, 2.632e-8
-0.055, 2.631e-8
-0.056, 2.632e-8
-0.057, 2.602e-8
-0.058, 2.590e-8
-0.059, 2.597e-8
-0.060, 2.579e-8
-0.061, 2.552e-8
-0.062, 2.562e-8
-0.063, 2.553e-8
-0.064, 2.525e-8
-0.065, 2.525e-8
-0.066, 2.528e-8
-0.067, 2.500e-8
-0.068, 2.491e-8
-0.069, 2.500e-8
-0.070, 2.483e-8
-0.071, 2.461e-8
-0.072, 2.471e-8
-0.073, 2.464e-8
-0.074, 2.437e-8
-0.075, 2.438e-8
-0.076, 2.447e-8
-0.077, 2.419e-8
-0.078, 2.409e-8
-0.079, 2.425e-8
-0.080, 2.405e-8
-0.081, 2.386e-8
-0.082, 2.399e-8
-0.083, 2.392e-8
-0.084, 2.371e-8
-0.085, 2.372e-8
-0.086, 2.379e-8
-0.087, 2.356e-8
-0.088, 2.349e-8
-0.089, 2.364e-8
-0.090, 2.350e-8
-0.091, 2.327e-8
-0.092, 2.346e-8
-0.093, 2.339e-8
-0.094, 2.317e-8
-0.095, 2.323e-8
-0.096, 2.330e-8
-0.097, 2.310e-8
-0.098, 2.303e-8
-0.099, 2.318e-8
-0.100, 2.309e-8
-0.101, 2.287e-8
-0.102, 2.306e-8
-0.103, 2.304e-8
-0.104, 2.280e-8
-0.105, 2.288e-8
-0.106, 2.298e-8
-0.107, 2.277e-8
-0.108, 2.274e-8
-0.109, 2.289e-8
-0.110, 2.279e-8
-0.111, 2.263e-8
-0.112, 2.279e-8
-0.113, 2.279e-8
-0.114, 2.259e-8
-0.115, 2.265e-8
-0.116, 2.281e-8
-0.117, 2.258e-8
-0.118, 2.256e-8
-0.119, 2.275e-8
-0.120, 2.264e-8
-0.121, 2.249e-8
-0.122, 2.268e-8
-0.123, 2.267e-8
-0.124, 2.252e-8
-0.125, 2.256e-8
-0.126, 2.272e-8
-0.127, 2.254e-8
-0.128, 2.252e-8
-0.129, 2.272e-8
-0.130, 2.263e-8
-0.131, 2.248e-8
-0.132, 2.269e-8
-0.133, 2.270e-8
-0.134, 2.252e-8
-0.135, 2.263e-8
-0.136, 2.277e-8
-0.137, 2.260e-8
-0.138, 2.260e-8
-0.139, 2.280e-8
-0.140, 2.275e-8
-0.141, 2.260e-8
-0.142, 2.282e-8
-0.143, 2.285e-8
-0.144, 2.267e-8
-0.145, 2.279e-8
-0.146, 2.296e-8
-0.147, 2.279e-8
-0.148, 2.281e-8
-0.149, 2.302e-8
-0.150, 2.295e-8
-0.151, 2.285e-8
-0.152, 2.306e-8
-0.153, 2.312e-8
-0.154, 2.297e-8
-0.155, 2.307e-8
-0.156, 2.328e-8
-0.157, 2.310e-8
-0.158, 2.313e-8
-0.159, 2.337e-8
-0.160, 2.330e-8
-0.161, 2.321e-8
-0.162, 2.345e-8
-0.163, 2.349e-8
-0.164, 2.338e-8
-0.165, 2.349e-8
-0.166, 2.369e-8
-0.167, 2.356e-8
-0.168, 2.357e-8
-0.169, 2.384e-8
-0.170, 2.379e-8
-0.171, 2.369e-8
-0.172, 2.396e-8
-0.173, 2.401e-8
-0.174, 2.389e-8
-0.175, 2.404e-8
-0.176, 2.425e-8
-0.177, 2.412e-8
-0.178, 2.418e-8
-0.179, 2.443e-8
-0.180, 2.443e-8
-0.181, 2.432e-8
-0.182, 2.459e-8
-0.183, 2.468e-8
-0.184, 2.457e-8
-0.185, 2.473e-8
-0.186, 2.495e-8
-0.187, 2.483e-8
-0.188, 2.491e-8
-0.189, 2.517e-8
-0.190, 2.516e-8
-0.191, 2.511e-8
-0.192, 2.538e-8
-0.193, 2.548e-8
-0.194, 2.538e-8
-0.195, 2.554e-8
-0.196, 2.579e-8
-0.197, 2.568e-8
-0.198, 2.577e-8
-0.199, 2.606e-8
