Mar. 16, 2023   09:43:19
Cyclic Voltammetry
File: c:/users/oliverrz/desktop/electrolab/data/2023_03_16\fcmeoh_macros_750_um\electrode1_cv_150mvs_750_um.bin
Data Source:  Experiment
Instrument Model:  CHI760E
Header: CV
Note: 

Init E (V) = -0.2
High E (V) = 0.3
Low E (V) = -0.2
Final E (V) = -0.2
Init P/N = P
Scan Rate (V/s) = 0.15
Segment = 3
Sample Interval (V) = 0.001
Quiet Time (sec) = 2
Sensitivity (A/V) = 1e-7

Results:

Channel 1:
Segment 1:
Ep = 0.120V
ip = -6.049e-8A
Ah = -2.573e-8C

Segment 2:
Ep = 0.057V
ip = 5.480e-8A
Ah = 2.244e-8C

Segment 3:

Potential/V, Current/A

-0.200, 2.898e-9
-0.199, 2.609e-9
-0.198, 2.341e-9
-0.197, 2.331e-9
-0.196, 2.354e-9
-0.195, 2.120e-9
-0.194, 2.289e-9
-0.193, 2.076e-9
-0.192, 2.100e-9
-0.191, 2.146e-9
-0.190, 1.900e-9
-0.189, 2.117e-9
-0.188, 1.900e-9
-0.187, 1.926e-9
-0.186, 1.991e-9
-0.185, 1.746e-9
-0.184, 1.953e-9
-0.183, 1.771e-9
-0.182, 1.773e-9
-0.181, 1.841e-9
-0.180, 1.625e-9
-0.179, 1.807e-9
-0.178, 1.627e-9
-0.177, 1.651e-9
-0.176, 1.709e-9
-0.175, 1.501e-9
-0.174, 1.695e-9
-0.173, 1.506e-9
-0.172, 1.536e-9
-0.171, 1.600e-9
-0.170, 1.382e-9
-0.169, 1.573e-9
-0.168, 1.400e-9
-0.167, 1.426e-9
-0.166, 1.471e-9
-0.165, 1.287e-9
-0.164, 1.476e-9
-0.163, 1.286e-9
-0.162, 1.340e-9
-0.161, 1.365e-9
-0.160, 1.187e-9
-0.159, 1.393e-9
-0.158, 1.178e-9
-0.157, 1.241e-9
-0.156, 1.293e-9
-0.155, 1.081e-9
-0.154, 1.284e-9
-0.153, 1.097e-9
-0.152, 1.139e-9
-0.151, 1.199e-9
-0.150, 9.948e-10
-0.149, 1.203e-9
-0.148, 1.009e-9
-0.147, 1.062e-9
-0.146, 1.118e-9
-0.145, 8.968e-10
-0.144, 1.133e-9
-0.143, 9.278e-10
-0.142, 9.640e-10
-0.141, 1.038e-9
-0.140, 8.261e-10
-0.139, 1.028e-9
-0.138, 8.689e-10
-0.137, 8.814e-10
-0.136, 9.569e-10
-0.135, 7.633e-10
-0.134, 9.492e-10
-0.133, 7.759e-10
-0.132, 8.311e-10
-0.131, 8.671e-10
-0.130, 6.855e-10
-0.129, 8.888e-10
-0.128, 6.905e-10
-0.127, 7.439e-10
-0.126, 8.029e-10
-0.125, 6.033e-10
-0.124, 8.148e-10
-0.123, 6.258e-10
-0.122, 6.765e-10
-0.121, 7.172e-10
-0.120, 5.445e-10
-0.119, 7.433e-10
-0.118, 5.427e-10
-0.117, 6.188e-10
-0.116, 6.597e-10
-0.115, 4.547e-10
-0.114, 6.880e-10
-0.113, 4.682e-10
-0.112, 5.387e-10
-0.111, 6.042e-10
-0.110, 3.842e-10
-0.109, 6.106e-10
-0.108, 4.162e-10
-0.107, 4.657e-10
-0.106, 5.224e-10
-0.105, 3.292e-10
-0.104, 5.407e-10
-0.103, 3.404e-10
-0.102, 3.960e-10
-0.101, 4.543e-10
-0.100, 2.515e-10
-0.099, 4.758e-10
-0.098, 2.773e-10
-0.097, 3.186e-10
-0.096, 4.024e-10
-0.095, 1.888e-10
-0.094, 3.868e-10
-0.093, 2.225e-10
-0.092, 2.552e-10
-0.091, 3.063e-10
-0.090, 1.299e-10
-0.089, 3.165e-10
-0.088, 1.339e-10
-0.087, 2.056e-10
-0.086, 2.258e-10
-0.085, 4.369e-11
-0.084, 2.617e-10
-0.083, 5.877e-11
-0.082, 1.151e-10
-0.081, 1.619e-10
-0.080, -3.096e-11
-0.079, 1.715e-10
-0.078, -1.728e-11
-0.077, 2.780e-11
-0.076, 7.148e-11
-0.075, -1.158e-10
-0.074, 9.403e-11
-0.073, -1.189e-10
-0.072, -4.241e-11
-0.071, -8.487e-12
-0.070, -2.171e-10
-0.069, 6.886e-12
-0.068, -2.052e-10
-0.067, -1.537e-10
-0.066, -9.585e-11
-0.065, -3.192e-10
-0.064, -1.068e-10
-0.063, -2.931e-10
-0.062, -2.682e-10
-0.061, -2.208e-10
-0.060, -4.156e-10
-0.059, -2.229e-10
-0.058, -4.238e-10
-0.057, -3.781e-10
-0.056, -3.390e-10
-0.055, -5.501e-10
-0.054, -3.495e-10
-0.053, -5.565e-10
-0.052, -5.272e-10
-0.051, -4.821e-10
-0.050, -6.879e-10
-0.049, -5.152e-10
-0.048, -6.903e-10
-0.047, -6.698e-10
-0.046, -6.614e-10
-0.045, -8.412e-10
-0.044, -6.744e-10
-0.043, -8.964e-10
-0.042, -8.403e-10
-0.041, -8.452e-10
-0.040, -1.045e-9
-0.039, -8.666e-10
-0.038, -1.098e-9
-0.037, -1.061e-9
-0.036, -1.047e-9
-0.035, -1.275e-9
-0.034, -1.099e-9
-0.033, -1.331e-9
-0.032, -1.301e-9
-0.031, -1.306e-9
-0.030, -1.534e-9
-0.029, -1.366e-9
-0.028, -1.630e-9
-0.027, -1.595e-9
-0.026, -1.609e-9
-0.025, -1.870e-9
-0.024, -1.682e-9
-0.023, -1.942e-9
-0.022, -1.963e-9
-0.021, -1.959e-9
-0.020, -2.215e-9
-0.019, -2.083e-9
-0.018, -2.333e-9
-0.017, -2.364e-9
-0.016, -2.389e-9
-0.015, -2.646e-9
-0.014, -2.537e-9
-0.013, -2.822e-9
-0.012, -2.834e-9
-0.011, -2.896e-9
-0.010, -3.179e-9
-0.009, -3.081e-9
-0.008, -3.364e-9
-0.007, -3.417e-9
-0.006, -3.501e-9
-0.005, -3.783e-9
-0.004, -3.722e-9
-0.003, -4.021e-9
-0.002, -4.097e-9
-0.001, -4.221e-9
-0.000, -4.604e-9
0.001, -4.493e-9
0.002, -4.856e-9
0.003, -4.918e-9
0.004, -5.063e-9
0.005, -5.426e-9
0.006, -5.381e-9
0.007, -5.779e-9
0.008, -5.907e-9
0.009, -6.057e-9
0.010, -6.456e-9
0.011, -6.467e-9
0.012, -6.883e-9
0.013, -7.053e-9
0.014, -7.260e-9
0.015, -7.693e-9
0.016, -7.732e-9
0.017, -8.207e-9
0.018, -8.415e-9
0.019, -8.649e-9
0.020, -9.144e-9
0.021, -9.231e-9
0.022, -9.720e-9
0.023, -1.001e-8
0.024, -1.030e-8
0.025, -1.080e-8
0.026, -1.100e-8
0.027, -1.152e-8
0.028, -1.184e-8
0.029, -1.221e-8
0.030, -1.276e-8
0.031, -1.301e-8
0.032, -1.360e-8
0.033, -1.397e-8
0.034, -1.441e-8
0.035, -1.502e-8
0.036, -1.532e-8
0.037, -1.599e-8
0.038, -1.643e-8
0.039, -1.695e-8
0.040, -1.759e-8
0.041, -1.798e-8
0.042, -1.870e-8
0.043, -1.920e-8
0.044, -1.978e-8
0.045, -2.051e-8
0.046, -2.091e-8
0.047, -2.176e-8
0.048, -2.228e-8
0.049, -2.291e-8
0.050, -2.375e-8
0.051, -2.422e-8
0.052, -2.511e-8
0.053, -2.573e-8
0.054, -2.641e-8
0.055, -2.731e-8
0.056, -2.781e-8
0.057, -2.873e-8
0.058, -2.942e-8
0.059, -3.016e-8
0.060, -3.108e-8
0.061, -3.167e-8
0.062, -3.261e-8
0.063, -3.338e-8
0.064, -3.412e-8
0.065, -3.509e-8
0.066, -3.571e-8
0.067, -3.665e-8
0.068, -3.744e-8
0.069, -3.819e-8
0.070, -3.914e-8
0.071, -3.986e-8
0.072, -4.076e-8
0.073, -4.152e-8
0.074, -4.235e-8
0.075, -4.325e-8
0.076, -4.391e-8
0.077, -4.488e-8
0.078, -4.557e-8
0.079, -4.638e-8
0.080, -4.721e-8
0.081, -4.785e-8
0.082, -4.879e-8
0.083, -4.937e-8
0.084, -5.014e-8
0.085, -5.095e-8
0.086, -5.147e-8
0.087, -5.234e-8
0.088, -5.288e-8
0.089, -5.354e-8
0.090, -5.433e-8
0.091, -5.471e-8
0.092, -5.553e-8
0.093, -5.596e-8
0.094, -5.649e-8
0.095, -5.719e-8
0.096, -5.746e-8
0.097, -5.813e-8
0.098, -5.854e-8
0.099, -5.892e-8
0.100, -5.948e-8
0.101, -5.968e-8
0.102, -6.026e-8
0.103, -6.054e-8
0.104, -6.079e-8
0.105, -6.124e-8
0.106, -6.133e-8
0.107, -6.172e-8
0.108, -6.190e-8
0.109, -6.204e-8
0.110, -6.236e-8
0.111, -6.238e-8
0.112, -6.263e-8
0.113, -6.270e-8
0.114, -6.278e-8
0.115, -6.297e-8
0.116, -6.286e-8
0.117, -6.305e-8
0.118, -6.296e-8
0.119, -6.299e-8
0.120, -6.305e-8
0.121, -6.284e-8
0.122, -6.298e-8
0.123, -6.280e-8
0.124, -6.271e-8
0.125, -6.273e-8
0.126, -6.241e-8
0.127, -6.251e-8
0.128, -6.225e-8
0.129, -6.208e-8
0.130, -6.207e-8
0.131, -6.168e-8
0.132, -6.170e-8
0.133, -6.140e-8
0.134, -6.118e-8
0.135, -6.111e-8
0.136, -6.067e-8
0.137, -6.065e-8
0.138, -6.033e-8
0.139, -6.005e-8
0.140, -5.997e-8
0.141, -5.951e-8
0.142, -5.943e-8
0.143, -5.910e-8
0.144, -5.878e-8
0.145, -5.868e-8
0.146, -5.823e-8
0.147, -5.811e-8
0.148, -5.776e-8
0.149, -5.746e-8
0.150, -5.733e-8
0.151, -5.686e-8
0.152, -5.675e-8
0.153, -5.638e-8
0.154, -5.609e-8
0.155, -5.595e-8
0.156, -5.548e-8
0.157, -5.536e-8
0.158, -5.499e-8
0.159, -5.471e-8
0.160, -5.454e-8
0.161, -5.408e-8
0.162, -5.399e-8
0.163, -5.360e-8
0.164, -5.333e-8
0.165, -5.321e-8
0.166, -5.272e-8
0.167, -5.267e-8
0.168, -5.229e-8
0.169, -5.200e-8
0.170, -5.192e-8
0.171, -5.143e-8
0.172, -5.137e-8
0.173, -5.102e-8
0.174, -5.075e-8
0.175, -5.066e-8
0.176, -5.020e-8
0.177, -5.014e-8
0.178, -4.982e-8
0.179, -4.957e-8
0.180, -4.948e-8
0.181, -4.903e-8
0.182, -4.899e-8
0.183, -4.870e-8
0.184, -4.841e-8
0.185, -4.836e-8
0.186, -4.795e-8
0.187, -4.789e-8
0.188, -4.761e-8
0.189, -4.738e-8
0.190, -4.730e-8
0.191, -4.691e-8
0.192, -4.691e-8
0.193, -4.658e-8
0.194, -4.639e-8
0.195, -4.633e-8
0.196, -4.593e-8
0.197, -4.594e-8
0.198, -4.566e-8
0.199, -4.545e-8
0.200, -4.543e-8
0.201, -4.504e-8
0.202, -4.506e-8
0.203, -4.479e-8
0.204, -4.461e-8
0.205, -4.459e-8
0.206, -4.421e-8
0.207, -4.427e-8
0.208, -4.398e-8
0.209, -4.381e-8
0.210, -4.383e-8
0.211, -4.343e-8
0.212, -4.350e-8
0.213, -4.325e-8
0.214, -4.306e-8
0.215, -4.310e-8
0.216, -4.273e-8
0.217, -4.278e-8
0.218, -4.256e-8
0.219, -4.239e-8
0.220, -4.241e-8
0.221, -4.207e-8
0.222, -4.213e-8
0.223, -4.192e-8
0.224, -4.176e-8
0.225, -4.179e-8
0.226, -4.146e-8
0.227, -4.153e-8
0.228, -4.132e-8
0.229, -4.117e-8
0.230, -4.122e-8
0.231, -4.090e-8
0.232, -4.097e-8
0.233, -4.076e-8
0.234, -4.065e-8
0.235, -4.066e-8
0.236, -4.037e-8
0.237, -4.047e-8
0.238, -4.024e-8
0.239, -4.015e-8
0.240, -4.018e-8
0.241, -3.987e-8
0.242, -3.999e-8
0.243, -3.979e-8
0.244, -3.967e-8
0.245, -3.974e-8
0.246, -3.943e-8
0.247, -3.954e-8
0.248, -3.935e-8
0.249, -3.924e-8
0.250, -3.931e-8
0.251, -3.902e-8
0.252, -3.914e-8
0.253, -3.894e-8
0.254, -3.885e-8
0.255, -3.894e-8
0.256, -3.862e-8
0.257, -3.875e-8
0.258, -3.858e-8
0.259, -3.847e-8
0.260, -3.856e-8
0.261, -3.827e-8
0.262, -3.838e-8
0.263, -3.824e-8
0.264, -3.814e-8
0.265, -3.820e-8
0.266, -3.796e-8
0.267, -3.807e-8
0.268, -3.790e-8
0.269, -3.783e-8
0.270, -3.790e-8
0.271, -3.763e-8
0.272, -3.776e-8
0.273, -3.761e-8
0.274, -3.753e-8
0.275, -3.762e-8
0.276, -3.736e-8
0.277, -3.749e-8
0.278, -3.733e-8
0.279, -3.728e-8
0.280, -3.734e-8
0.281, -3.710e-8
0.282, -3.726e-8
0.283, -3.707e-8
0.284, -3.702e-8
0.285, -3.712e-8
0.286, -3.684e-8
0.287, -3.701e-8
0.288, -3.685e-8
0.289, -3.678e-8
0.290, -3.691e-8
0.291, -3.663e-8
0.292, -3.679e-8
0.293, -3.666e-8
0.294, -3.660e-8
0.295, -3.670e-8
0.296, -3.644e-8
0.297, -3.661e-8
0.298, -3.646e-8
0.299, -3.641e-8
0.300, -3.441e-8
0.299, -3.296e-8
0.298, -3.289e-8
0.297, -3.255e-8
0.296, -3.236e-8
0.295, -3.234e-8
0.294, -3.198e-8
0.293, -3.203e-8
0.292, -3.178e-8
0.291, -3.166e-8
0.290, -3.166e-8
0.289, -3.134e-8
0.288, -3.144e-8
0.287, -3.120e-8
0.286, -3.110e-8
0.285, -3.115e-8
0.284, -3.080e-8
0.283, -3.094e-8
0.282, -3.072e-8
0.281, -3.061e-8
0.280, -3.069e-8
0.279, -3.038e-8
0.278, -3.049e-8
0.277, -3.031e-8
0.276, -3.020e-8
0.275, -3.026e-8
0.274, -2.998e-8
0.273, -3.010e-8
0.272, -2.991e-8
0.271, -2.983e-8
0.270, -2.989e-8
0.269, -2.960e-8
0.268, -2.973e-8
0.267, -2.955e-8
0.266, -2.947e-8
0.265, -2.954e-8
0.264, -2.927e-8
0.263, -2.939e-8
0.262, -2.921e-8
0.261, -2.915e-8
0.260, -2.919e-8
0.259, -2.895e-8
0.258, -2.907e-8
0.257, -2.888e-8
0.256, -2.883e-8
0.255, -2.890e-8
0.254, -2.861e-8
0.253, -2.877e-8
0.252, -2.857e-8
0.251, -2.852e-8
0.250, -2.860e-8
0.249, -2.831e-8
0.248, -2.847e-8
0.247, -2.829e-8
0.246, -2.822e-8
0.245, -2.829e-8
0.244, -2.802e-8
0.243, -2.817e-8
0.242, -2.798e-8
0.241, -2.791e-8
0.240, -2.800e-8
0.239, -2.771e-8
0.238, -2.786e-8
0.237, -2.768e-8
0.236, -2.760e-8
0.235, -2.770e-8
0.234, -2.742e-8
0.233, -2.754e-8
0.232, -2.738e-8
0.231, -2.730e-8
0.230, -2.737e-8
0.229, -2.712e-8
0.228, -2.724e-8
0.227, -2.707e-8
0.226, -2.701e-8
0.225, -2.706e-8
0.224, -2.680e-8
0.223, -2.693e-8
0.222, -2.674e-8
0.221, -2.667e-8
0.220, -2.672e-8
0.219, -2.646e-8
0.218, -2.659e-8
0.217, -2.638e-8
0.216, -2.633e-8
0.215, -2.638e-8
0.214, -2.610e-8
0.213, -2.623e-8
0.212, -2.602e-8
0.211, -2.596e-8
0.210, -2.601e-8
0.209, -2.572e-8
0.208, -2.584e-8
0.207, -2.564e-8
0.206, -2.554e-8
0.205, -2.558e-8
0.204, -2.528e-8
0.203, -2.541e-8
0.202, -2.519e-8
0.201, -2.509e-8
0.200, -2.513e-8
0.199, -2.482e-8
0.198, -2.492e-8
0.197, -2.470e-8
0.196, -2.458e-8
0.195, -2.462e-8
0.194, -2.430e-8
0.193, -2.438e-8
0.192, -2.414e-8
0.191, -2.402e-8
0.190, -2.402e-8
0.189, -2.371e-8
0.188, -2.375e-8
0.187, -2.351e-8
0.186, -2.338e-8
0.185, -2.334e-8
0.184, -2.302e-8
0.183, -2.307e-8
0.182, -2.277e-8
0.181, -2.263e-8
0.180, -2.258e-8
0.179, -2.221e-8
0.178, -2.225e-8
0.177, -2.194e-8
0.176, -2.177e-8
0.175, -2.170e-8
0.174, -2.131e-8
0.173, -2.132e-8
0.172, -2.097e-8
0.171, -2.079e-8
0.170, -2.069e-8
0.169, -2.026e-8
0.168, -2.023e-8
0.167, -1.986e-8
0.166, -1.964e-8
0.165, -1.951e-8
0.164, -1.904e-8
0.163, -1.899e-8
0.162, -1.858e-8
0.161, -1.829e-8
0.160, -1.815e-8
0.159, -1.762e-8
0.158, -1.751e-8
0.157, -1.708e-8
0.156, -1.674e-8
0.155, -1.654e-8
0.154, -1.599e-8
0.153, -1.581e-8
0.152, -1.534e-8
0.151, -1.495e-8
0.150, -1.468e-8
0.149, -1.409e-8
0.148, -1.385e-8
0.147, -1.332e-8
0.146, -1.291e-8
0.145, -1.256e-8
0.144, -1.193e-8
0.143, -1.163e-8
0.142, -1.105e-8
0.141, -1.055e-8
0.140, -1.012e-8
0.139, -9.467e-9
0.138, -9.098e-9
0.137, -8.426e-9
0.136, -7.909e-9
0.135, -7.417e-9
0.134, -6.664e-9
0.133, -6.242e-9
0.132, -5.466e-9
0.131, -4.915e-9
0.130, -4.380e-9
0.129, -3.514e-9
0.128, -3.052e-9
0.127, -2.258e-9
0.126, -1.586e-9
0.125, -1.019e-9
0.124, -9.489e-11
0.123, 4.217e-10
0.122, 1.265e-9
0.121, 2.031e-9
0.120, 2.667e-9
0.119, 3.629e-9
0.118, 4.172e-9
0.117, 5.075e-9
0.116, 5.894e-9
0.115, 6.553e-9
0.114, 7.566e-9
0.113, 8.218e-9
0.112, 9.096e-9
0.111, 9.928e-9
0.110, 1.065e-8
0.109, 1.161e-8
0.108, 1.232e-8
0.107, 1.321e-8
0.106, 1.401e-8
0.105, 1.479e-8
0.104, 1.575e-8
0.103, 1.646e-8
0.102, 1.743e-8
0.101, 1.818e-8
0.100, 1.892e-8
0.099, 1.983e-8
0.098, 2.047e-8
0.097, 2.142e-8
0.096, 2.214e-8
0.095, 2.282e-8
0.094, 2.373e-8
0.093, 2.431e-8
0.092, 2.520e-8
0.091, 2.582e-8
0.090, 2.648e-8
0.089, 2.734e-8
0.088, 2.780e-8
0.087, 2.863e-8
0.086, 2.916e-8
0.085, 2.970e-8
0.084, 3.051e-8
0.083, 3.083e-8
0.082, 3.153e-8
0.081, 3.207e-8
0.080, 3.244e-8
0.079, 3.312e-8
0.078, 3.341e-8
0.077, 3.399e-8
0.076, 3.439e-8
0.075, 3.466e-8
0.074, 3.519e-8
0.073, 3.539e-8
0.072, 3.581e-8
0.071, 3.610e-8
0.070, 3.626e-8
0.069, 3.670e-8
0.068, 3.680e-8
0.067, 3.707e-8
0.066, 3.723e-8
0.065, 3.734e-8
0.064, 3.763e-8
0.063, 3.761e-8
0.062, 3.781e-8
0.061, 3.784e-8
0.060, 3.788e-8
0.059, 3.803e-8
0.058, 3.789e-8
0.057, 3.804e-8
0.056, 3.796e-8
0.055, 3.789e-8
0.054, 3.799e-8
0.053, 3.775e-8
0.052, 3.784e-8
0.051, 3.770e-8
0.050, 3.751e-8
0.049, 3.760e-8
0.048, 3.725e-8
0.047, 3.728e-8
0.046, 3.706e-8
0.045, 3.683e-8
0.044, 3.684e-8
0.043, 3.644e-8
0.042, 3.640e-8
0.041, 3.619e-8
0.040, 3.588e-8
0.039, 3.587e-8
0.038, 3.545e-8
0.037, 3.537e-8
0.036, 3.513e-8
0.035, 3.476e-8
0.034, 3.473e-8
0.033, 3.430e-8
0.032, 3.418e-8
0.031, 3.391e-8
0.030, 3.355e-8
0.029, 3.348e-8
0.028, 3.306e-8
0.027, 3.292e-8
0.026, 3.264e-8
0.025, 3.229e-8
0.024, 3.219e-8
0.023, 3.173e-8
0.022, 3.161e-8
0.021, 3.132e-8
0.020, 3.097e-8
0.019, 3.087e-8
0.018, 3.042e-8
0.017, 3.032e-8
0.016, 3.001e-8
0.015, 2.966e-8
0.014, 2.960e-8
0.013, 2.913e-8
0.012, 2.904e-8
0.011, 2.874e-8
0.010, 2.838e-8
0.009, 2.835e-8
0.008, 2.788e-8
0.007, 2.778e-8
0.006, 2.751e-8
0.005, 2.718e-8
0.004, 2.715e-8
0.003, 2.668e-8
0.002, 2.660e-8
0.001, 2.636e-8
0.000, 2.610e-8
-0.001, 2.601e-8
-0.002, 2.557e-8
-0.003, 2.549e-8
-0.004, 2.526e-8
-0.005, 2.492e-8
-0.006, 2.491e-8
-0.007, 2.450e-8
-0.008, 2.442e-8
-0.009, 2.420e-8
-0.010, 2.389e-8
-0.011, 2.387e-8
-0.012, 2.349e-8
-0.013, 2.343e-8
-0.014, 2.320e-8
-0.015, 2.293e-8
-0.016, 2.292e-8
-0.017, 2.254e-8
-0.018, 2.251e-8
-0.019, 2.229e-8
-0.020, 2.203e-8
-0.021, 2.204e-8
-0.022, 2.166e-8
-0.023, 2.165e-8
-0.024, 2.145e-8
-0.025, 2.119e-8
-0.026, 2.123e-8
-0.027, 2.085e-8
-0.028, 2.086e-8
-0.029, 2.066e-8
-0.030, 2.041e-8
-0.031, 2.047e-8
-0.032, 2.009e-8
-0.033, 2.012e-8
-0.034, 1.994e-8
-0.035, 1.969e-8
-0.036, 1.978e-8
-0.037, 1.940e-8
-0.038, 1.943e-8
-0.039, 1.928e-8
-0.040, 1.903e-8
-0.041, 1.911e-8
-0.042, 1.878e-8
-0.043, 1.879e-8
-0.044, 1.865e-8
-0.045, 1.842e-8
-0.046, 1.850e-8
-0.047, 1.818e-8
-0.048, 1.822e-8
-0.049, 1.806e-8
-0.050, 1.787e-8
-0.051, 1.795e-8
-0.052, 1.763e-8
-0.053, 1.768e-8
-0.054, 1.753e-8
-0.055, 1.734e-8
-0.056, 1.743e-8
-0.057, 1.712e-8
-0.058, 1.717e-8
-0.059, 1.704e-8
-0.060, 1.686e-8
-0.061, 1.694e-8
-0.062, 1.664e-8
-0.063, 1.672e-8
-0.064, 1.657e-8
-0.065, 1.640e-8
-0.066, 1.651e-8
-0.067, 1.619e-8
-0.068, 1.629e-8
-0.069, 1.615e-8
-0.070, 1.596e-8
-0.071, 1.610e-8
-0.072, 1.579e-8
-0.073, 1.587e-8
-0.074, 1.576e-8
-0.075, 1.559e-8
-0.076, 1.571e-8
-0.077, 1.543e-8
-0.078, 1.550e-8
-0.079, 1.540e-8
-0.080, 1.523e-8
-0.081, 1.536e-8
-0.082, 1.507e-8
-0.083, 1.516e-8
-0.084, 1.507e-8
-0.085, 1.488e-8
-0.086, 1.503e-8
-0.087, 1.476e-8
-0.088, 1.483e-8
-0.089, 1.476e-8
-0.090, 1.460e-8
-0.091, 1.471e-8
-0.092, 1.447e-8
-0.093, 1.455e-8
-0.094, 1.444e-8
-0.095, 1.433e-8
-0.096, 1.443e-8
-0.097, 1.417e-8
-0.098, 1.429e-8
-0.099, 1.418e-8
-0.100, 1.404e-8
-0.101, 1.419e-8
-0.102, 1.393e-8
-0.103, 1.403e-8
-0.104, 1.394e-8
-0.105, 1.380e-8
-0.106, 1.393e-8
-0.107, 1.368e-8
-0.108, 1.380e-8
-0.109, 1.370e-8
-0.110, 1.357e-8
-0.111, 1.372e-8
-0.112, 1.344e-8
-0.113, 1.359e-8
-0.114, 1.349e-8
-0.115, 1.335e-8
-0.116, 1.352e-8
-0.117, 1.325e-8
-0.118, 1.337e-8
-0.119, 1.330e-8
-0.120, 1.316e-8
-0.121, 1.331e-8
-0.122, 1.308e-8
-0.123, 1.319e-8
-0.124, 1.311e-8
-0.125, 1.299e-8
-0.126, 1.314e-8
-0.127, 1.290e-8
-0.128, 1.303e-8
-0.129, 1.294e-8
-0.130, 1.282e-8
-0.131, 1.298e-8
-0.132, 1.274e-8
-0.133, 1.285e-8
-0.134, 1.279e-8
-0.135, 1.267e-8
-0.136, 1.281e-8
-0.137, 1.259e-8
-0.138, 1.272e-8
-0.139, 1.263e-8
-0.140, 1.255e-8
-0.141, 1.269e-8
-0.142, 1.243e-8
-0.143, 1.261e-8
-0.144, 1.250e-8
-0.145, 1.240e-8
-0.146, 1.257e-8
-0.147, 1.233e-8
-0.148, 1.247e-8
-0.149, 1.239e-8
-0.150, 1.229e-8
-0.151, 1.245e-8
-0.152, 1.223e-8
-0.153, 1.236e-8
-0.154, 1.229e-8
-0.155, 1.219e-8
-0.156, 1.237e-8
-0.157, 1.211e-8
-0.158, 1.227e-8
-0.159, 1.221e-8
-0.160, 1.209e-8
-0.161, 1.227e-8
-0.162, 1.205e-8
-0.163, 1.217e-8
-0.164, 1.213e-8
-0.165, 1.202e-8
-0.166, 1.219e-8
-0.167, 1.198e-8
-0.168, 1.211e-8
-0.169, 1.204e-8
-0.170, 1.197e-8
-0.171, 1.212e-8
-0.172, 1.190e-8
-0.173, 1.205e-8
-0.174, 1.199e-8
-0.175, 1.190e-8
-0.176, 1.207e-8
-0.177, 1.185e-8
-0.178, 1.200e-8
-0.179, 1.194e-8
-0.180, 1.187e-8
-0.181, 1.201e-8
-0.182, 1.181e-8
-0.183, 1.197e-8
-0.184, 1.189e-8
-0.185, 1.181e-8
-0.186, 1.200e-8
-0.187, 1.176e-8
-0.188, 1.195e-8
-0.189, 1.187e-8
-0.190, 1.179e-8
-0.191, 1.197e-8
-0.192, 1.175e-8
-0.193, 1.192e-8
-0.194, 1.186e-8
-0.195, 1.178e-8
-0.196, 1.196e-8
-0.197, 1.174e-8
-0.198, 1.191e-8
-0.199, 1.186e-8
