May 24, 2023   16:56:18
Cyclic Voltammetry
File: c:/users/mapence2/desktop/data/2023_05_24\expt1\mix_2\cv_1.bin
Data Source:  Experiment
Instrument Model:  CHI760E
Header: CV
Note: 

Init E (V) = 0
High E (V) = 0.7
Low E (V) = 0
Final E (V) = 0
Init P/N = P
Scan Rate (V/s) = 0.005
Segment = 3
Sample Interval (V) = 0.001
Quiet Time (sec) = 2
Sensitivity (A/V) = 1e-9

Results:

Channel 1:
Segment 1:

Segment 2:

Segment 3:

Potential/V, Current/A

0.000, 7.013e-12
0.001, 5.656e-12
0.002, 4.763e-12
0.003, 4.081e-12
0.004, 3.473e-12
0.005, 3.048e-12
0.006, 2.654e-12
0.007, 2.260e-12
0.008, 1.993e-12
0.009, 1.726e-12
0.010, 1.607e-12
0.011, 1.337e-12
0.012, 1.110e-12
0.013, 9.861e-13
0.014, 8.490e-13
0.015, 7.978e-13
0.016, 7.994e-13
0.017, 5.340e-13
0.018, 4.899e-13
0.019, 5.127e-13
0.020, 4.269e-13
0.021, 3.765e-13
0.022, 3.016e-13
0.023, 2.851e-13
0.024, 2.552e-13
0.025, 1.851e-13
0.026, 1.016e-13
0.027, 4.095e-14
0.028, 3.150e-15
0.029, -7.718e-14
0.030, -1.142e-13
0.031, -1.796e-13
0.032, -2.150e-13
0.033, -3.276e-13
0.034, -3.536e-13
0.035, -3.418e-13
0.036, -4.214e-13
0.037, -4.804e-13
0.038, -5.300e-13
0.039, -6.096e-13
0.040, -6.915e-13
0.041, -7.474e-13
0.042, -7.931e-13
0.043, -8.199e-13
0.044, -8.774e-13
0.045, -8.734e-13
0.046, -9.884e-13
0.047, -1.059e-12
0.048, -1.209e-12
0.049, -1.213e-12
0.050, -1.257e-12
0.051, -1.389e-12
0.052, -1.486e-12
0.053, -1.500e-12
0.054, -1.530e-12
0.055, -1.674e-12
0.056, -1.731e-12
0.057, -1.761e-12
0.058, -1.804e-12
0.059, -1.961e-12
0.060, -2.067e-12
0.061, -2.083e-12
0.062, -2.109e-12
0.063, -2.149e-12
0.064, -2.233e-12
0.065, -2.314e-12
0.066, -2.430e-12
0.067, -2.448e-12
0.068, -2.514e-12
0.069, -2.586e-12
0.070, -2.718e-12
0.071, -2.765e-12
0.072, -2.754e-12
0.073, -2.987e-12
0.074, -3.043e-12
0.075, -3.024e-12
0.076, -3.045e-12
0.077, -3.009e-12
0.078, -2.879e-12
0.079, -2.908e-12
0.080, -3.213e-12
0.081, -3.335e-12
0.082, -3.298e-12
0.083, -3.406e-12
0.084, -3.699e-12
0.085, -3.711e-12
0.086, -3.739e-12
0.087, -3.860e-12
0.088, -3.966e-12
0.089, -4.062e-12
0.090, -4.109e-12
0.091, -4.231e-12
0.092, -4.307e-12
0.093, -4.375e-12
0.094, -4.466e-12
0.095, -4.509e-12
0.096, -4.598e-12
0.097, -4.666e-12
0.098, -4.691e-12
0.099, -4.763e-12
0.100, -4.870e-12
0.101, -4.900e-12
0.102, -5.004e-12
0.103, -5.077e-12
0.104, -5.176e-12
0.105, -5.241e-12
0.106, -5.337e-12
0.107, -5.373e-12
0.108, -5.404e-12
0.109, -5.462e-12
0.110, -5.596e-12
0.111, -5.709e-12
0.112, -5.815e-12
0.113, -5.872e-12
0.114, -5.922e-12
0.115, -5.977e-12
0.116, -6.038e-12
0.117, -6.154e-12
0.118, -6.255e-12
0.119, -6.272e-12
0.120, -6.398e-12
0.121, -6.473e-12
0.122, -6.555e-12
0.123, -6.652e-12
0.124, -6.751e-12
0.125, -6.841e-12
0.126, -6.939e-12
0.127, -7.047e-12
0.128, -7.128e-12
0.129, -7.257e-12
0.130, -7.373e-12
0.131, -7.458e-12
0.132, -7.499e-12
0.133, -7.614e-12
0.134, -7.721e-12
0.135, -7.829e-12
0.136, -7.930e-12
0.137, -8.004e-12
0.138, -8.132e-12
0.139, -8.206e-12
0.140, -8.224e-12
0.141, -8.318e-12
0.142, -8.411e-12
0.143, -8.561e-12
0.144, -8.678e-12
0.145, -8.748e-12
0.146, -8.810e-12
0.147, -8.890e-12
0.148, -8.992e-12
0.149, -9.078e-12
0.150, -9.179e-12
0.151, -9.267e-12
0.152, -9.317e-12
0.153, -9.452e-12
0.154, -9.605e-12
0.155, -9.613e-12
0.156, -9.802e-12
0.157, -9.968e-12
0.158, -1.003e-11
0.159, -1.013e-11
0.160, -1.022e-11
0.161, -1.033e-11
0.162, -1.047e-11
0.163, -1.064e-11
0.164, -1.074e-11
0.165, -1.082e-11
0.166, -1.093e-11
0.167, -1.100e-11
0.168, -1.106e-11
0.169, -1.123e-11
0.170, -1.134e-11
0.171, -1.144e-11
0.172, -1.155e-11
0.173, -1.169e-11
0.174, -1.178e-11
0.175, -1.191e-11
0.176, -1.203e-11
0.177, -1.209e-11
0.178, -1.219e-11
0.179, -1.233e-11
0.180, -1.245e-11
0.181, -1.250e-11
0.182, -1.265e-11
0.183, -1.274e-11
0.184, -1.286e-11
0.185, -1.297e-11
0.186, -1.313e-11
0.187, -1.325e-11
0.188, -1.332e-11
0.189, -1.349e-11
0.190, -1.363e-11
0.191, -1.372e-11
0.192, -1.383e-11
0.193, -1.390e-11
0.194, -1.427e-11
0.195, -1.446e-11
0.196, -1.443e-11
0.197, -1.443e-11
0.198, -1.455e-11
0.199, -1.461e-11
0.200, -1.474e-11
0.201, -1.489e-11
0.202, -1.497e-11
0.203, -1.508e-11
0.204, -1.524e-11
0.205, -1.535e-11
0.206, -1.545e-11
0.207, -1.561e-11
0.208, -1.573e-11
0.209, -1.587e-11
0.210, -1.606e-11
0.211, -1.614e-11
0.212, -1.632e-11
0.213, -1.644e-11
0.214, -1.654e-11
0.215, -1.662e-11
0.216, -1.672e-11
0.217, -1.688e-11
0.218, -1.697e-11
0.219, -1.711e-11
0.220, -1.723e-11
0.221, -1.728e-11
0.222, -1.748e-11
0.223, -1.760e-11
0.224, -1.770e-11
0.225, -1.789e-11
0.226, -1.797e-11
0.227, -1.804e-11
0.228, -1.815e-11
0.229, -1.823e-11
0.230, -1.834e-11
0.231, -1.846e-11
0.232, -1.864e-11
0.233, -1.881e-11
0.234, -1.894e-11
0.235, -1.903e-11
0.236, -1.908e-11
0.237, -1.917e-11
0.238, -1.932e-11
0.239, -1.940e-11
0.240, -1.952e-11
0.241, -1.961e-11
0.242, -1.970e-11
0.243, -1.982e-11
0.244, -1.996e-11
0.245, -2.001e-11
0.246, -2.016e-11
0.247, -2.031e-11
0.248, -2.042e-11
0.249, -2.050e-11
0.250, -2.057e-11
0.251, -2.073e-11
0.252, -2.088e-11
0.253, -2.097e-11
0.254, -2.112e-11
0.255, -2.119e-11
0.256, -2.133e-11
0.257, -2.143e-11
0.258, -2.154e-11
0.259, -2.168e-11
0.260, -2.182e-11
0.261, -2.189e-11
0.262, -2.201e-11
0.263, -2.212e-11
0.264, -2.226e-11
0.265, -2.239e-11
0.266, -2.249e-11
0.267, -2.258e-11
0.268, -2.271e-11
0.269, -2.286e-11
0.270, -2.295e-11
0.271, -2.306e-11
0.272, -2.317e-11
0.273, -2.329e-11
0.274, -2.343e-11
0.275, -2.356e-11
0.276, -2.366e-11
0.277, -2.372e-11
0.278, -2.388e-11
0.279, -2.395e-11
0.280, -2.416e-11
0.281, -2.428e-11
0.282, -2.445e-11
0.283, -2.455e-11
0.284, -2.477e-11
0.285, -2.481e-11
0.286, -2.501e-11
0.287, -2.525e-11
0.288, -2.547e-11
0.289, -2.561e-11
0.290, -2.564e-11
0.291, -2.570e-11
0.292, -2.584e-11
0.293, -2.602e-11
0.294, -2.611e-11
0.295, -2.624e-11
0.296, -2.640e-11
0.297, -2.660e-11
0.298, -2.670e-11
0.299, -2.680e-11
0.300, -2.692e-11
0.301, -2.707e-11
0.302, -2.723e-11
0.303, -2.739e-11
0.304, -2.749e-11
0.305, -2.770e-11
0.306, -2.786e-11
0.307, -2.799e-11
0.308, -2.816e-11
0.309, -2.833e-11
0.310, -2.839e-11
0.311, -2.857e-11
0.312, -2.873e-11
0.313, -2.891e-11
0.314, -2.908e-11
0.315, -2.918e-11
0.316, -2.934e-11
0.317, -2.955e-11
0.318, -2.968e-11
0.319, -2.981e-11
0.320, -3.000e-11
0.321, -3.011e-11
0.322, -3.036e-11
0.323, -3.053e-11
0.324, -3.058e-11
0.325, -3.072e-11
0.326, -3.097e-11
0.327, -3.122e-11
0.328, -3.134e-11
0.329, -3.150e-11
0.330, -3.163e-11
0.331, -3.181e-11
0.332, -3.198e-11
0.333, -3.213e-11
0.334, -3.231e-11
0.335, -3.240e-11
0.336, -3.264e-11
0.337, -3.275e-11
0.338, -3.285e-11
0.339, -3.313e-11
0.340, -3.339e-11
0.341, -3.360e-11
0.342, -3.374e-11
0.343, -3.386e-11
0.344, -3.401e-11
0.345, -3.420e-11
0.346, -3.427e-11
0.347, -3.446e-11
0.348, -3.466e-11
0.349, -3.487e-11
0.350, -3.501e-11
0.351, -3.516e-11
0.352, -3.535e-11
0.353, -3.551e-11
0.354, -3.549e-11
0.355, -3.385e-11
0.356, -3.575e-11
0.357, -3.620e-11
0.358, -3.631e-11
0.359, -3.651e-11
0.360, -3.670e-11
0.361, -3.687e-11
0.362, -3.705e-11
0.363, -3.721e-11
0.364, -3.749e-11
0.365, -3.762e-11
0.366, -3.779e-11
0.367, -3.796e-11
0.368, -3.812e-11
0.369, -3.828e-11
0.370, -3.842e-11
0.371, -3.857e-11
0.372, -3.872e-11
0.373, -3.877e-11
0.374, -3.894e-11
0.375, -3.912e-11
0.376, -3.933e-11
0.377, -3.950e-11
0.378, -3.972e-11
0.379, -3.989e-11
0.380, -4.003e-11
0.381, -4.031e-11
0.382, -4.041e-11
0.383, -4.049e-11
0.384, -4.064e-11
0.385, -4.077e-11
0.386, -4.086e-11
0.387, -4.106e-11
0.388, -4.123e-11
0.389, -4.140e-11
0.390, -4.146e-11
0.391, -4.167e-11
0.392, -4.178e-11
0.393, -4.192e-11
0.394, -4.224e-11
0.395, -4.241e-11
0.396, -4.252e-11
0.397, -4.271e-11
0.398, -4.287e-11
0.399, -4.305e-11
0.400, -4.314e-11
0.401, -4.325e-11
0.402, -4.345e-11
0.403, -4.357e-11
0.404, -4.370e-11
0.405, -4.389e-11
0.406, -4.398e-11
0.407, -4.415e-11
0.408, -4.436e-11
0.409, -4.455e-11
0.410, -4.467e-11
0.411, -4.485e-11
0.412, -4.506e-11
0.413, -4.522e-11
0.414, -4.542e-11
0.415, -4.551e-11
0.416, -4.573e-11
0.417, -4.589e-11
0.418, -4.607e-11
0.419, -4.623e-11
0.420, -4.639e-11
0.421, -4.660e-11
0.422, -4.674e-11
0.423, -4.693e-11
0.424, -4.719e-11
0.425, -4.738e-11
0.426, -4.749e-11
0.427, -4.764e-11
0.428, -4.792e-11
0.429, -4.816e-11
0.430, -4.822e-11
0.431, -4.832e-11
0.432, -4.853e-11
0.433, -4.862e-11
0.434, -4.883e-11
0.435, -4.893e-11
0.436, -4.904e-11
0.437, -4.925e-11
0.438, -4.943e-11
0.439, -4.956e-11
0.440, -4.974e-11
0.441, -4.996e-11
0.442, -5.004e-11
0.443, -5.014e-11
0.444, -5.030e-11
0.445, -5.047e-11
0.446, -5.069e-11
0.447, -5.092e-11
0.448, -5.093e-11
0.449, -5.105e-11
0.450, -5.126e-11
0.451, -5.151e-11
0.452, -5.158e-11
0.453, -5.163e-11
0.454, -5.173e-11
0.455, -5.181e-11
0.456, -5.198e-11
0.457, -5.215e-11
0.458, -5.222e-11
0.459, -5.238e-11
0.460, -5.256e-11
0.461, -5.261e-11
0.462, -5.273e-11
0.463, -5.295e-11
0.464, -5.313e-11
0.465, -5.330e-11
0.466, -5.345e-11
0.467, -5.360e-11
0.468, -5.380e-11
0.469, -5.405e-11
0.470, -5.420e-11
0.471, -5.438e-11
0.472, -5.452e-11
0.473, -5.468e-11
0.474, -5.483e-11
0.475, -5.502e-11
0.476, -5.518e-11
0.477, -5.527e-11
0.478, -5.541e-11
0.479, -5.552e-11
0.480, -5.562e-11
0.481, -5.578e-11
0.482, -5.589e-11
0.483, -5.602e-11
0.484, -5.616e-11
0.485, -5.630e-11
0.486, -5.645e-11
0.487, -5.659e-11
0.488, -5.660e-11
0.489, -5.463e-11
0.490, -5.579e-11
0.491, -5.730e-11
0.492, -5.760e-11
0.493, -5.783e-11
0.494, -5.803e-11
0.495, -5.826e-11
0.496, -5.840e-11
0.497, -5.857e-11
0.498, -5.874e-11
0.499, -5.893e-11
0.500, -5.909e-11
0.501, -5.929e-11
0.502, -5.945e-11
0.503, -5.951e-11
0.504, -5.976e-11
0.505, -6.008e-11
0.506, -6.028e-11
0.507, -6.048e-11
0.508, -6.074e-11
0.509, -6.090e-11
0.510, -6.108e-11
0.511, -6.120e-11
0.512, -6.140e-11
0.513, -6.162e-11
0.514, -6.171e-11
0.515, -6.193e-11
0.516, -6.225e-11
0.517, -6.237e-11
0.518, -6.246e-11
0.519, -6.265e-11
0.520, -6.285e-11
0.521, -6.305e-11
0.522, -6.320e-11
0.523, -6.327e-11
0.524, -6.341e-11
0.525, -6.354e-11
0.526, -6.370e-11
0.527, -6.384e-11
0.528, -6.397e-11
0.529, -6.402e-11
0.530, -6.422e-11
0.531, -6.437e-11
0.532, -6.452e-11
0.533, -6.467e-11
0.534, -6.479e-11
0.535, -6.492e-11
0.536, -6.495e-11
0.537, -6.508e-11
0.538, -6.526e-11
0.539, -6.538e-11
0.540, -6.555e-11
0.541, -6.551e-11
0.542, -6.575e-11
0.543, -6.579e-11
0.544, -6.612e-11
0.545, -6.629e-11
0.546, -6.632e-11
0.547, -6.656e-11
0.548, -6.676e-11
0.549, -6.684e-11
0.550, -6.708e-11
0.551, -6.724e-11
0.552, -6.744e-11
0.553, -6.753e-11
0.554, -6.773e-11
0.555, -6.790e-11
0.556, -6.812e-11
0.557, -6.837e-11
0.558, -6.861e-11
0.559, -6.880e-11
0.560, -6.906e-11
0.561, -6.921e-11
0.562, -6.943e-11
0.563, -6.966e-11
0.564, -6.982e-11
0.565, -7.000e-11
0.566, -7.018e-11
0.567, -7.039e-11
0.568, -7.055e-11
0.569, -7.071e-11
0.570, -7.089e-11
0.571, -7.110e-11
0.572, -7.133e-11
0.573, -7.148e-11
0.574, -7.164e-11
0.575, -7.178e-11
0.576, -7.191e-11
0.577, -7.211e-11
0.578, -7.234e-11
0.579, -7.258e-11
0.580, -7.275e-11
0.581, -7.289e-11
0.582, -7.305e-11
0.583, -7.328e-11
0.584, -7.346e-11
0.585, -7.366e-11
0.586, -7.351e-11
0.587, -7.280e-11
0.588, -7.341e-11
0.589, -7.388e-11
0.590, -7.415e-11
0.591, -7.447e-11
0.592, -7.473e-11
0.593, -7.494e-11
0.594, -7.507e-11
0.595, -7.515e-11
0.596, -7.526e-11
0.597, -7.531e-11
0.598, -7.541e-11
0.599, -7.557e-11
0.600, -7.566e-11
0.601, -7.578e-11
0.602, -7.591e-11
0.603, -7.612e-11
0.604, -7.617e-11
0.605, -7.624e-11
0.606, -7.650e-11
0.607, -7.672e-11
0.608, -7.692e-11
0.609, -7.713e-11
0.610, -7.735e-11
0.611, -7.758e-11
0.612, -7.785e-11
0.613, -7.805e-11
0.614, -7.827e-11
0.615, -7.838e-11
0.616, -7.867e-11
0.617, -7.890e-11
0.618, -7.898e-11
0.619, -7.918e-11
0.620, -7.858e-11
0.621, -7.951e-11
0.622, -7.997e-11
0.623, -8.016e-11
0.624, -8.035e-11
0.625, -8.049e-11
0.626, -8.076e-11
0.627, -8.093e-11
0.628, -8.093e-11
0.629, -8.112e-11
0.630, -8.132e-11
0.631, -8.147e-11
0.632, -8.147e-11
0.633, -8.148e-11
0.634, -8.184e-11
0.635, -8.192e-11
0.636, -8.209e-11
0.637, -8.246e-11
0.638, -8.282e-11
0.639, -8.283e-11
0.640, -8.314e-11
0.641, -8.349e-11
0.642, -8.378e-11
0.643, -8.415e-11
0.644, -8.439e-11
0.645, -8.465e-11
0.646, -8.448e-11
0.647, -8.467e-11
0.648, -8.485e-11
0.649, -8.484e-11
0.650, -8.497e-11
0.651, -8.513e-11
0.652, -8.533e-11
0.653, -8.550e-11
0.654, -8.568e-11
0.655, -8.597e-11
0.656, -8.626e-11
0.657, -8.665e-11
0.658, -8.686e-11
0.659, -8.713e-11
0.660, -8.746e-11
0.661, -8.766e-11
0.662, -8.779e-11
0.663, -8.805e-11
0.664, -8.827e-11
0.665, -8.835e-11
0.666, -8.855e-11
0.667, -8.894e-11
0.668, -8.908e-11
0.669, -8.923e-11
0.670, -8.938e-11
0.671, -8.954e-11
0.672, -8.979e-11
0.673, -9.001e-11
0.674, -9.021e-11
0.675, -9.033e-11
0.676, -9.044e-11
0.677, -9.062e-11
0.678, -9.097e-11
0.679, -9.126e-11
0.680, -9.145e-11
0.681, -9.166e-11
0.682, -9.190e-11
0.683, -9.208e-11
0.684, -9.232e-11
0.685, -9.253e-11
0.686, -9.270e-11
0.687, -9.291e-11
0.688, -9.317e-11
0.689, -9.334e-11
0.690, -9.358e-11
0.691, -9.383e-11
0.692, -9.411e-11
0.693, -9.432e-11
0.694, -9.462e-11
0.695, -9.485e-11
0.696, -9.517e-11
0.697, -9.551e-11
0.698, -9.578e-11
0.699, -9.611e-11
0.700, -9.617e-11
0.699, -9.545e-11
0.698, -9.505e-11
0.697, -9.474e-11
0.696, -9.448e-11
0.695, -9.423e-11
0.694, -9.385e-11
0.693, -9.355e-11
0.692, -9.341e-11
0.691, -9.319e-11
0.690, -9.289e-11
0.689, -9.263e-11
0.688, -9.233e-11
0.687, -9.202e-11
0.686, -9.169e-11
0.685, -9.133e-11
0.684, -9.109e-11
0.683, -9.080e-11
0.682, -9.046e-11
0.681, -9.008e-11
0.680, -8.982e-11
0.679, -8.955e-11
0.678, -8.921e-11
0.677, -8.898e-11
0.676, -8.881e-11
0.675, -8.861e-11
0.674, -8.825e-11
0.673, -8.788e-11
0.672, -8.745e-11
0.671, -8.712e-11
0.670, -8.662e-11
0.669, -8.632e-11
0.668, -8.600e-11
0.667, -8.550e-11
0.666, -8.515e-11
0.665, -8.485e-11
0.664, -8.456e-11
0.663, -8.428e-11
0.662, -8.383e-11
0.661, -8.350e-11
0.660, -8.328e-11
0.659, -8.297e-11
0.658, -8.278e-11
0.657, -8.257e-11
0.656, -8.230e-11
0.655, -8.200e-11
0.654, -8.174e-11
0.653, -8.156e-11
0.652, -8.137e-11
0.651, -8.116e-11
0.650, -8.102e-11
0.649, -8.091e-11
0.648, -8.071e-11
0.647, -8.069e-11
0.646, -8.054e-11
0.645, -8.027e-11
0.644, -8.003e-11
0.643, -7.978e-11
0.642, -7.952e-11
0.641, -7.931e-11
0.640, -7.914e-11
0.639, -7.889e-11
0.638, -7.866e-11
0.637, -7.850e-11
0.636, -7.831e-11
0.635, -7.819e-11
0.634, -7.798e-11
0.633, -7.773e-11
0.632, -7.748e-11
0.631, -7.724e-11
0.630, -7.686e-11
0.629, -7.657e-11
0.628, -7.628e-11
0.627, -7.601e-11
0.626, -7.579e-11
0.625, -7.561e-11
0.624, -7.537e-11
0.623, -7.511e-11
0.622, -7.498e-11
0.621, -7.494e-11
0.620, -7.470e-11
0.619, -7.459e-11
0.618, -7.441e-11
0.617, -7.413e-11
0.616, -7.400e-11
0.615, -7.382e-11
0.614, -7.360e-11
0.613, -7.345e-11
0.612, -7.321e-11
0.611, -7.290e-11
0.610, -7.274e-11
0.609, -7.262e-11
0.608, -7.236e-11
0.607, -7.217e-11
0.606, -7.196e-11
0.605, -7.161e-11
0.604, -7.136e-11
0.603, -7.110e-11
0.602, -7.080e-11
0.601, -7.055e-11
0.600, -7.040e-11
0.599, -7.022e-11
0.598, -6.998e-11
0.597, -6.983e-11
0.596, -6.973e-11
0.595, -6.967e-11
0.594, -6.947e-11
0.593, -6.931e-11
0.592, -6.915e-11
0.591, -6.901e-11
0.590, -6.887e-11
0.589, -6.857e-11
0.588, -6.828e-11
0.587, -6.799e-11
0.586, -6.785e-11
0.585, -6.756e-11
0.584, -6.743e-11
0.583, -6.724e-11
0.582, -6.700e-11
0.581, -6.670e-11
0.580, -6.647e-11
0.579, -6.628e-11
0.578, -6.601e-11
0.577, -6.571e-11
0.576, -6.540e-11
0.575, -6.528e-11
0.574, -6.503e-11
0.573, -6.479e-11
0.572, -6.459e-11
0.571, -6.429e-11
0.570, -6.398e-11
0.569, -6.385e-11
0.568, -6.366e-11
0.567, -6.337e-11
0.566, -6.312e-11
0.565, -6.288e-11
0.564, -6.265e-11
0.563, -6.238e-11
0.562, -6.223e-11
0.561, -6.202e-11
0.560, -6.177e-11
0.559, -6.158e-11
0.558, -6.142e-11
0.557, -6.122e-11
0.556, -6.101e-11
0.555, -6.083e-11
0.554, -6.065e-11
0.553, -6.044e-11
0.552, -6.025e-11
0.551, -6.010e-11
0.550, -5.992e-11
0.549, -5.971e-11
0.548, -5.956e-11
0.547, -5.934e-11
0.546, -5.925e-11
0.545, -5.898e-11
0.544, -5.872e-11
0.543, -5.853e-11
0.542, -5.840e-11
0.541, -5.827e-11
0.540, -5.802e-11
0.539, -5.788e-11
0.538, -5.771e-11
0.537, -5.748e-11
0.536, -5.720e-11
0.535, -5.705e-11
0.534, -5.688e-11
0.533, -5.664e-11
0.532, -5.648e-11
0.531, -5.634e-11
0.530, -5.619e-11
0.529, -5.606e-11
0.528, -5.591e-11
0.527, -5.569e-11
0.526, -5.548e-11
0.525, -5.541e-11
0.524, -5.519e-11
0.523, -5.505e-11
0.522, -5.484e-11
0.521, -5.471e-11
0.520, -5.440e-11
0.519, -5.417e-11
0.518, -5.400e-11
0.517, -5.382e-11
0.516, -5.365e-11
0.515, -5.342e-11
0.514, -5.334e-11
0.513, -5.321e-11
0.512, -5.305e-11
0.511, -5.285e-11
0.510, -5.265e-11
0.509, -5.251e-11
0.508, -5.234e-11
0.507, -5.211e-11
0.506, -5.197e-11
0.505, -5.182e-11
0.504, -5.164e-11
0.503, -5.153e-11
0.502, -5.135e-11
0.501, -5.120e-11
0.500, -5.104e-11
0.499, -5.085e-11
0.498, -5.064e-11
0.497, -5.056e-11
0.496, -5.044e-11
0.495, -5.024e-11
0.494, -5.006e-11
0.493, -4.992e-11
0.492, -4.980e-11
0.491, -4.961e-11
0.490, -4.940e-11
0.489, -4.929e-11
0.488, -4.908e-11
0.487, -4.890e-11
0.486, -4.872e-11
0.485, -4.853e-11
0.484, -4.835e-11
0.483, -4.810e-11
0.482, -4.790e-11
0.481, -4.771e-11
0.480, -4.748e-11
0.479, -4.728e-11
0.478, -4.703e-11
0.477, -4.683e-11
0.476, -4.660e-11
0.475, -4.646e-11
0.474, -4.625e-11
0.473, -4.607e-11
0.472, -4.588e-11
0.471, -4.567e-11
0.470, -4.547e-11
0.469, -4.530e-11
0.468, -4.514e-11
0.467, -4.496e-11
0.466, -4.477e-11
0.465, -4.457e-11
0.464, -4.446e-11
0.463, -4.433e-11
0.462, -4.410e-11
0.461, -4.395e-11
0.460, -4.381e-11
0.459, -4.364e-11
0.458, -4.346e-11
0.457, -4.335e-11
0.456, -4.321e-11
0.455, -4.305e-11
0.454, -4.290e-11
0.453, -4.273e-11
0.452, -4.255e-11
0.451, -4.242e-11
0.450, -4.227e-11
0.449, -4.211e-11
0.448, -4.187e-11
0.447, -4.171e-11
0.446, -4.153e-11
0.445, -4.141e-11
0.444, -4.124e-11
0.443, -4.108e-11
0.442, -4.086e-11
0.441, -4.070e-11
0.440, -4.058e-11
0.439, -4.042e-11
0.438, -4.023e-11
0.437, -3.998e-11
0.436, -3.990e-11
0.435, -3.971e-11
0.434, -3.950e-11
0.433, -3.935e-11
0.432, -3.911e-11
0.431, -3.889e-11
0.430, -3.871e-11
0.429, -3.849e-11
0.428, -3.831e-11
0.427, -3.814e-11
0.426, -3.796e-11
0.425, -3.779e-11
0.424, -3.759e-11
0.423, -3.743e-11
0.422, -3.724e-11
0.421, -3.711e-11
0.420, -3.695e-11
0.419, -3.673e-11
0.418, -3.657e-11
0.417, -3.642e-11
0.416, -3.627e-11
0.415, -3.609e-11
0.414, -3.593e-11
0.413, -3.576e-11
0.412, -3.557e-11
0.411, -3.543e-11
0.410, -3.524e-11
0.409, -3.514e-11
0.408, -3.494e-11
0.407, -3.478e-11
0.406, -3.466e-11
0.405, -3.448e-11
0.404, -3.440e-11
0.403, -3.423e-11
0.402, -3.412e-11
0.401, -3.399e-11
0.400, -3.386e-11
0.399, -3.371e-11
0.398, -3.354e-11
0.397, -3.339e-11
0.396, -3.317e-11
0.395, -3.300e-11
0.394, -3.283e-11
0.393, -3.268e-11
0.392, -3.252e-11
0.391, -3.234e-11
0.390, -3.217e-11
0.389, -3.200e-11
0.388, -3.177e-11
0.387, -3.161e-11
0.386, -3.144e-11
0.385, -3.131e-11
0.384, -3.113e-11
0.383, -3.092e-11
0.382, -3.071e-11
0.381, -3.055e-11
0.380, -3.033e-11
0.379, -3.017e-11
0.378, -2.998e-11
0.377, -2.984e-11
0.376, -2.965e-11
0.375, -2.947e-11
0.374, -2.935e-11
0.373, -2.913e-11
0.372, -2.896e-11
0.371, -2.879e-11
0.370, -2.857e-11
0.369, -2.842e-11
0.368, -2.821e-11
0.367, -2.811e-11
0.366, -2.797e-11
0.365, -2.772e-11
0.364, -2.751e-11
0.363, -2.733e-11
0.362, -2.713e-11
0.361, -2.701e-11
0.360, -2.682e-11
0.359, -2.664e-11
0.358, -2.643e-11
0.357, -2.630e-11
0.356, -2.613e-11
0.355, -2.597e-11
0.354, -2.582e-11
0.353, -2.562e-11
0.352, -2.546e-11
0.351, -2.528e-11
0.350, -2.510e-11
0.349, -2.491e-11
0.348, -2.471e-11
0.347, -2.458e-11
0.346, -2.443e-11
0.345, -2.424e-11
0.344, -2.402e-11
0.343, -2.385e-11
0.342, -2.366e-11
0.341, -2.340e-11
0.340, -2.333e-11
0.339, -2.317e-11
0.338, -2.301e-11
0.337, -2.284e-11
0.336, -2.263e-11
0.335, -2.247e-11
0.334, -2.230e-11
0.333, -2.213e-11
0.332, -2.200e-11
0.331, -2.181e-11
0.330, -2.171e-11
0.329, -2.147e-11
0.328, -2.131e-11
0.327, -2.118e-11
0.326, -2.103e-11
0.325, -2.085e-11
0.324, -2.071e-11
0.323, -2.058e-11
0.322, -2.040e-11
0.321, -2.029e-11
0.320, -2.010e-11
0.319, -1.993e-11
0.318, -1.979e-11
0.317, -1.966e-11
0.316, -1.950e-11
0.315, -1.934e-11
0.314, -1.917e-11
0.313, -1.899e-11
0.312, -1.886e-11
0.311, -1.875e-11
0.310, -1.855e-11
0.309, -1.846e-11
0.308, -1.832e-11
0.307, -1.824e-11
0.306, -1.805e-11
0.305, -1.795e-11
0.304, -1.776e-11
0.303, -1.767e-11
0.302, -1.750e-11
0.301, -1.733e-11
0.300, -1.722e-11
0.299, -1.709e-11
0.298, -1.692e-11
0.297, -1.681e-11
0.296, -1.665e-11
0.295, -1.651e-11
0.294, -1.644e-11
0.293, -1.633e-11
0.292, -1.619e-11
0.291, -1.609e-11
0.290, -1.589e-11
0.289, -1.577e-11
0.288, -1.568e-11
0.287, -1.555e-11
0.286, -1.538e-11
0.285, -1.529e-11
0.284, -1.519e-11
0.283, -1.504e-11
0.282, -1.490e-11
0.281, -1.476e-11
0.280, -1.463e-11
0.279, -1.450e-11
0.278, -1.440e-11
0.277, -1.434e-11
0.276, -1.419e-11
0.275, -1.408e-11
0.274, -1.404e-11
0.273, -1.392e-11
0.272, -1.382e-11
0.271, -1.369e-11
0.270, -1.359e-11
0.269, -1.344e-11
0.268, -1.332e-11
0.267, -1.322e-11
0.266, -1.299e-11
0.265, -1.295e-11
0.264, -1.284e-11
0.263, -1.278e-11
0.262, -1.266e-11
0.261, -1.254e-11
0.260, -1.240e-11
0.259, -1.234e-11
0.258, -1.224e-11
0.257, -1.212e-11
0.256, -1.200e-11
0.255, -1.184e-11
0.254, -1.175e-11
0.253, -1.177e-11
0.252, -1.155e-11
0.251, -1.152e-11
0.250, -1.131e-11
0.249, -1.122e-11
0.248, -1.114e-11
0.247, -1.105e-11
0.246, -1.088e-11
0.245, -1.081e-11
0.244, -1.072e-11
0.243, -1.061e-11
0.242, -1.052e-11
0.241, -1.040e-11
0.240, -1.026e-11
0.239, -1.021e-11
0.238, -1.011e-11
0.237, -9.942e-12
0.236, -9.901e-12
0.235, -9.813e-12
0.234, -9.650e-12
0.233, -9.550e-12
0.232, -9.428e-12
0.231, -9.405e-12
0.230, -9.299e-12
0.229, -9.162e-12
0.228, -9.007e-12
0.227, -8.803e-12
0.226, -8.845e-12
0.225, -8.719e-12
0.224, -8.660e-12
0.223, -8.511e-12
0.222, -8.409e-12
0.221, -8.322e-12
0.220, -8.230e-12
0.219, -8.089e-12
0.218, -7.969e-12
0.217, -7.899e-12
0.216, -7.811e-12
0.215, -7.687e-12
0.214, -7.573e-12
0.213, -7.568e-12
0.212, -7.805e-12
0.211, -7.623e-12
0.210, -7.323e-12
0.209, -7.132e-12
0.208, -7.027e-12
0.207, -6.894e-12
0.206, -6.820e-12
0.205, -6.691e-12
0.204, -6.556e-12
0.203, -6.430e-12
0.202, -6.376e-12
0.201, -6.250e-12
0.200, -6.179e-12
0.199, -6.109e-12
0.198, -5.916e-12
0.197, -5.815e-12
0.196, -5.752e-12
0.195, -5.597e-12
0.194, -5.568e-12
0.193, -5.447e-12
0.192, -5.348e-12
0.191, -5.227e-12
0.190, -5.128e-12
0.189, -5.020e-12
0.188, -4.908e-12
0.187, -4.789e-12
0.186, -4.666e-12
0.185, -4.583e-12
0.184, -4.562e-12
0.183, -4.485e-12
0.182, -4.346e-12
0.181, -4.224e-12
0.180, -4.184e-12
0.179, -4.096e-12
0.178, -3.999e-12
0.177, -3.888e-12
0.176, -3.789e-12
0.175, -3.665e-12
0.174, -3.513e-12
0.173, -3.399e-12
0.172, -3.383e-12
0.171, -3.321e-12
0.170, -3.262e-12
0.169, -3.037e-12
0.168, -2.983e-12
0.167, -2.843e-12
0.166, -2.731e-12
0.165, -2.678e-12
0.164, -2.522e-12
0.163, -2.516e-12
0.162, -2.436e-12
0.161, -2.349e-12
0.160, -2.293e-12
0.159, -2.086e-12
0.158, -2.002e-12
0.157, -1.916e-12
0.156, -1.844e-12
0.155, -1.800e-12
0.154, -1.696e-12
0.153, -1.509e-12
0.152, -1.445e-12
0.151, -1.381e-12
0.150, -1.395e-12
0.149, -1.244e-12
0.148, -1.144e-12
0.147, -1.112e-12
0.146, -9.774e-13
0.145, -9.420e-13
0.144, -8.380e-13
0.143, -8.002e-13
0.142, -7.427e-13
0.141, -6.088e-13
0.140, -5.119e-13
0.139, -4.930e-13
0.138, -4.836e-13
0.137, -3.678e-13
0.136, -2.528e-13
0.135, -2.276e-13
0.134, -1.811e-13
0.133, -7.403e-14
0.132, 1.300e-13
0.131, 1.559e-13
0.130, 2.481e-13
0.129, 2.796e-13
0.128, 3.812e-13
0.127, 4.363e-13
0.126, 5.104e-13
0.125, 5.844e-13
0.124, 6.891e-13
0.123, 7.427e-13
0.122, 8.372e-13
0.121, 8.648e-13
0.120, 9.490e-13
0.119, 1.019e-12
0.118, 1.133e-12
0.117, 1.159e-12
0.116, 1.251e-12
0.115, 1.301e-12
0.114, 1.377e-12
0.113, 1.406e-12
0.112, 1.451e-12
0.111, 1.526e-12
0.110, 1.559e-12
0.109, 1.657e-12
0.108, 1.774e-12
0.107, 1.796e-12
0.106, 1.834e-12
0.105, 1.962e-12
0.104, 2.042e-12
0.103, 2.069e-12
0.102, 2.153e-12
0.101, 2.197e-12
0.100, 2.257e-12
0.099, 2.314e-12
0.098, 2.382e-12
0.097, 2.479e-12
0.096, 2.574e-12
0.095, 2.616e-12
0.094, 2.677e-12
0.093, 2.753e-12
0.092, 2.815e-12
0.091, 2.894e-12
0.090, 2.999e-12
0.089, 3.034e-12
0.088, 2.968e-12
0.087, 3.122e-12
0.086, 3.194e-12
0.085, 3.157e-12
0.084, 3.311e-12
0.083, 3.382e-12
0.082, 3.375e-12
0.081, 3.462e-12
0.080, 3.584e-12
0.079, 3.583e-12
0.078, 3.461e-12
0.077, 2.285e-12
0.076, 3.565e-12
0.075, 3.858e-12
0.074, 3.891e-12
0.073, 3.936e-12
0.072, 4.084e-12
0.071, 4.228e-12
0.070, 4.165e-12
0.069, 4.192e-12
0.068, 4.314e-12
0.067, 4.365e-12
0.066, 4.405e-12
0.065, 4.507e-12
0.064, 4.581e-12
0.063, 4.690e-12
0.062, 4.773e-12
0.061, 4.736e-12
0.060, 4.811e-12
0.059, 4.788e-12
0.058, 4.910e-12
0.057, 5.026e-12
0.056, 5.041e-12
0.055, 5.099e-12
0.054, 5.156e-12
0.053, 5.227e-12
0.052, 5.356e-12
0.051, 5.404e-12
0.050, 5.464e-12
0.049, 5.513e-12
0.048, 5.584e-12
0.047, 5.691e-12
0.046, 5.838e-12
0.045, 5.954e-12
0.044, 6.131e-12
0.043, 6.127e-12
0.042, 6.053e-12
0.041, 6.127e-12
0.040, 6.114e-12
0.039, 6.166e-12
0.038, 6.319e-12
0.037, 6.525e-12
0.036, 6.512e-12
0.035, 6.440e-12
0.034, 6.449e-12
0.033, 6.514e-12
0.032, 6.749e-12
0.031, 6.723e-12
0.030, 6.643e-12
0.029, 6.709e-12
0.028, 6.691e-12
0.027, 6.884e-12
0.026, 6.955e-12
0.025, 7.159e-12
0.024, 7.088e-12
0.023, 7.029e-12
0.022, 7.170e-12
0.021, 7.192e-12
0.020, 7.242e-12
0.019, 7.343e-12
0.018, 7.476e-12
0.017, 7.436e-12
0.016, 7.484e-12
0.015, 7.570e-12
0.014, 7.667e-12
0.013, 7.697e-12
0.012, 7.740e-12
0.011, 7.813e-12
0.010, 7.759e-12
0.009, 7.855e-12
0.008, 7.925e-12
0.007, 8.125e-12
0.006, 8.546e-12
0.005, 8.429e-12
0.004, 8.197e-12
0.003, 8.127e-12
0.002, 8.200e-12
0.001, 8.354e-12
