Mar. 16, 2023   08:31:15
Cyclic Voltammetry
File: c:/users/oliverrz/desktop/electrolab/data/2023_03_16\fcmeoh_macros_0_um\electrode3_cv_150mvs_0_um.bin
Data Source:  Experiment
Instrument Model:  CHI760E
Header: CV
Note: 

Init E (V) = -0.2
High E (V) = 0.3
Low E (V) = -0.2
Final E (V) = -0.2
Init P/N = P
Scan Rate (V/s) = 0.15
Segment = 3
Sample Interval (V) = 0.001
Quiet Time (sec) = 2
Sensitivity (A/V) = 1e-7

Results:

Channel 1:
Segment 1:

Segment 2:

Segment 3:

Potential/V, Current/A

-0.200, 1.904e-9
-0.199, 1.327e-9
-0.198, 1.457e-9
-0.197, 1.324e-9
-0.196, 1.264e-9
-0.195, 1.367e-9
-0.194, 1.148e-9
-0.193, 1.294e-9
-0.192, 1.183e-9
-0.191, 1.137e-9
-0.190, 1.241e-9
-0.189, 1.031e-9
-0.188, 1.201e-9
-0.187, 1.063e-9
-0.186, 1.044e-9
-0.185, 1.150e-9
-0.184, 9.269e-10
-0.183, 1.117e-9
-0.182, 9.818e-10
-0.181, 9.416e-10
-0.180, 1.072e-9
-0.179, 8.393e-10
-0.178, 1.024e-9
-0.177, 9.028e-10
-0.176, 8.676e-10
-0.175, 9.883e-10
-0.174, 7.698e-10
-0.173, 9.509e-10
-0.172, 8.164e-10
-0.171, 8.008e-10
-0.170, 9.175e-10
-0.169, 6.855e-10
-0.168, 8.923e-10
-0.167, 7.491e-10
-0.166, 7.095e-10
-0.165, 8.597e-10
-0.164, 6.175e-10
-0.163, 8.011e-10
-0.162, 6.973e-10
-0.161, 6.424e-10
-0.160, 7.803e-10
-0.159, 5.652e-10
-0.158, 7.323e-10
-0.157, 6.266e-10
-0.156, 5.883e-10
-0.155, 7.136e-10
-0.154, 4.914e-10
-0.153, 6.704e-10
-0.152, 5.588e-10
-0.151, 5.237e-10
-0.150, 6.494e-10
-0.149, 4.331e-10
-0.148, 6.094e-10
-0.147, 4.924e-10
-0.146, 4.680e-10
-0.145, 5.838e-10
-0.144, 3.747e-10
-0.143, 5.543e-10
-0.142, 4.248e-10
-0.141, 4.034e-10
-0.140, 5.246e-10
-0.139, 3.084e-10
-0.138, 4.974e-10
-0.137, 3.697e-10
-0.136, 3.472e-10
-0.135, 4.764e-10
-0.134, 2.489e-10
-0.133, 4.403e-10
-0.132, 3.207e-10
-0.131, 2.803e-10
-0.130, 4.226e-10
-0.129, 1.947e-10
-0.128, 3.746e-10
-0.127, 2.704e-10
-0.126, 2.274e-10
-0.125, 3.551e-10
-0.124, 1.464e-10
-0.123, 3.282e-10
-0.122, 2.014e-10
-0.121, 1.809e-10
-0.120, 3.150e-10
-0.119, 8.080e-11
-0.118, 2.786e-10
-0.117, 1.501e-10
-0.116, 1.189e-10
-0.115, 2.566e-10
-0.114, 3.896e-11
-0.113, 2.042e-10
-0.112, 1.126e-10
-0.111, 7.200e-11
-0.110, 1.845e-10
-0.109, -3.387e-12
-0.108, 1.628e-10
-0.107, 4.125e-11
-0.106, 3.438e-11
-0.105, 1.371e-10
-0.104, -7.131e-11
-0.103, 1.203e-10
-0.102, -1.994e-11
-0.101, -3.007e-11
-0.100, 9.550e-11
-0.099, -1.306e-10
-0.098, 6.446e-11
-0.097, -5.993e-11
-0.096, -8.144e-11
-0.095, 4.539e-11
-0.094, -1.749e-10
-0.093, 1.428e-11
-0.092, -1.075e-10
-0.091, -1.283e-10
-0.090, -1.056e-11
-0.089, -2.331e-10
-0.088, -3.229e-11
-0.087, -1.636e-10
-0.086, -1.875e-10
-0.085, -5.498e-11
-0.084, -2.804e-10
-0.083, -9.186e-11
-0.082, -2.085e-10
-0.081, -2.447e-10
-0.080, -1.090e-10
-0.079, -3.236e-10
-0.078, -1.507e-10
-0.077, -2.672e-10
-0.076, -2.842e-10
-0.075, -1.725e-10
-0.074, -3.765e-10
-0.073, -1.982e-10
-0.072, -3.205e-10
-0.071, -3.345e-10
-0.070, -2.239e-10
-0.069, -4.369e-10
-0.068, -2.443e-10
-0.067, -3.723e-10
-0.066, -3.924e-10
-0.065, -2.735e-10
-0.064, -4.858e-10
-0.063, -3.046e-10
-0.062, -4.214e-10
-0.061, -4.409e-10
-0.060, -3.323e-10
-0.059, -5.358e-10
-0.058, -3.488e-10
-0.057, -4.906e-10
-0.056, -4.845e-10
-0.055, -3.814e-10
-0.054, -6.018e-10
-0.053, -3.913e-10
-0.052, -5.358e-10
-0.051, -5.584e-10
-0.050, -4.184e-10
-0.049, -6.610e-10
-0.048, -4.547e-10
-0.047, -5.723e-10
-0.046, -6.180e-10
-0.045, -4.772e-10
-0.044, -6.895e-10
-0.043, -5.149e-10
-0.042, -6.298e-10
-0.041, -6.552e-10
-0.040, -5.330e-10
-0.039, -7.502e-10
-0.038, -5.628e-10
-0.037, -6.841e-10
-0.036, -7.022e-10
-0.035, -5.836e-10
-0.034, -7.951e-10
-0.033, -6.166e-10
-0.032, -7.298e-10
-0.031, -7.485e-10
-0.030, -6.347e-10
-0.029, -8.401e-10
-0.028, -6.573e-10
-0.027, -7.873e-10
-0.026, -8.007e-10
-0.025, -6.837e-10
-0.024, -8.959e-10
-0.023, -6.889e-10
-0.022, -8.377e-10
-0.021, -8.386e-10
-0.020, -7.170e-10
-0.019, -9.414e-10
-0.018, -7.368e-10
-0.017, -8.752e-10
-0.016, -8.827e-10
-0.015, -7.560e-10
-0.014, -9.801e-10
-0.013, -7.853e-10
-0.012, -9.058e-10
-0.011, -9.222e-10
-0.010, -8.048e-10
-0.009, -1.013e-9
-0.008, -8.174e-10
-0.007, -9.517e-10
-0.006, -9.526e-10
-0.005, -8.372e-10
-0.004, -1.055e-9
-0.003, -8.458e-10
-0.002, -9.798e-10
-0.001, -9.987e-10
-0.000, -9.106e-10
0.001, -1.086e-9
0.002, -8.994e-10
0.003, -1.006e-9
0.004, -1.031e-9
0.005, -9.154e-10
0.006, -1.102e-9
0.007, -9.304e-10
0.008, -1.048e-9
0.009, -1.042e-9
0.010, -9.510e-10
0.011, -1.139e-9
0.012, -9.464e-10
0.013, -1.083e-9
0.014, -1.080e-9
0.015, -9.675e-10
0.016, -1.173e-9
0.017, -9.776e-10
0.018, -1.109e-9
0.019, -1.109e-9
0.020, -9.982e-10
0.021, -1.197e-9
0.022, -1.002e-9
0.023, -1.145e-9
0.024, -1.128e-9
0.025, -1.020e-9
0.026, -1.236e-9
0.027, -1.027e-9
0.028, -1.164e-9
0.029, -1.169e-9
0.030, -1.040e-9
0.031, -1.266e-9
0.032, -1.054e-9
0.033, -1.184e-9
0.034, -1.201e-9
0.035, -1.068e-9
0.036, -1.281e-9
0.037, -1.090e-9
0.038, -1.207e-9
0.039, -1.224e-9
0.040, -1.109e-9
0.041, -1.292e-9
0.042, -1.119e-9
0.043, -1.246e-9
0.044, -1.232e-9
0.045, -1.130e-9
0.046, -1.339e-9
0.047, -1.133e-9
0.048, -1.269e-9
0.049, -1.272e-9
0.050, -1.154e-9
0.051, -1.365e-9
0.052, -1.171e-9
0.053, -1.289e-9
0.054, -1.299e-9
0.055, -1.191e-9
0.056, -1.378e-9
0.057, -1.192e-9
0.058, -1.332e-9
0.059, -1.316e-9
0.060, -1.216e-9
0.061, -1.419e-9
0.062, -1.209e-9
0.063, -1.356e-9
0.064, -1.355e-9
0.065, -1.233e-9
0.066, -1.450e-9
0.067, -1.243e-9
0.068, -1.378e-9
0.069, -1.385e-9
0.070, -1.264e-9
0.071, -1.472e-9
0.072, -1.276e-9
0.073, -1.403e-9
0.074, -1.409e-9
0.075, -1.294e-9
0.076, -1.506e-9
0.077, -1.303e-9
0.078, -1.439e-9
0.079, -1.443e-9
0.080, -1.314e-9
0.081, -1.535e-9
0.082, -1.336e-9
0.083, -1.459e-9
0.084, -1.476e-9
0.085, -1.348e-9
0.086, -1.555e-9
0.087, -1.376e-9
0.088, -1.485e-9
0.089, -1.496e-9
0.090, -1.397e-9
0.091, -1.579e-9
0.092, -1.394e-9
0.093, -1.534e-9
0.094, -1.516e-9
0.095, -1.420e-9
0.096, -1.615e-9
0.097, -1.410e-9
0.098, -1.570e-9
0.099, -1.552e-9
0.100, -1.436e-9
0.101, -1.652e-9
0.102, -1.458e-9
0.103, -1.586e-9
0.104, -1.587e-9
0.105, -1.469e-9
0.106, -1.684e-9
0.107, -1.478e-9
0.108, -1.616e-9
0.109, -1.612e-9
0.110, -1.505e-9
0.111, -1.715e-9
0.112, -1.508e-9
0.113, -1.646e-9
0.114, -1.655e-9
0.115, -1.529e-9
0.116, -1.743e-9
0.117, -1.546e-9
0.118, -1.673e-9
0.119, -1.682e-9
0.120, -1.564e-9
0.121, -1.764e-9
0.122, -1.582e-9
0.123, -1.707e-9
0.124, -1.705e-9
0.125, -1.598e-9
0.126, -1.800e-9
0.127, -1.607e-9
0.128, -1.748e-9
0.129, -1.735e-9
0.130, -1.633e-9
0.131, -1.842e-9
0.132, -1.632e-9
0.133, -1.773e-9
0.134, -1.772e-9
0.135, -1.661e-9
0.136, -1.864e-9
0.137, -1.669e-9
0.138, -1.803e-9
0.139, -1.802e-9
0.140, -1.703e-9
0.141, -1.889e-9
0.142, -1.698e-9
0.143, -1.850e-9
0.144, -1.815e-9
0.145, -1.730e-9
0.146, -1.941e-9
0.147, -1.719e-9
0.148, -1.879e-9
0.149, -1.864e-9
0.150, -1.748e-9
0.151, -1.973e-9
0.152, -1.760e-9
0.153, -1.902e-9
0.154, -1.905e-9
0.155, -1.788e-9
0.156, -1.995e-9
0.157, -1.799e-9
0.158, -1.932e-9
0.159, -1.939e-9
0.160, -1.823e-9
0.161, -2.026e-9
0.162, -1.829e-9
0.163, -1.969e-9
0.164, -1.965e-9
0.165, -1.859e-9
0.166, -2.067e-9
0.167, -1.871e-9
0.168, -1.999e-9
0.169, -1.999e-9
0.170, -1.904e-9
0.171, -2.089e-9
0.172, -1.901e-9
0.173, -2.042e-9
0.174, -2.026e-9
0.175, -1.942e-9
0.176, -2.127e-9
0.177, -1.928e-9
0.178, -2.088e-9
0.179, -2.065e-9
0.180, -1.965e-9
0.181, -2.182e-9
0.182, -1.960e-9
0.183, -2.121e-9
0.184, -2.108e-9
0.185, -1.989e-9
0.186, -2.217e-9
0.187, -2.012e-9
0.188, -2.145e-9
0.189, -2.149e-9
0.190, -2.045e-9
0.191, -2.240e-9
0.192, -2.052e-9
0.193, -2.197e-9
0.194, -2.178e-9
0.195, -2.084e-9
0.196, -2.292e-9
0.197, -2.075e-9
0.198, -2.238e-9
0.199, -2.227e-9
0.200, -2.114e-9
0.201, -2.332e-9
0.202, -2.136e-9
0.203, -2.268e-9
0.204, -2.272e-9
0.205, -2.176e-9
0.206, -2.368e-9
0.207, -2.182e-9
0.208, -2.317e-9
0.209, -2.301e-9
0.210, -2.221e-9
0.211, -2.413e-9
0.212, -2.214e-9
0.213, -2.369e-9
0.214, -2.353e-9
0.215, -2.258e-9
0.216, -2.459e-9
0.217, -2.260e-9
0.218, -2.417e-9
0.219, -2.396e-9
0.220, -2.309e-9
0.221, -2.503e-9
0.222, -2.310e-9
0.223, -2.473e-9
0.224, -2.439e-9
0.225, -2.360e-9
0.226, -2.564e-9
0.227, -2.352e-9
0.228, -2.519e-9
0.229, -2.504e-9
0.230, -2.405e-9
0.231, -2.625e-9
0.232, -2.412e-9
0.233, -2.561e-9
0.234, -2.574e-9
0.235, -2.452e-9
0.236, -2.668e-9
0.237, -2.481e-9
0.238, -2.614e-9
0.239, -2.620e-9
0.240, -2.528e-9
0.241, -2.719e-9
0.242, -2.539e-9
0.243, -2.693e-9
0.244, -2.666e-9
0.245, -2.587e-9
0.246, -2.794e-9
0.247, -2.591e-9
0.248, -2.748e-9
0.249, -2.741e-9
0.250, -2.643e-9
0.251, -2.859e-9
0.252, -2.668e-9
0.253, -2.811e-9
0.254, -2.805e-9
0.255, -2.728e-9
0.256, -2.921e-9
0.257, -2.733e-9
0.258, -2.900e-9
0.259, -2.874e-9
0.260, -2.798e-9
0.261, -3.006e-9
0.262, -2.800e-9
0.263, -2.976e-9
0.264, -2.954e-9
0.265, -2.859e-9
0.266, -3.091e-9
0.267, -2.885e-9
0.268, -3.045e-9
0.269, -3.042e-9
0.270, -2.950e-9
0.271, -3.173e-9
0.272, -2.969e-9
0.273, -3.132e-9
0.274, -3.132e-9
0.275, -3.041e-9
0.276, -3.258e-9
0.277, -3.061e-9
0.278, -3.225e-9
0.279, -3.232e-9
0.280, -3.132e-9
0.281, -3.352e-9
0.282, -3.171e-9
0.283, -3.322e-9
0.284, -3.325e-9
0.285, -3.247e-9
0.286, -3.444e-9
0.287, -3.277e-9
0.288, -3.424e-9
0.289, -3.418e-9
0.290, -3.363e-9
0.291, -3.552e-9
0.292, -3.376e-9
0.293, -3.548e-9
0.294, -3.532e-9
0.295, -3.469e-9
0.296, -3.675e-9
0.297, -3.489e-9
0.298, -3.666e-9
0.299, -3.656e-9
0.300, -2.006e-9
0.299, -1.270e-9
0.298, -8.508e-10
0.297, -8.052e-10
0.296, -6.570e-10
0.295, -4.480e-10
0.294, -5.145e-10
0.293, -2.290e-10
0.292, -2.874e-10
0.291, -1.791e-10
0.290, -2.275e-11
0.289, -1.381e-10
0.288, 1.334e-10
0.287, 3.985e-11
0.286, 1.233e-10
0.285, 2.781e-10
0.284, 1.318e-10
0.283, 3.795e-10
0.282, 2.944e-10
0.281, 3.583e-10
0.280, 4.824e-10
0.279, 3.491e-10
0.278, 5.801e-10
0.277, 4.634e-10
0.276, 5.542e-10
0.275, 6.566e-10
0.274, 4.994e-10
0.273, 7.575e-10
0.272, 6.158e-10
0.271, 6.823e-10
0.270, 8.130e-10
0.269, 6.321e-10
0.268, 8.862e-10
0.267, 7.484e-10
0.266, 7.939e-10
0.265, 9.274e-10
0.264, 7.478e-10
0.263, 9.792e-10
0.262, 8.508e-10
0.261, 9.035e-10
0.260, 1.021e-9
0.259, 8.327e-10
0.258, 1.071e-9
0.257, 9.428e-10
0.256, 9.883e-10
0.255, 1.097e-9
0.254, 9.223e-10
0.253, 1.143e-9
0.252, 1.024e-9
0.251, 1.053e-9
0.250, 1.161e-9
0.249, 9.995e-10
0.248, 1.209e-9
0.247, 1.074e-9
0.246, 1.127e-9
0.245, 1.220e-9
0.244, 1.054e-9
0.243, 1.271e-9
0.242, 1.125e-9
0.241, 1.181e-9
0.240, 1.274e-9
0.239, 1.097e-9
0.238, 1.318e-9
0.237, 1.171e-9
0.236, 1.224e-9
0.235, 1.317e-9
0.234, 1.140e-9
0.233, 1.362e-9
0.232, 1.216e-9
0.231, 1.271e-9
0.230, 1.362e-9
0.229, 1.180e-9
0.228, 1.411e-9
0.227, 1.246e-9
0.226, 1.305e-9
0.225, 1.403e-9
0.224, 1.206e-9
0.223, 1.442e-9
0.222, 1.292e-9
0.221, 1.326e-9
0.220, 1.445e-9
0.219, 1.243e-9
0.218, 1.460e-9
0.217, 1.336e-9
0.216, 1.361e-9
0.215, 1.451e-9
0.214, 1.288e-9
0.213, 1.491e-9
0.212, 1.347e-9
0.211, 1.397e-9
0.210, 1.482e-9
0.209, 1.305e-9
0.208, 1.527e-9
0.207, 1.375e-9
0.206, 1.416e-9
0.205, 1.526e-9
0.204, 1.335e-9
0.203, 1.539e-9
0.202, 1.412e-9
0.201, 1.442e-9
0.200, 1.531e-9
0.199, 1.366e-9
0.198, 1.572e-9
0.197, 1.415e-9
0.196, 1.486e-9
0.195, 1.551e-9
0.194, 1.375e-9
0.193, 1.615e-9
0.192, 1.437e-9
0.191, 1.493e-9
0.190, 1.592e-9
0.189, 1.394e-9
0.188, 1.624e-9
0.187, 1.471e-9
0.186, 1.503e-9
0.185, 1.610e-9
0.184, 1.427e-9
0.183, 1.636e-9
0.182, 1.490e-9
0.181, 1.535e-9
0.180, 1.633e-9
0.179, 1.444e-9
0.178, 1.661e-9
0.177, 1.513e-9
0.176, 1.553e-9
0.175, 1.652e-9
0.174, 1.468e-9
0.173, 1.680e-9
0.172, 1.538e-9
0.171, 1.576e-9
0.170, 1.661e-9
0.169, 1.490e-9
0.168, 1.703e-9
0.167, 1.552e-9
0.166, 1.603e-9
0.165, 1.686e-9
0.164, 1.511e-9
0.163, 1.726e-9
0.162, 1.567e-9
0.161, 1.625e-9
0.160, 1.703e-9
0.159, 1.531e-9
0.158, 1.745e-9
0.157, 1.589e-9
0.156, 1.647e-9
0.155, 1.726e-9
0.154, 1.551e-9
0.153, 1.771e-9
0.152, 1.609e-9
0.151, 1.668e-9
0.150, 1.752e-9
0.149, 1.564e-9
0.148, 1.800e-9
0.147, 1.628e-9
0.146, 1.683e-9
0.145, 1.781e-9
0.144, 1.586e-9
0.143, 1.809e-9
0.142, 1.661e-9
0.141, 1.704e-9
0.140, 1.802e-9
0.139, 1.613e-9
0.138, 1.827e-9
0.137, 1.684e-9
0.136, 1.732e-9
0.135, 1.814e-9
0.134, 1.641e-9
0.133, 1.858e-9
0.132, 1.702e-9
0.131, 1.753e-9
0.130, 1.839e-9
0.129, 1.663e-9
0.128, 1.888e-9
0.127, 1.727e-9
0.126, 1.777e-9
0.125, 1.862e-9
0.124, 1.699e-9
0.123, 1.892e-9
0.122, 1.750e-9
0.121, 1.811e-9
0.120, 1.874e-9
0.119, 1.722e-9
0.118, 1.933e-9
0.117, 1.763e-9
0.116, 1.843e-9
0.115, 1.910e-9
0.114, 1.731e-9
0.113, 1.967e-9
0.112, 1.798e-9
0.111, 1.852e-9
0.110, 1.948e-9
0.109, 1.758e-9
0.108, 1.985e-9
0.107, 1.829e-9
0.106, 1.876e-9
0.105, 1.967e-9
0.104, 1.797e-9
0.103, 2.009e-9
0.102, 1.850e-9
0.101, 1.920e-9
0.100, 1.994e-9
0.099, 1.810e-9
0.098, 2.043e-9
0.097, 1.883e-9
0.096, 1.931e-9
0.095, 2.029e-9
0.094, 1.848e-9
0.093, 2.057e-9
0.092, 1.925e-9
0.091, 1.964e-9
0.090, 2.050e-9
0.089, 1.892e-9
0.088, 2.087e-9
0.087, 1.935e-9
0.086, 2.008e-9
0.085, 2.071e-9
0.084, 1.911e-9
0.083, 2.128e-9
0.082, 1.964e-9
0.081, 2.035e-9
0.080, 2.111e-9
0.079, 1.932e-9
0.078, 2.160e-9
0.077, 2.002e-9
0.076, 2.071e-9
0.075, 2.135e-9
0.074, 1.971e-9
0.073, 2.195e-9
0.072, 2.030e-9
0.071, 2.096e-9
0.070, 2.182e-9
0.069, 2.001e-9
0.068, 2.230e-9
0.067, 2.063e-9
0.066, 2.119e-9
0.065, 2.217e-9
0.064, 2.037e-9
0.063, 2.258e-9
0.062, 2.108e-9
0.061, 2.159e-9
0.060, 2.249e-9
0.059, 2.072e-9
0.058, 2.290e-9
0.057, 2.135e-9
0.056, 2.200e-9
0.055, 2.277e-9
0.054, 2.110e-9
0.053, 2.330e-9
0.052, 2.181e-9
0.051, 2.233e-9
0.050, 2.314e-9
0.049, 2.148e-9
0.048, 2.366e-9
0.047, 2.211e-9
0.046, 2.269e-9
0.045, 2.352e-9
0.044, 2.191e-9
0.043, 2.397e-9
0.042, 2.247e-9
0.041, 2.327e-9
0.040, 2.378e-9
0.039, 2.233e-9
0.038, 2.448e-9
0.037, 2.278e-9
0.036, 2.367e-9
0.035, 2.431e-9
0.034, 2.258e-9
0.033, 2.501e-9
0.032, 2.324e-9
0.031, 2.389e-9
0.030, 2.487e-9
0.029, 2.302e-9
0.028, 2.525e-9
0.027, 2.379e-9
0.026, 2.437e-9
0.025, 2.515e-9
0.024, 2.359e-9
0.023, 2.569e-9
0.022, 2.415e-9
0.021, 2.490e-9
0.020, 2.566e-9
0.019, 2.390e-9
0.018, 2.622e-9
0.017, 2.464e-9
0.016, 2.524e-9
0.015, 2.620e-9
0.014, 2.441e-9
0.013, 2.662e-9
0.012, 2.525e-9
0.011, 2.571e-9
0.010, 2.649e-9
0.009, 2.509e-9
0.008, 2.707e-9
0.007, 2.558e-9
0.006, 2.640e-9
0.005, 2.699e-9
0.004, 2.550e-9
0.003, 2.769e-9
0.002, 2.603e-9
0.001, 2.688e-9
0.000, 2.814e-9
-0.001, 2.602e-9
-0.002, 2.827e-9
-0.003, 2.663e-9
-0.004, 2.746e-9
-0.005, 2.817e-9
-0.006, 2.652e-9
-0.007, 2.881e-9
-0.008, 2.715e-9
-0.009, 2.797e-9
-0.010, 2.869e-9
-0.011, 2.704e-9
-0.012, 2.944e-9
-0.013, 2.777e-9
-0.014, 2.842e-9
-0.015, 2.938e-9
-0.016, 2.759e-9
-0.017, 2.987e-9
-0.018, 2.836e-9
-0.019, 2.896e-9
-0.020, 2.993e-9
-0.021, 2.817e-9
-0.022, 3.037e-9
-0.023, 2.894e-9
-0.024, 2.961e-9
-0.025, 3.035e-9
-0.026, 2.885e-9
-0.027, 3.101e-9
-0.028, 2.938e-9
-0.029, 3.020e-9
-0.030, 3.088e-9
-0.031, 2.931e-9
-0.032, 3.153e-9
-0.033, 2.997e-9
-0.034, 3.066e-9
-0.035, 3.149e-9
-0.036, 2.989e-9
-0.037, 3.197e-9
-0.038, 3.053e-9
-0.039, 3.128e-9
-0.040, 3.189e-9
-0.041, 3.047e-9
-0.042, 3.257e-9
-0.043, 3.091e-9
-0.044, 3.191e-9
-0.045, 3.239e-9
-0.046, 3.077e-9
-0.047, 3.326e-9
-0.048, 3.142e-9
-0.049, 3.222e-9
-0.050, 3.307e-9
-0.051, 3.134e-9
-0.052, 3.361e-9
-0.053, 3.199e-9
-0.054, 3.269e-9
-0.055, 3.349e-9
-0.056, 3.185e-9
-0.057, 3.399e-9
-0.058, 3.247e-9
-0.059, 3.323e-9
-0.060, 3.396e-9
-0.061, 3.223e-9
-0.062, 3.459e-9
-0.063, 3.297e-9
-0.064, 3.366e-9
-0.065, 3.442e-9
-0.066, 3.276e-9
-0.067, 3.494e-9
-0.068, 3.348e-9
-0.069, 3.413e-9
-0.070, 3.472e-9
-0.071, 3.327e-9
-0.072, 3.540e-9
-0.073, 3.375e-9
-0.074, 3.464e-9
-0.075, 3.521e-9
-0.076, 3.371e-9
-0.077, 3.590e-9
-0.078, 3.418e-9
-0.079, 3.509e-9
-0.080, 3.566e-9
-0.081, 3.405e-9
-0.082, 3.632e-9
-0.083, 3.466e-9
-0.084, 3.554e-9
-0.085, 3.607e-9
-0.086, 3.452e-9
-0.087, 3.675e-9
-0.088, 3.508e-9
-0.089, 3.598e-9
-0.090, 3.654e-9
-0.091, 3.496e-9
-0.092, 3.729e-9
-0.093, 3.542e-9
-0.094, 3.642e-9
-0.095, 3.704e-9
-0.096, 3.530e-9
-0.097, 3.770e-9
-0.098, 3.601e-9
-0.099, 3.670e-9
-0.100, 3.757e-9
-0.101, 3.575e-9
-0.102, 3.807e-9
-0.103, 3.654e-9
-0.104, 3.722e-9
-0.105, 3.785e-9
-0.106, 3.644e-9
-0.107, 3.844e-9
-0.108, 3.693e-9
-0.109, 3.775e-9
-0.110, 3.830e-9
-0.111, 3.678e-9
-0.112, 3.905e-9
-0.113, 3.729e-9
-0.114, 3.816e-9
-0.115, 3.887e-9
-0.116, 3.730e-9
-0.117, 3.941e-9
-0.118, 3.779e-9
-0.119, 3.868e-9
-0.120, 3.926e-9
-0.121, 3.775e-9
-0.122, 3.993e-9
-0.123, 3.824e-9
-0.124, 3.926e-9
-0.125, 3.970e-9
-0.126, 3.811e-9
-0.127, 4.053e-9
-0.128, 3.878e-9
-0.129, 3.960e-9
-0.130, 4.032e-9
-0.131, 3.865e-9
-0.132, 4.101e-9
-0.133, 3.926e-9
-0.134, 4.007e-9
-0.135, 4.074e-9
-0.136, 3.918e-9
-0.137, 4.142e-9
-0.138, 3.977e-9
-0.139, 4.060e-9
-0.140, 4.131e-9
-0.141, 3.970e-9
-0.142, 4.198e-9
-0.143, 4.026e-9
-0.144, 4.113e-9
-0.145, 4.176e-9
-0.146, 4.020e-9
-0.147, 4.241e-9
-0.148, 4.089e-9
-0.149, 4.155e-9
-0.150, 4.228e-9
-0.151, 4.083e-9
-0.152, 4.286e-9
-0.153, 4.140e-9
-0.154, 4.222e-9
-0.155, 4.267e-9
-0.156, 4.146e-9
-0.157, 4.344e-9
-0.158, 4.172e-9
-0.159, 4.290e-9
-0.160, 4.325e-9
-0.161, 4.172e-9
-0.162, 4.412e-9
-0.163, 4.229e-9
-0.164, 4.329e-9
-0.165, 4.387e-9
-0.166, 4.230e-9
-0.167, 4.455e-9
-0.168, 4.298e-9
-0.169, 4.376e-9
-0.170, 4.434e-9
-0.171, 4.293e-9
-0.172, 4.512e-9
-0.173, 4.336e-9
-0.174, 4.436e-9
-0.175, 4.497e-9
-0.176, 4.339e-9
-0.177, 4.567e-9
-0.178, 4.400e-9
-0.179, 4.492e-9
-0.180, 4.562e-9
-0.181, 4.397e-9
-0.182, 4.620e-9
-0.183, 4.462e-9
-0.184, 4.545e-9
-0.185, 4.602e-9
-0.186, 4.459e-9
-0.187, 4.679e-9
-0.188, 4.518e-9
-0.189, 4.604e-9
-0.190, 4.660e-9
-0.191, 4.517e-9
-0.192, 4.738e-9
-0.193, 4.574e-9
-0.194, 4.666e-9
-0.195, 4.718e-9
-0.196, 4.579e-9
-0.197, 4.792e-9
-0.198, 4.625e-9
-0.199, 4.726e-9
