Mar. 16, 2023   10:08:34
Cyclic Voltammetry
File: c:/users/oliverrz/desktop/electrolab/data/2023_03_16\fcmeoh_macros_1_mm\electrode1_cv_200mvs_1_mm.bin
Data Source:  Experiment
Instrument Model:  CHI760E
Header: CV
Note: 

Init E (V) = -0.2
High E (V) = 0.3
Low E (V) = -0.2
Final E (V) = -0.2
Init P/N = P
Scan Rate (V/s) = 0.2
Segment = 3
Sample Interval (V) = 0.001
Quiet Time (sec) = 2
Sensitivity (A/V) = 1e-7

Results:

Channel 1:
Segment 1:
Ep = 0.129V
ip = -9.401e-8A
Ah = -2.969e-8C

Segment 2:
Ep = 0.066V
ip = 8.494e-8A
Ah = 2.634e-8C

Segment 3:

Potential/V, Current/A

-0.200, 6.335e-9
-0.199, 5.129e-9
-0.198, 4.798e-9
-0.197, 4.589e-9
-0.196, 4.557e-9
-0.195, 4.385e-9
-0.194, 4.210e-9
-0.193, 4.169e-9
-0.192, 4.107e-9
-0.191, 3.905e-9
-0.190, 3.860e-9
-0.189, 3.858e-9
-0.188, 3.680e-9
-0.187, 3.575e-9
-0.186, 3.622e-9
-0.185, 3.472e-9
-0.184, 3.354e-9
-0.183, 3.365e-9
-0.182, 3.304e-9
-0.181, 3.143e-9
-0.180, 3.107e-9
-0.179, 3.120e-9
-0.178, 2.979e-9
-0.177, 2.860e-9
-0.176, 2.946e-9
-0.175, 2.815e-9
-0.174, 2.681e-9
-0.173, 2.723e-9
-0.172, 2.664e-9
-0.171, 2.514e-9
-0.170, 2.529e-9
-0.169, 2.496e-9
-0.168, 2.387e-9
-0.167, 2.298e-9
-0.166, 2.344e-9
-0.165, 2.246e-9
-0.164, 2.109e-9
-0.163, 2.165e-9
-0.162, 2.138e-9
-0.161, 1.947e-9
-0.160, 1.974e-9
-0.159, 1.978e-9
-0.158, 1.845e-9
-0.157, 1.780e-9
-0.156, 1.830e-9
-0.155, 1.733e-9
-0.154, 1.613e-9
-0.153, 1.636e-9
-0.152, 1.632e-9
-0.151, 1.462e-9
-0.150, 1.471e-9
-0.149, 1.494e-9
-0.148, 1.359e-9
-0.147, 1.295e-9
-0.146, 1.362e-9
-0.145, 1.238e-9
-0.144, 1.162e-9
-0.143, 1.196e-9
-0.142, 1.155e-9
-0.141, 1.010e-9
-0.140, 1.027e-9
-0.139, 1.032e-9
-0.138, 9.392e-10
-0.137, 8.267e-10
-0.136, 9.422e-10
-0.135, 8.199e-10
-0.134, 7.039e-10
-0.133, 7.739e-10
-0.132, 7.293e-10
-0.131, 5.834e-10
-0.130, 6.167e-10
-0.129, 6.101e-10
-0.128, 4.966e-10
-0.127, 4.394e-10
-0.126, 4.944e-10
-0.125, 4.230e-10
-0.124, 3.065e-10
-0.123, 3.679e-10
-0.122, 3.453e-10
-0.121, 1.796e-10
-0.120, 2.260e-10
-0.119, 2.405e-10
-0.118, 1.173e-10
-0.117, 6.657e-11
-0.116, 1.353e-10
-0.115, 3.920e-11
-0.114, -5.413e-11
-0.113, -7.266e-12
-0.112, -1.977e-11
-0.111, -1.605e-10
-0.110, -1.504e-10
-0.109, -1.116e-10
-0.108, -2.382e-10
-0.107, -2.874e-10
-0.106, -2.007e-10
-0.105, -3.261e-10
-0.104, -3.898e-10
-0.103, -3.616e-10
-0.102, -3.807e-10
-0.101, -5.052e-10
-0.100, -4.867e-10
-0.099, -4.738e-10
-0.098, -5.548e-10
-0.097, -6.461e-10
-0.096, -5.320e-10
-0.095, -6.449e-10
-0.094, -7.469e-10
-0.093, -6.649e-10
-0.092, -7.038e-10
-0.091, -8.433e-10
-0.090, -8.047e-10
-0.089, -8.065e-10
-0.088, -8.970e-10
-0.087, -9.551e-10
-0.086, -8.788e-10
-0.085, -9.608e-10
-0.084, -1.077e-9
-0.083, -1.001e-9
-0.082, -1.020e-9
-0.081, -1.178e-9
-0.080, -1.130e-9
-0.079, -1.111e-9
-0.078, -1.229e-9
-0.077, -1.293e-9
-0.076, -1.206e-9
-0.075, -1.301e-9
-0.074, -1.387e-9
-0.073, -1.350e-9
-0.072, -1.353e-9
-0.071, -1.501e-9
-0.070, -1.472e-9
-0.069, -1.445e-9
-0.068, -1.578e-9
-0.067, -1.630e-9
-0.066, -1.532e-9
-0.065, -1.666e-9
-0.064, -1.747e-9
-0.063, -1.688e-9
-0.062, -1.728e-9
-0.061, -1.845e-9
-0.060, -1.847e-9
-0.059, -1.819e-9
-0.058, -1.942e-9
-0.057, -2.019e-9
-0.056, -1.917e-9
-0.055, -2.033e-9
-0.054, -2.152e-9
-0.053, -2.073e-9
-0.052, -2.142e-9
-0.051, -2.279e-9
-0.050, -2.255e-9
-0.049, -2.268e-9
-0.048, -2.359e-9
-0.047, -2.445e-9
-0.046, -2.378e-9
-0.045, -2.486e-9
-0.044, -2.619e-9
-0.043, -2.556e-9
-0.042, -2.601e-9
-0.041, -2.781e-9
-0.040, -2.753e-9
-0.039, -2.758e-9
-0.038, -2.917e-9
-0.037, -2.976e-9
-0.036, -2.932e-9
-0.035, -3.064e-9
-0.034, -3.179e-9
-0.033, -3.176e-9
-0.032, -3.207e-9
-0.031, -3.402e-9
-0.030, -3.412e-9
-0.029, -3.416e-9
-0.028, -3.588e-9
-0.027, -3.667e-9
-0.026, -3.644e-9
-0.025, -3.816e-9
-0.024, -3.928e-9
-0.023, -3.930e-9
-0.022, -4.035e-9
-0.021, -4.202e-9
-0.020, -4.255e-9
-0.019, -4.292e-9
-0.018, -4.481e-9
-0.017, -4.620e-9
-0.016, -4.592e-9
-0.015, -4.798e-9
-0.014, -4.958e-9
-0.013, -4.985e-9
-0.012, -5.119e-9
-0.011, -5.343e-9
-0.010, -5.403e-9
-0.009, -5.509e-9
-0.008, -5.707e-9
-0.007, -5.889e-9
-0.006, -5.932e-9
-0.005, -6.144e-9
-0.004, -6.394e-9
-0.003, -6.442e-9
-0.002, -6.607e-9
-0.001, -6.912e-9
-0.000, -7.156e-9
0.001, -7.211e-9
0.002, -7.490e-9
0.003, -7.687e-9
0.004, -7.821e-9
0.005, -8.079e-9
0.006, -8.365e-9
0.007, -8.537e-9
0.008, -8.756e-9
0.009, -9.107e-9
0.010, -9.308e-9
0.011, -9.535e-9
0.012, -9.903e-9
0.013, -1.019e-8
0.014, -1.038e-8
0.015, -1.079e-8
0.016, -1.113e-8
0.017, -1.137e-8
0.018, -1.174e-8
0.019, -1.215e-8
0.020, -1.248e-8
0.021, -1.281e-8
0.022, -1.326e-8
0.023, -1.368e-8
0.024, -1.399e-8
0.025, -1.451e-8
0.026, -1.501e-8
0.027, -1.536e-8
0.028, -1.588e-8
0.029, -1.641e-8
0.030, -1.686e-8
0.031, -1.736e-8
0.032, -1.793e-8
0.033, -1.850e-8
0.034, -1.898e-8
0.035, -1.963e-8
0.036, -2.028e-8
0.037, -2.079e-8
0.038, -2.145e-8
0.039, -2.221e-8
0.040, -2.279e-8
0.041, -2.349e-8
0.042, -2.426e-8
0.043, -2.498e-8
0.044, -2.568e-8
0.045, -2.650e-8
0.046, -2.730e-8
0.047, -2.808e-8
0.048, -2.890e-8
0.049, -2.982e-8
0.050, -3.067e-8
0.051, -3.155e-8
0.052, -3.256e-8
0.053, -3.345e-8
0.054, -3.430e-8
0.055, -3.542e-8
0.056, -3.638e-8
0.057, -3.735e-8
0.058, -3.843e-8
0.059, -3.952e-8
0.060, -4.055e-8
0.061, -4.164e-8
0.062, -4.278e-8
0.063, -4.398e-8
0.064, -4.500e-8
0.065, -4.628e-8
0.066, -4.747e-8
0.067, -4.857e-8
0.068, -4.990e-8
0.069, -5.108e-8
0.070, -5.224e-8
0.071, -5.360e-8
0.072, -5.481e-8
0.073, -5.613e-8
0.074, -5.735e-8
0.075, -5.867e-8
0.076, -6.003e-8
0.077, -6.125e-8
0.078, -6.260e-8
0.079, -6.398e-8
0.080, -6.515e-8
0.081, -6.648e-8
0.082, -6.782e-8
0.083, -6.909e-8
0.084, -7.038e-8
0.085, -7.169e-8
0.086, -7.292e-8
0.087, -7.422e-8
0.088, -7.542e-8
0.089, -7.670e-8
0.090, -7.790e-8
0.091, -7.912e-8
0.092, -8.037e-8
0.093, -8.144e-8
0.094, -8.255e-8
0.095, -8.376e-8
0.096, -8.476e-8
0.097, -8.585e-8
0.098, -8.695e-8
0.099, -8.795e-8
0.100, -8.892e-8
0.101, -8.985e-8
0.102, -9.083e-8
0.103, -9.180e-8
0.104, -9.250e-8
0.105, -9.342e-8
0.106, -9.416e-8
0.107, -9.482e-8
0.108, -9.564e-8
0.109, -9.626e-8
0.110, -9.686e-8
0.111, -9.750e-8
0.112, -9.801e-8
0.113, -9.857e-8
0.114, -9.899e-8
0.115, -9.951e-8
0.116, -9.995e-8
0.117, -1.002e-7
0.118, -1.006e-7
0.119, -1.009e-7
0.120, -1.011e-7
0.121, -1.013e-7
0.122, -1.016e-7
0.123, -1.017e-7
0.124, -1.018e-7
0.125, -1.019e-7
0.126, -1.020e-7
0.127, -1.020e-7
0.128, -1.020e-7
0.129, -1.020e-7
0.130, -1.019e-7
0.131, -1.018e-7
0.132, -1.018e-7
0.133, -1.016e-7
0.134, -1.013e-7
0.135, -1.013e-7
0.136, -1.010e-7
0.137, -1.008e-7
0.138, -1.005e-7
0.139, -1.003e-7
0.140, -1.000e-7
0.141, -9.965e-8
0.142, -9.940e-8
0.143, -9.908e-8
0.144, -9.861e-8
0.145, -9.835e-8
0.146, -9.801e-8
0.147, -9.751e-8
0.148, -9.722e-8
0.149, -9.682e-8
0.150, -9.634e-8
0.151, -9.595e-8
0.152, -9.553e-8
0.153, -9.513e-8
0.154, -9.463e-8
0.155, -9.424e-8
0.156, -9.383e-8
0.157, -9.325e-8
0.158, -9.284e-8
0.159, -9.246e-8
0.160, -9.190e-8
0.161, -9.144e-8
0.162, -9.105e-8
0.163, -9.056e-8
0.164, -9.005e-8
0.165, -8.963e-8
0.166, -8.920e-8
0.167, -8.868e-8
0.168, -8.821e-8
0.169, -8.784e-8
0.170, -8.731e-8
0.171, -8.681e-8
0.172, -8.646e-8
0.173, -8.598e-8
0.174, -8.544e-8
0.175, -8.511e-8
0.176, -8.466e-8
0.177, -8.414e-8
0.178, -8.374e-8
0.179, -8.339e-8
0.180, -8.291e-8
0.181, -8.245e-8
0.182, -8.209e-8
0.183, -8.169e-8
0.184, -8.117e-8
0.185, -8.086e-8
0.186, -8.050e-8
0.187, -7.999e-8
0.188, -7.964e-8
0.189, -7.931e-8
0.190, -7.886e-8
0.191, -7.848e-8
0.192, -7.815e-8
0.193, -7.778e-8
0.194, -7.734e-8
0.195, -7.703e-8
0.196, -7.673e-8
0.197, -7.628e-8
0.198, -7.594e-8
0.199, -7.571e-8
0.200, -7.527e-8
0.201, -7.493e-8
0.202, -7.469e-8
0.203, -7.434e-8
0.204, -7.396e-8
0.205, -7.372e-8
0.206, -7.344e-8
0.207, -7.303e-8
0.208, -7.274e-8
0.209, -7.254e-8
0.210, -7.219e-8
0.211, -7.184e-8
0.212, -7.167e-8
0.213, -7.135e-8
0.214, -7.098e-8
0.215, -7.083e-8
0.216, -7.058e-8
0.217, -7.021e-8
0.218, -6.999e-8
0.219, -6.980e-8
0.220, -6.949e-8
0.221, -6.919e-8
0.222, -6.903e-8
0.223, -6.879e-8
0.224, -6.844e-8
0.225, -6.828e-8
0.226, -6.812e-8
0.227, -6.776e-8
0.228, -6.760e-8
0.229, -6.744e-8
0.230, -6.716e-8
0.231, -6.693e-8
0.232, -6.678e-8
0.233, -6.657e-8
0.234, -6.629e-8
0.235, -6.615e-8
0.236, -6.600e-8
0.237, -6.570e-8
0.238, -6.553e-8
0.239, -6.545e-8
0.240, -6.515e-8
0.241, -6.494e-8
0.242, -6.487e-8
0.243, -6.466e-8
0.244, -6.441e-8
0.245, -6.430e-8
0.246, -6.416e-8
0.247, -6.391e-8
0.248, -6.375e-8
0.249, -6.368e-8
0.250, -6.345e-8
0.251, -6.325e-8
0.252, -6.320e-8
0.253, -6.301e-8
0.254, -6.277e-8
0.255, -6.272e-8
0.256, -6.261e-8
0.257, -6.234e-8
0.258, -6.223e-8
0.259, -6.216e-8
0.260, -6.195e-8
0.261, -6.178e-8
0.262, -6.173e-8
0.263, -6.159e-8
0.264, -6.136e-8
0.265, -6.132e-8
0.266, -6.125e-8
0.267, -6.097e-8
0.268, -6.093e-8
0.269, -6.087e-8
0.270, -6.067e-8
0.271, -6.054e-8
0.272, -6.050e-8
0.273, -6.037e-8
0.274, -6.019e-8
0.275, -6.013e-8
0.276, -6.008e-8
0.277, -5.985e-8
0.278, -5.979e-8
0.279, -5.978e-8
0.280, -5.958e-8
0.281, -5.947e-8
0.282, -5.947e-8
0.283, -5.934e-8
0.284, -5.918e-8
0.285, -5.914e-8
0.286, -5.910e-8
0.287, -5.891e-8
0.288, -5.884e-8
0.289, -5.883e-8
0.290, -5.869e-8
0.291, -5.856e-8
0.292, -5.861e-8
0.293, -5.846e-8
0.294, -5.832e-8
0.295, -5.834e-8
0.296, -5.827e-8
0.297, -5.809e-8
0.298, -5.807e-8
0.299, -5.806e-8
0.300, -5.472e-8
0.299, -5.210e-8
0.298, -5.169e-8
0.297, -5.126e-8
0.296, -5.089e-8
0.295, -5.068e-8
0.294, -5.048e-8
0.293, -5.013e-8
0.292, -4.993e-8
0.291, -4.983e-8
0.290, -4.954e-8
0.289, -4.930e-8
0.288, -4.924e-8
0.287, -4.901e-8
0.286, -4.876e-8
0.285, -4.868e-8
0.284, -4.853e-8
0.283, -4.827e-8
0.282, -4.815e-8
0.281, -4.808e-8
0.280, -4.786e-8
0.279, -4.767e-8
0.278, -4.764e-8
0.277, -4.747e-8
0.276, -4.722e-8
0.275, -4.719e-8
0.274, -4.710e-8
0.273, -4.684e-8
0.272, -4.678e-8
0.271, -4.670e-8
0.270, -4.649e-8
0.269, -4.635e-8
0.268, -4.630e-8
0.267, -4.617e-8
0.266, -4.597e-8
0.265, -4.591e-8
0.264, -4.585e-8
0.263, -4.560e-8
0.262, -4.555e-8
0.261, -4.551e-8
0.260, -4.528e-8
0.259, -4.516e-8
0.258, -4.515e-8
0.257, -4.499e-8
0.256, -4.482e-8
0.255, -4.478e-8
0.254, -4.470e-8
0.253, -4.449e-8
0.252, -4.441e-8
0.251, -4.439e-8
0.250, -4.419e-8
0.249, -4.404e-8
0.248, -4.406e-8
0.247, -4.389e-8
0.246, -4.372e-8
0.245, -4.369e-8
0.244, -4.360e-8
0.243, -4.338e-8
0.242, -4.333e-8
0.241, -4.328e-8
0.240, -4.311e-8
0.239, -4.295e-8
0.238, -4.295e-8
0.237, -4.281e-8
0.236, -4.259e-8
0.235, -4.259e-8
0.234, -4.250e-8
0.233, -4.226e-8
0.232, -4.222e-8
0.231, -4.214e-8
0.230, -4.195e-8
0.229, -4.182e-8
0.228, -4.177e-8
0.227, -4.164e-8
0.226, -4.145e-8
0.225, -4.137e-8
0.224, -4.131e-8
0.223, -4.104e-8
0.222, -4.098e-8
0.221, -4.091e-8
0.220, -4.067e-8
0.219, -4.054e-8
0.218, -4.050e-8
0.217, -4.030e-8
0.216, -4.012e-8
0.215, -4.002e-8
0.214, -3.992e-8
0.213, -3.965e-8
0.212, -3.953e-8
0.211, -3.949e-8
0.210, -3.921e-8
0.209, -3.902e-8
0.208, -3.897e-8
0.207, -3.873e-8
0.206, -3.850e-8
0.205, -3.838e-8
0.204, -3.823e-8
0.203, -3.795e-8
0.202, -3.781e-8
0.201, -3.766e-8
0.200, -3.740e-8
0.199, -3.716e-8
0.198, -3.706e-8
0.197, -3.679e-8
0.196, -3.648e-8
0.195, -3.637e-8
0.194, -3.614e-8
0.193, -3.580e-8
0.192, -3.560e-8
0.191, -3.539e-8
0.190, -3.506e-8
0.189, -3.481e-8
0.188, -3.458e-8
0.187, -3.428e-8
0.186, -3.393e-8
0.185, -3.369e-8
0.184, -3.343e-8
0.183, -3.297e-8
0.182, -3.272e-8
0.181, -3.244e-8
0.180, -3.199e-8
0.179, -3.166e-8
0.178, -3.137e-8
0.177, -3.093e-8
0.176, -3.050e-8
0.175, -3.014e-8
0.174, -2.977e-8
0.173, -2.926e-8
0.172, -2.884e-8
0.171, -2.847e-8
0.170, -2.792e-8
0.169, -2.742e-8
0.168, -2.703e-8
0.167, -2.645e-8
0.166, -2.590e-8
0.165, -2.544e-8
0.164, -2.487e-8
0.163, -2.424e-8
0.162, -2.370e-8
0.161, -2.314e-8
0.160, -2.247e-8
0.159, -2.180e-8
0.158, -2.124e-8
0.157, -2.054e-8
0.156, -1.978e-8
0.155, -1.916e-8
0.154, -1.845e-8
0.153, -1.757e-8
0.152, -1.694e-8
0.151, -1.615e-8
0.150, -1.531e-8
0.149, -1.449e-8
0.148, -1.367e-8
0.147, -1.284e-8
0.146, -1.190e-8
0.145, -1.100e-8
0.144, -1.017e-8
0.143, -9.074e-9
0.142, -8.218e-9
0.141, -7.247e-9
0.140, -6.144e-9
0.139, -5.194e-9
0.138, -4.160e-9
0.137, -3.063e-9
0.136, -1.989e-9
0.135, -9.009e-10
0.134, 1.778e-10
0.133, 1.380e-9
0.132, 2.503e-9
0.131, 3.578e-9
0.130, 4.906e-9
0.129, 6.078e-9
0.128, 7.246e-9
0.127, 8.535e-9
0.126, 9.761e-9
0.125, 1.097e-8
0.124, 1.229e-8
0.123, 1.355e-8
0.122, 1.482e-8
0.121, 1.610e-8
0.120, 1.741e-8
0.119, 1.874e-8
0.118, 1.998e-8
0.117, 2.130e-8
0.116, 2.270e-8
0.115, 2.395e-8
0.114, 2.524e-8
0.113, 2.663e-8
0.112, 2.781e-8
0.111, 2.921e-8
0.110, 3.048e-8
0.109, 3.169e-8
0.108, 3.302e-8
0.107, 3.423e-8
0.106, 3.549e-8
0.105, 3.667e-8
0.104, 3.786e-8
0.103, 3.920e-8
0.102, 4.025e-8
0.101, 4.141e-8
0.100, 4.259e-8
0.099, 4.359e-8
0.098, 4.468e-8
0.097, 4.573e-8
0.096, 4.668e-8
0.095, 4.775e-8
0.094, 4.864e-8
0.093, 4.960e-8
0.092, 5.046e-8
0.091, 5.128e-8
0.090, 5.217e-8
0.089, 5.292e-8
0.088, 5.364e-8
0.087, 5.444e-8
0.086, 5.503e-8
0.085, 5.566e-8
0.084, 5.631e-8
0.083, 5.691e-8
0.082, 5.734e-8
0.081, 5.791e-8
0.080, 5.833e-8
0.079, 5.881e-8
0.078, 5.913e-8
0.077, 5.954e-8
0.076, 5.989e-8
0.075, 6.005e-8
0.074, 6.035e-8
0.073, 6.060e-8
0.072, 6.069e-8
0.071, 6.090e-8
0.070, 6.101e-8
0.069, 6.106e-8
0.068, 6.113e-8
0.067, 6.110e-8
0.066, 6.118e-8
0.065, 6.109e-8
0.064, 6.103e-8
0.063, 6.107e-8
0.062, 6.085e-8
0.061, 6.070e-8
0.060, 6.064e-8
0.059, 6.040e-8
0.058, 6.019e-8
0.057, 6.001e-8
0.056, 5.980e-8
0.055, 5.954e-8
0.054, 5.923e-8
0.053, 5.906e-8
0.052, 5.873e-8
0.051, 5.836e-8
0.050, 5.811e-8
0.049, 5.778e-8
0.048, 5.735e-8
0.047, 5.708e-8
0.046, 5.674e-8
0.045, 5.629e-8
0.044, 5.597e-8
0.043, 5.562e-8
0.042, 5.518e-8
0.041, 5.474e-8
0.040, 5.441e-8
0.039, 5.401e-8
0.038, 5.352e-8
0.037, 5.316e-8
0.036, 5.281e-8
0.035, 5.228e-8
0.034, 5.190e-8
0.033, 5.157e-8
0.032, 5.106e-8
0.031, 5.061e-8
0.030, 5.028e-8
0.029, 4.984e-8
0.028, 4.939e-8
0.027, 4.898e-8
0.026, 4.864e-8
0.025, 4.816e-8
0.024, 4.770e-8
0.023, 4.741e-8
0.022, 4.692e-8
0.021, 4.646e-8
0.020, 4.618e-8
0.019, 4.573e-8
0.018, 4.528e-8
0.017, 4.496e-8
0.016, 4.459e-8
0.015, 4.414e-8
0.014, 4.375e-8
0.013, 4.346e-8
0.012, 4.307e-8
0.011, 4.260e-8
0.010, 4.234e-8
0.009, 4.199e-8
0.008, 4.153e-8
0.007, 4.125e-8
0.006, 4.094e-8
0.005, 4.050e-8
0.004, 4.020e-8
0.003, 3.990e-8
0.002, 3.954e-8
0.001, 3.916e-8
0.000, 3.905e-8
-0.001, 3.864e-8
-0.002, 3.822e-8
-0.003, 3.796e-8
-0.004, 3.772e-8
-0.005, 3.732e-8
-0.006, 3.701e-8
-0.007, 3.683e-8
-0.008, 3.648e-8
-0.009, 3.614e-8
-0.010, 3.597e-8
-0.011, 3.567e-8
-0.012, 3.534e-8
-0.013, 3.511e-8
-0.014, 3.491e-8
-0.015, 3.457e-8
-0.016, 3.430e-8
-0.017, 3.416e-8
-0.018, 3.386e-8
-0.019, 3.354e-8
-0.020, 3.344e-8
-0.021, 3.316e-8
-0.022, 3.285e-8
-0.023, 3.270e-8
-0.024, 3.251e-8
-0.025, 3.222e-8
-0.026, 3.199e-8
-0.027, 3.187e-8
-0.028, 3.162e-8
-0.029, 3.133e-8
-0.030, 3.124e-8
-0.031, 3.104e-8
-0.032, 3.074e-8
-0.033, 3.062e-8
-0.034, 3.048e-8
-0.035, 3.020e-8
-0.036, 3.005e-8
-0.037, 2.994e-8
-0.038, 2.972e-8
-0.039, 2.948e-8
-0.040, 2.941e-8
-0.041, 2.924e-8
-0.042, 2.898e-8
-0.043, 2.887e-8
-0.044, 2.881e-8
-0.045, 2.851e-8
-0.046, 2.838e-8
-0.047, 2.834e-8
-0.048, 2.811e-8
-0.049, 2.793e-8
-0.050, 2.789e-8
-0.051, 2.773e-8
-0.052, 2.752e-8
-0.053, 2.743e-8
-0.054, 2.735e-8
-0.055, 2.714e-8
-0.056, 2.700e-8
-0.057, 2.698e-8
-0.058, 2.679e-8
-0.059, 2.660e-8
-0.060, 2.662e-8
-0.061, 2.647e-8
-0.062, 2.625e-8
-0.063, 2.623e-8
-0.064, 2.616e-8
-0.065, 2.597e-8
-0.066, 2.586e-8
-0.067, 2.583e-8
-0.068, 2.569e-8
-0.069, 2.552e-8
-0.070, 2.552e-8
-0.071, 2.542e-8
-0.072, 2.523e-8
-0.073, 2.522e-8
-0.074, 2.517e-8
-0.075, 2.497e-8
-0.076, 2.492e-8
-0.077, 2.491e-8
-0.078, 2.475e-8
-0.079, 2.463e-8
-0.080, 2.464e-8
-0.081, 2.455e-8
-0.082, 2.438e-8
-0.083, 2.436e-8
-0.084, 2.436e-8
-0.085, 2.416e-8
-0.086, 2.409e-8
-0.087, 2.414e-8
-0.088, 2.398e-8
-0.089, 2.388e-8
-0.090, 2.391e-8
-0.091, 2.382e-8
-0.092, 2.369e-8
-0.093, 2.367e-8
-0.094, 2.367e-8
-0.095, 2.353e-8
-0.096, 2.346e-8
-0.097, 2.352e-8
-0.098, 2.339e-8
-0.099, 2.326e-8
-0.100, 2.336e-8
-0.101, 2.324e-8
-0.102, 2.314e-8
-0.103, 2.316e-8
-0.104, 2.314e-8
-0.105, 2.301e-8
-0.106, 2.296e-8
-0.107, 2.301e-8
-0.108, 2.293e-8
-0.109, 2.279e-8
-0.110, 2.289e-8
-0.111, 2.283e-8
-0.112, 2.269e-8
-0.113, 2.274e-8
-0.114, 2.274e-8
-0.115, 2.261e-8
-0.116, 2.261e-8
-0.117, 2.264e-8
-0.118, 2.254e-8
-0.119, 2.247e-8
-0.120, 2.254e-8
-0.121, 2.251e-8
-0.122, 2.238e-8
-0.123, 2.243e-8
-0.124, 2.246e-8
-0.125, 2.232e-8
-0.126, 2.232e-8
-0.127, 2.240e-8
-0.128, 2.230e-8
-0.129, 2.224e-8
-0.130, 2.232e-8
-0.131, 2.227e-8
-0.132, 2.220e-8
-0.133, 2.224e-8
-0.134, 2.226e-8
-0.135, 2.217e-8
-0.136, 2.216e-8
-0.137, 2.224e-8
-0.138, 2.215e-8
-0.139, 2.210e-8
-0.140, 2.222e-8
-0.141, 2.217e-8
-0.142, 2.207e-8
-0.143, 2.215e-8
-0.144, 2.217e-8
-0.145, 2.209e-8
-0.146, 2.210e-8
-0.147, 2.218e-8
-0.148, 2.212e-8
-0.149, 2.205e-8
-0.150, 2.217e-8
-0.151, 2.216e-8
-0.152, 2.206e-8
-0.153, 2.216e-8
-0.154, 2.219e-8
-0.155, 2.210e-8
-0.156, 2.214e-8
-0.157, 2.221e-8
-0.158, 2.216e-8
-0.159, 2.213e-8
-0.160, 2.223e-8
-0.161, 2.222e-8
-0.162, 2.215e-8
-0.163, 2.223e-8
-0.164, 2.230e-8
-0.165, 2.221e-8
-0.166, 2.224e-8
-0.167, 2.236e-8
-0.168, 2.229e-8
-0.169, 2.227e-8
-0.170, 2.239e-8
-0.171, 2.238e-8
-0.172, 2.233e-8
-0.173, 2.240e-8
-0.174, 2.247e-8
-0.175, 2.242e-8
-0.176, 2.244e-8
-0.177, 2.257e-8
-0.178, 2.252e-8
-0.179, 2.250e-8
-0.180, 2.265e-8
-0.181, 2.263e-8
-0.182, 2.258e-8
-0.183, 2.269e-8
-0.184, 2.274e-8
-0.185, 2.271e-8
-0.186, 2.274e-8
-0.187, 2.286e-8
-0.188, 2.284e-8
-0.189, 2.281e-8
-0.190, 2.297e-8
-0.191, 2.298e-8
-0.192, 2.293e-8
-0.193, 2.305e-8
-0.194, 2.311e-8
-0.195, 2.306e-8
-0.196, 2.315e-8
-0.197, 2.326e-8
-0.198, 2.322e-8
-0.199, 2.324e-8
