Mar. 16, 2023   10:09:54
Cyclic Voltammetry
File: c:/users/oliverrz/desktop/electrolab/data/2023_03_16\fcmeoh_macros_1_mm\electrode2_cv_200mvs_1_mm.bin
Data Source:  Experiment
Instrument Model:  CHI760E
Header: CV
Note: 

Init E (V) = -0.2
High E (V) = 0.3
Low E (V) = -0.2
Final E (V) = -0.2
Init P/N = P
Scan Rate (V/s) = 0.2
Segment = 3
Sample Interval (V) = 0.001
Quiet Time (sec) = 2
Sensitivity (A/V) = 1e-7

Results:

Channel 1:
Segment 1:
Ep = 0.127V
ip = -9.542e-8A
Ah = -2.971e-8C

Segment 2:
Ep = 0.068V
ip = 8.584e-8A
Ah = 2.516e-8C

Segment 3:

Potential/V, Current/A

-0.200, 5.934e-9
-0.199, 4.796e-9
-0.198, 4.766e-9
-0.197, 4.613e-9
-0.196, 4.288e-9
-0.195, 4.326e-9
-0.194, 4.330e-9
-0.193, 4.040e-9
-0.192, 3.977e-9
-0.191, 4.099e-9
-0.190, 3.871e-9
-0.189, 3.718e-9
-0.188, 3.837e-9
-0.187, 3.771e-9
-0.186, 3.529e-9
-0.185, 3.579e-9
-0.184, 3.636e-9
-0.183, 3.400e-9
-0.182, 3.343e-9
-0.181, 3.493e-9
-0.180, 3.282e-9
-0.179, 3.136e-9
-0.178, 3.297e-9
-0.177, 3.208e-9
-0.176, 2.993e-9
-0.175, 3.084e-9
-0.174, 3.113e-9
-0.173, 2.902e-9
-0.172, 2.846e-9
-0.171, 3.005e-9
-0.170, 2.834e-9
-0.169, 2.669e-9
-0.168, 2.842e-9
-0.167, 2.767e-9
-0.166, 2.525e-9
-0.165, 2.644e-9
-0.164, 2.678e-9
-0.163, 2.468e-9
-0.162, 2.437e-9
-0.161, 2.586e-9
-0.160, 2.415e-9
-0.159, 2.269e-9
-0.158, 2.418e-9
-0.157, 2.390e-9
-0.156, 2.133e-9
-0.155, 2.254e-9
-0.154, 2.300e-9
-0.153, 2.062e-9
-0.152, 2.070e-9
-0.151, 2.208e-9
-0.150, 2.028e-9
-0.149, 1.904e-9
-0.148, 2.062e-9
-0.147, 2.008e-9
-0.146, 1.788e-9
-0.145, 1.878e-9
-0.144, 1.956e-9
-0.143, 1.733e-9
-0.142, 1.700e-9
-0.141, 1.863e-9
-0.140, 1.682e-9
-0.139, 1.558e-9
-0.138, 1.737e-9
-0.137, 1.661e-9
-0.136, 1.460e-9
-0.135, 1.572e-9
-0.134, 1.611e-9
-0.133, 1.412e-9
-0.132, 1.380e-9
-0.131, 1.548e-9
-0.130, 1.384e-9
-0.129, 1.233e-9
-0.128, 1.419e-9
-0.127, 1.366e-9
-0.126, 1.138e-9
-0.125, 1.265e-9
-0.124, 1.310e-9
-0.123, 1.106e-9
-0.122, 1.095e-9
-0.121, 1.246e-9
-0.120, 1.085e-9
-0.119, 9.589e-10
-0.118, 1.122e-9
-0.117, 1.086e-9
-0.116, 8.442e-10
-0.115, 9.749e-10
-0.114, 1.036e-9
-0.113, 8.074e-10
-0.112, 8.147e-10
-0.111, 9.774e-10
-0.110, 7.940e-10
-0.109, 6.802e-10
-0.108, 8.474e-10
-0.107, 7.968e-10
-0.106, 5.890e-10
-0.105, 6.794e-10
-0.104, 7.658e-10
-0.103, 5.320e-10
-0.102, 5.257e-10
-0.101, 7.038e-10
-0.100, 5.082e-10
-0.099, 4.069e-10
-0.098, 5.906e-10
-0.097, 5.073e-10
-0.096, 3.169e-10
-0.095, 4.326e-10
-0.094, 4.869e-10
-0.093, 2.696e-10
-0.092, 2.599e-10
-0.091, 4.380e-10
-0.090, 2.587e-10
-0.089, 1.222e-10
-0.088, 3.216e-10
-0.087, 2.547e-10
-0.086, 3.743e-11
-0.085, 1.669e-10
-0.084, 2.137e-10
-0.083, 1.595e-12
-0.082, 8.880e-12
-0.081, 1.493e-10
-0.080, -9.924e-12
-0.079, -1.332e-10
-0.078, 3.280e-11
-0.077, -2.745e-11
-0.076, -2.444e-10
-0.075, -1.111e-10
-0.074, -5.826e-11
-0.073, -2.988e-10
-0.072, -2.804e-10
-0.071, -1.173e-10
-0.070, -3.212e-10
-0.069, -4.214e-10
-0.068, -2.615e-10
-0.067, -3.235e-10
-0.066, -5.260e-10
-0.065, -4.378e-10
-0.064, -3.659e-10
-0.063, -5.898e-10
-0.062, -6.164e-10
-0.061, -4.397e-10
-0.060, -6.437e-10
-0.059, -7.596e-10
-0.058, -5.784e-10
-0.057, -6.798e-10
-0.056, -8.753e-10
-0.055, -7.635e-10
-0.054, -7.423e-10
-0.053, -9.583e-10
-0.052, -9.823e-10
-0.051, -8.339e-10
-0.050, -1.023e-9
-0.049, -1.167e-9
-0.048, -9.819e-10
-0.047, -1.080e-9
-0.046, -1.310e-9
-0.045, -1.186e-9
-0.044, -1.177e-9
-0.043, -1.411e-9
-0.042, -1.425e-9
-0.041, -1.311e-9
-0.040, -1.492e-9
-0.039, -1.654e-9
-0.038, -1.506e-9
-0.037, -1.594e-9
-0.036, -1.848e-9
-0.035, -1.746e-9
-0.034, -1.730e-9
-0.033, -2.011e-9
-0.032, -2.012e-9
-0.031, -1.912e-9
-0.030, -2.154e-9
-0.029, -2.292e-9
-0.028, -2.174e-9
-0.027, -2.288e-9
-0.026, -2.557e-9
-0.025, -2.491e-9
-0.024, -2.491e-9
-0.023, -2.765e-9
-0.022, -2.837e-9
-0.021, -2.738e-9
-0.020, -2.998e-9
-0.019, -3.175e-9
-0.018, -3.071e-9
-0.017, -3.251e-9
-0.016, -3.502e-9
-0.015, -3.475e-9
-0.014, -3.527e-9
-0.013, -3.836e-9
-0.012, -3.924e-9
-0.011, -3.877e-9
-0.010, -4.151e-9
-0.009, -4.407e-9
-0.008, -4.318e-9
-0.007, -4.527e-9
-0.006, -4.860e-9
-0.005, -4.860e-9
-0.004, -4.972e-9
-0.003, -5.314e-9
-0.002, -5.444e-9
-0.001, -5.489e-9
-0.000, -5.931e-9
0.001, -6.130e-9
0.002, -6.122e-9
0.003, -6.364e-9
0.004, -6.771e-9
0.005, -6.837e-9
0.006, -6.988e-9
0.007, -7.451e-9
0.008, -7.632e-9
0.009, -7.733e-9
0.010, -8.162e-9
0.011, -8.507e-9
0.012, -8.606e-9
0.013, -8.940e-9
0.014, -9.416e-9
0.015, -9.604e-9
0.016, -9.846e-9
0.017, -1.036e-8
0.018, -1.069e-8
0.019, -1.087e-8
0.020, -1.141e-8
0.021, -1.186e-8
0.022, -1.204e-8
0.023, -1.256e-8
0.024, -1.311e-8
0.025, -1.342e-8
0.026, -1.385e-8
0.027, -1.445e-8
0.028, -1.493e-8
0.029, -1.524e-8
0.030, -1.591e-8
0.031, -1.654e-8
0.032, -1.685e-8
0.033, -1.750e-8
0.034, -1.823e-8
0.035, -1.865e-8
0.036, -1.925e-8
0.037, -2.004e-8
0.038, -2.067e-8
0.039, -2.120e-8
0.040, -2.199e-8
0.041, -2.279e-8
0.042, -2.334e-8
0.043, -2.414e-8
0.044, -2.508e-8
0.045, -2.569e-8
0.046, -2.648e-8
0.047, -2.749e-8
0.048, -2.825e-8
0.049, -2.903e-8
0.050, -3.007e-8
0.051, -3.103e-8
0.052, -3.181e-8
0.053, -3.281e-8
0.054, -3.392e-8
0.055, -3.478e-8
0.056, -3.577e-8
0.057, -3.693e-8
0.058, -3.796e-8
0.059, -3.888e-8
0.060, -4.017e-8
0.061, -4.129e-8
0.062, -4.224e-8
0.063, -4.352e-8
0.064, -4.476e-8
0.065, -4.585e-8
0.066, -4.703e-8
0.067, -4.832e-8
0.068, -4.960e-8
0.069, -5.064e-8
0.070, -5.200e-8
0.071, -5.337e-8
0.072, -5.444e-8
0.073, -5.584e-8
0.074, -5.720e-8
0.075, -5.835e-8
0.076, -5.972e-8
0.077, -6.111e-8
0.078, -6.239e-8
0.079, -6.360e-8
0.080, -6.498e-8
0.081, -6.636e-8
0.082, -6.748e-8
0.083, -6.883e-8
0.084, -7.024e-8
0.085, -7.135e-8
0.086, -7.264e-8
0.087, -7.403e-8
0.088, -7.516e-8
0.089, -7.636e-8
0.090, -7.771e-8
0.091, -7.884e-8
0.092, -7.992e-8
0.093, -8.108e-8
0.094, -8.230e-8
0.095, -8.332e-8
0.096, -8.433e-8
0.097, -8.552e-8
0.098, -8.648e-8
0.099, -8.736e-8
0.100, -8.849e-8
0.101, -8.940e-8
0.102, -9.020e-8
0.103, -9.119e-8
0.104, -9.200e-8
0.105, -9.273e-8
0.106, -9.345e-8
0.107, -9.423e-8
0.108, -9.492e-8
0.109, -9.540e-8
0.110, -9.614e-8
0.111, -9.678e-8
0.112, -9.708e-8
0.113, -9.774e-8
0.114, -9.823e-8
0.115, -9.853e-8
0.116, -9.892e-8
0.117, -9.934e-8
0.118, -9.960e-8
0.119, -9.979e-8
0.120, -1.001e-7
0.121, -1.004e-7
0.122, -1.004e-7
0.123, -1.006e-7
0.124, -1.008e-7
0.125, -1.007e-7
0.126, -1.007e-7
0.127, -1.009e-7
0.128, -1.008e-7
0.129, -1.007e-7
0.130, -1.007e-7
0.131, -1.006e-7
0.132, -1.003e-7
0.133, -1.002e-7
0.134, -1.002e-7
0.135, -9.985e-8
0.136, -9.958e-8
0.137, -9.948e-8
0.138, -9.919e-8
0.139, -9.877e-8
0.140, -9.865e-8
0.141, -9.835e-8
0.142, -9.785e-8
0.143, -9.764e-8
0.144, -9.735e-8
0.145, -9.686e-8
0.146, -9.644e-8
0.147, -9.621e-8
0.148, -9.579e-8
0.149, -9.522e-8
0.150, -9.495e-8
0.151, -9.461e-8
0.152, -9.396e-8
0.153, -9.363e-8
0.154, -9.332e-8
0.155, -9.273e-8
0.156, -9.226e-8
0.157, -9.195e-8
0.158, -9.143e-8
0.159, -9.086e-8
0.160, -9.053e-8
0.161, -9.014e-8
0.162, -8.950e-8
0.163, -8.910e-8
0.164, -8.879e-8
0.165, -8.818e-8
0.166, -8.767e-8
0.167, -8.743e-8
0.168, -8.687e-8
0.169, -8.628e-8
0.170, -8.599e-8
0.171, -8.557e-8
0.172, -8.495e-8
0.173, -8.456e-8
0.174, -8.426e-8
0.175, -8.369e-8
0.176, -8.317e-8
0.177, -8.296e-8
0.178, -8.246e-8
0.179, -8.190e-8
0.180, -8.165e-8
0.181, -8.128e-8
0.182, -8.064e-8
0.183, -8.035e-8
0.184, -8.006e-8
0.185, -7.952e-8
0.186, -7.907e-8
0.187, -7.886e-8
0.188, -7.842e-8
0.189, -7.788e-8
0.190, -7.766e-8
0.191, -7.736e-8
0.192, -7.676e-8
0.193, -7.650e-8
0.194, -7.629e-8
0.195, -7.576e-8
0.196, -7.537e-8
0.197, -7.521e-8
0.198, -7.479e-8
0.199, -7.435e-8
0.200, -7.414e-8
0.201, -7.389e-8
0.202, -7.335e-8
0.203, -7.311e-8
0.204, -7.296e-8
0.205, -7.248e-8
0.206, -7.212e-8
0.207, -7.204e-8
0.208, -7.164e-8
0.209, -7.121e-8
0.210, -7.109e-8
0.211, -7.085e-8
0.212, -7.037e-8
0.213, -7.017e-8
0.214, -7.004e-8
0.215, -6.964e-8
0.216, -6.930e-8
0.217, -6.925e-8
0.218, -6.892e-8
0.219, -6.851e-8
0.220, -6.843e-8
0.221, -6.824e-8
0.222, -6.778e-8
0.223, -6.765e-8
0.224, -6.753e-8
0.225, -6.716e-8
0.226, -6.689e-8
0.227, -6.684e-8
0.228, -6.657e-8
0.229, -6.621e-8
0.230, -6.613e-8
0.231, -6.602e-8
0.232, -6.556e-8
0.233, -6.545e-8
0.234, -6.540e-8
0.235, -6.503e-8
0.236, -6.479e-8
0.237, -6.479e-8
0.238, -6.451e-8
0.239, -6.420e-8
0.240, -6.415e-8
0.241, -6.404e-8
0.242, -6.366e-8
0.243, -6.355e-8
0.244, -6.353e-8
0.245, -6.319e-8
0.246, -6.296e-8
0.247, -6.301e-8
0.248, -6.274e-8
0.249, -6.244e-8
0.250, -6.246e-8
0.251, -6.232e-8
0.252, -6.197e-8
0.253, -6.190e-8
0.254, -6.189e-8
0.255, -6.159e-8
0.256, -6.138e-8
0.257, -6.145e-8
0.258, -6.122e-8
0.259, -6.093e-8
0.260, -6.095e-8
0.261, -6.086e-8
0.262, -6.051e-8
0.263, -6.050e-8
0.264, -6.049e-8
0.265, -6.019e-8
0.266, -6.002e-8
0.267, -6.008e-8
0.268, -5.990e-8
0.269, -5.963e-8
0.270, -5.965e-8
0.271, -5.962e-8
0.272, -5.924e-8
0.273, -5.924e-8
0.274, -5.928e-8
0.275, -5.898e-8
0.276, -5.884e-8
0.277, -5.892e-8
0.278, -5.872e-8
0.279, -5.850e-8
0.280, -5.853e-8
0.281, -5.850e-8
0.282, -5.818e-8
0.283, -5.816e-8
0.284, -5.822e-8
0.285, -5.794e-8
0.286, -5.779e-8
0.287, -5.792e-8
0.288, -5.771e-8
0.289, -5.750e-8
0.290, -5.757e-8
0.291, -5.752e-8
0.292, -5.723e-8
0.293, -5.723e-8
0.294, -5.728e-8
0.295, -5.705e-8
0.296, -5.689e-8
0.297, -5.703e-8
0.298, -5.686e-8
0.299, -5.663e-8
0.300, -5.396e-8
0.299, -5.180e-8
0.298, -5.109e-8
0.297, -5.080e-8
0.296, -5.063e-8
0.295, -5.015e-8
0.294, -4.986e-8
0.293, -4.982e-8
0.292, -4.949e-8
0.291, -4.915e-8
0.290, -4.910e-8
0.289, -4.895e-8
0.288, -4.855e-8
0.287, -4.845e-8
0.286, -4.842e-8
0.285, -4.808e-8
0.284, -4.785e-8
0.283, -4.791e-8
0.282, -4.766e-8
0.281, -4.735e-8
0.280, -4.738e-8
0.279, -4.728e-8
0.278, -4.692e-8
0.277, -4.688e-8
0.276, -4.686e-8
0.275, -4.657e-8
0.274, -4.638e-8
0.273, -4.644e-8
0.272, -4.623e-8
0.271, -4.596e-8
0.270, -4.598e-8
0.269, -4.593e-8
0.268, -4.554e-8
0.267, -4.557e-8
0.266, -4.556e-8
0.265, -4.526e-8
0.264, -4.511e-8
0.263, -4.519e-8
0.262, -4.498e-8
0.261, -4.474e-8
0.260, -4.476e-8
0.259, -4.472e-8
0.258, -4.437e-8
0.257, -4.436e-8
0.256, -4.439e-8
0.255, -4.410e-8
0.254, -4.395e-8
0.253, -4.406e-8
0.252, -4.382e-8
0.251, -4.361e-8
0.250, -4.366e-8
0.249, -4.357e-8
0.248, -4.326e-8
0.247, -4.325e-8
0.246, -4.327e-8
0.245, -4.300e-8
0.244, -4.283e-8
0.243, -4.294e-8
0.242, -4.273e-8
0.241, -4.249e-8
0.240, -4.254e-8
0.239, -4.247e-8
0.238, -4.213e-8
0.237, -4.214e-8
0.236, -4.214e-8
0.235, -4.188e-8
0.234, -4.172e-8
0.233, -4.180e-8
0.232, -4.160e-8
0.231, -4.134e-8
0.230, -4.138e-8
0.229, -4.132e-8
0.228, -4.095e-8
0.227, -4.097e-8
0.226, -4.097e-8
0.225, -4.065e-8
0.224, -4.053e-8
0.223, -4.057e-8
0.222, -4.035e-8
0.221, -4.010e-8
0.220, -4.010e-8
0.219, -4.004e-8
0.218, -3.967e-8
0.217, -3.964e-8
0.216, -3.964e-8
0.215, -3.930e-8
0.214, -3.914e-8
0.213, -3.919e-8
0.212, -3.891e-8
0.211, -3.866e-8
0.210, -3.865e-8
0.209, -3.853e-8
0.208, -3.814e-8
0.207, -3.810e-8
0.206, -3.804e-8
0.205, -3.769e-8
0.204, -3.746e-8
0.203, -3.751e-8
0.202, -3.721e-8
0.201, -3.689e-8
0.200, -3.687e-8
0.199, -3.669e-8
0.198, -3.627e-8
0.197, -3.618e-8
0.196, -3.606e-8
0.195, -3.570e-8
0.194, -3.542e-8
0.193, -3.537e-8
0.192, -3.504e-8
0.191, -3.467e-8
0.190, -3.458e-8
0.189, -3.436e-8
0.188, -3.385e-8
0.187, -3.371e-8
0.186, -3.355e-8
0.185, -3.306e-8
0.184, -3.275e-8
0.183, -3.262e-8
0.182, -3.222e-8
0.181, -3.176e-8
0.180, -3.156e-8
0.179, -3.126e-8
0.178, -3.070e-8
0.177, -3.042e-8
0.176, -3.018e-8
0.175, -2.960e-8
0.174, -2.919e-8
0.173, -2.898e-8
0.172, -2.841e-8
0.171, -2.791e-8
0.170, -2.759e-8
0.169, -2.716e-8
0.168, -2.647e-8
0.167, -2.608e-8
0.166, -2.571e-8
0.165, -2.501e-8
0.164, -2.442e-8
0.163, -2.411e-8
0.162, -2.340e-8
0.161, -2.271e-8
0.160, -2.229e-8
0.159, -2.167e-8
0.158, -2.083e-8
0.157, -2.032e-8
0.156, -1.971e-8
0.155, -1.889e-8
0.154, -1.814e-8
0.153, -1.760e-8
0.152, -1.676e-8
0.151, -1.589e-8
0.150, -1.526e-8
0.149, -1.448e-8
0.148, -1.342e-8
0.147, -1.278e-8
0.146, -1.196e-8
0.145, -1.090e-8
0.144, -1.004e-8
0.143, -9.244e-9
0.142, -8.208e-9
0.141, -7.153e-9
0.140, -6.256e-9
0.139, -5.323e-9
0.138, -4.124e-9
0.137, -3.174e-9
0.136, -2.208e-9
0.135, -9.376e-10
0.134, 1.264e-10
0.133, 1.112e-9
0.132, 2.407e-9
0.131, 3.573e-9
0.130, 4.657e-9
0.129, 5.818e-9
0.128, 7.235e-9
0.127, 8.366e-9
0.126, 9.465e-9
0.125, 1.086e-8
0.124, 1.214e-8
0.123, 1.324e-8
0.122, 1.465e-8
0.121, 1.597e-8
0.120, 1.718e-8
0.119, 1.850e-8
0.118, 1.993e-8
0.117, 2.111e-8
0.116, 2.244e-8
0.115, 2.386e-8
0.114, 2.519e-8
0.113, 2.638e-8
0.112, 2.777e-8
0.111, 2.918e-8
0.110, 3.033e-8
0.109, 3.158e-8
0.108, 3.312e-8
0.107, 3.416e-8
0.106, 3.546e-8
0.105, 3.682e-8
0.104, 3.800e-8
0.103, 3.920e-8
0.102, 4.047e-8
0.101, 4.165e-8
0.100, 4.275e-8
0.099, 4.379e-8
0.098, 4.510e-8
0.097, 4.605e-8
0.096, 4.702e-8
0.095, 4.824e-8
0.094, 4.912e-8
0.093, 5.000e-8
0.092, 5.110e-8
0.091, 5.194e-8
0.090, 5.279e-8
0.089, 5.357e-8
0.088, 5.449e-8
0.087, 5.518e-8
0.086, 5.581e-8
0.085, 5.664e-8
0.084, 5.733e-8
0.083, 5.771e-8
0.082, 5.844e-8
0.081, 5.904e-8
0.080, 5.937e-8
0.079, 5.988e-8
0.078, 6.046e-8
0.077, 6.073e-8
0.076, 6.108e-8
0.075, 6.143e-8
0.074, 6.173e-8
0.073, 6.185e-8
0.072, 6.212e-8
0.071, 6.243e-8
0.070, 6.240e-8
0.069, 6.249e-8
0.068, 6.280e-8
0.067, 6.265e-8
0.066, 6.266e-8
0.065, 6.279e-8
0.064, 6.274e-8
0.063, 6.262e-8
0.062, 6.256e-8
0.061, 6.252e-8
0.060, 6.231e-8
0.059, 6.207e-8
0.058, 6.211e-8
0.057, 6.180e-8
0.056, 6.149e-8
0.055, 6.145e-8
0.054, 6.114e-8
0.053, 6.074e-8
0.052, 6.060e-8
0.051, 6.036e-8
0.050, 5.991e-8
0.049, 5.957e-8
0.048, 5.939e-8
0.047, 5.899e-8
0.046, 5.848e-8
0.045, 5.828e-8
0.044, 5.793e-8
0.043, 5.735e-8
0.042, 5.709e-8
0.041, 5.678e-8
0.040, 5.624e-8
0.039, 5.583e-8
0.038, 5.560e-8
0.037, 5.502e-8
0.036, 5.455e-8
0.035, 5.427e-8
0.034, 5.387e-8
0.033, 5.327e-8
0.032, 5.292e-8
0.031, 5.262e-8
0.030, 5.202e-8
0.029, 5.158e-8
0.028, 5.138e-8
0.027, 5.079e-8
0.026, 5.030e-8
0.025, 5.006e-8
0.024, 4.960e-8
0.023, 4.902e-8
0.022, 4.872e-8
0.021, 4.839e-8
0.020, 4.784e-8
0.019, 4.737e-8
0.018, 4.719e-8
0.017, 4.665e-8
0.016, 4.613e-8
0.015, 4.595e-8
0.014, 4.554e-8
0.013, 4.497e-8
0.012, 4.474e-8
0.011, 4.441e-8
0.010, 4.389e-8
0.009, 4.352e-8
0.008, 4.334e-8
0.007, 4.285e-8
0.006, 4.238e-8
0.005, 4.220e-8
0.004, 4.188e-8
0.003, 4.131e-8
0.002, 4.111e-8
0.001, 4.088e-8
0.000, 4.049e-8
-0.001, 4.006e-8
-0.002, 3.993e-8
-0.003, 3.945e-8
-0.004, 3.906e-8
-0.005, 3.891e-8
-0.006, 3.860e-8
-0.007, 3.812e-8
-0.008, 3.795e-8
-0.009, 3.775e-8
-0.010, 3.729e-8
-0.011, 3.698e-8
-0.012, 3.694e-8
-0.013, 3.650e-8
-0.014, 3.612e-8
-0.015, 3.605e-8
-0.016, 3.578e-8
-0.017, 3.533e-8
-0.018, 3.521e-8
-0.019, 3.504e-8
-0.020, 3.465e-8
-0.021, 3.437e-8
-0.022, 3.434e-8
-0.023, 3.399e-8
-0.024, 3.363e-8
-0.025, 3.361e-8
-0.026, 3.337e-8
-0.027, 3.295e-8
-0.028, 3.289e-8
-0.029, 3.274e-8
-0.030, 3.237e-8
-0.031, 3.215e-8
-0.032, 3.214e-8
-0.033, 3.181e-8
-0.034, 3.150e-8
-0.035, 3.149e-8
-0.036, 3.131e-8
-0.037, 3.090e-8
-0.038, 3.088e-8
-0.039, 3.079e-8
-0.040, 3.043e-8
-0.041, 3.024e-8
-0.042, 3.028e-8
-0.043, 2.997e-8
-0.044, 2.971e-8
-0.045, 2.971e-8
-0.046, 2.956e-8
-0.047, 2.920e-8
-0.048, 2.917e-8
-0.049, 2.913e-8
-0.050, 2.880e-8
-0.051, 2.863e-8
-0.052, 2.871e-8
-0.053, 2.841e-8
-0.054, 2.816e-8
-0.055, 2.822e-8
-0.056, 2.807e-8
-0.057, 2.775e-8
-0.058, 2.775e-8
-0.059, 2.770e-8
-0.060, 2.743e-8
-0.061, 2.726e-8
-0.062, 2.736e-8
-0.063, 2.710e-8
-0.064, 2.687e-8
-0.065, 2.695e-8
-0.066, 2.682e-8
-0.067, 2.651e-8
-0.068, 2.655e-8
-0.069, 2.651e-8
-0.070, 2.623e-8
-0.071, 2.613e-8
-0.072, 2.621e-8
-0.073, 2.598e-8
-0.074, 2.577e-8
-0.075, 2.586e-8
-0.076, 2.577e-8
-0.077, 2.545e-8
-0.078, 2.551e-8
-0.079, 2.551e-8
-0.080, 2.523e-8
-0.081, 2.515e-8
-0.082, 2.525e-8
-0.083, 2.502e-8
-0.084, 2.485e-8
-0.085, 2.493e-8
-0.086, 2.485e-8
-0.087, 2.458e-8
-0.088, 2.463e-8
-0.089, 2.466e-8
-0.090, 2.439e-8
-0.091, 2.430e-8
-0.092, 2.445e-8
-0.093, 2.421e-8
-0.094, 2.404e-8
-0.095, 2.417e-8
-0.096, 2.407e-8
-0.097, 2.382e-8
-0.098, 2.389e-8
-0.099, 2.391e-8
-0.100, 2.369e-8
-0.101, 2.360e-8
-0.102, 2.376e-8
-0.103, 2.356e-8
-0.104, 2.338e-8
-0.105, 2.351e-8
-0.106, 2.345e-8
-0.107, 2.319e-8
-0.108, 2.330e-8
-0.109, 2.330e-8
-0.110, 2.308e-8
-0.111, 2.303e-8
-0.112, 2.318e-8
-0.113, 2.298e-8
-0.114, 2.284e-8
-0.115, 2.298e-8
-0.116, 2.293e-8
-0.117, 2.267e-8
-0.118, 2.276e-8
-0.119, 2.283e-8
-0.120, 2.259e-8
-0.121, 2.255e-8
-0.122, 2.271e-8
-0.123, 2.252e-8
-0.124, 2.240e-8
-0.125, 2.253e-8
-0.126, 2.249e-8
-0.127, 2.226e-8
-0.128, 2.237e-8
-0.129, 2.242e-8
-0.130, 2.220e-8
-0.131, 2.216e-8
-0.132, 2.236e-8
-0.133, 2.215e-8
-0.134, 2.202e-8
-0.135, 2.221e-8
-0.136, 2.214e-8
-0.137, 2.193e-8
-0.138, 2.204e-8
-0.139, 2.209e-8
-0.140, 2.191e-8
-0.141, 2.187e-8
-0.142, 2.204e-8
-0.143, 2.188e-8
-0.144, 2.175e-8
-0.145, 2.193e-8
-0.146, 2.189e-8
-0.147, 2.167e-8
-0.148, 2.181e-8
-0.149, 2.185e-8
-0.150, 2.166e-8
-0.151, 2.166e-8
-0.152, 2.183e-8
-0.153, 2.168e-8
-0.154, 2.157e-8
-0.155, 2.173e-8
-0.156, 2.173e-8
-0.157, 2.149e-8
-0.158, 2.163e-8
-0.159, 2.171e-8
-0.160, 2.151e-8
-0.161, 2.152e-8
-0.162, 2.170e-8
-0.163, 2.153e-8
-0.164, 2.146e-8
-0.165, 2.161e-8
-0.166, 2.161e-8
-0.167, 2.141e-8
-0.168, 2.154e-8
-0.169, 2.163e-8
-0.170, 2.144e-8
-0.171, 2.144e-8
-0.172, 2.165e-8
-0.173, 2.148e-8
-0.174, 2.139e-8
-0.175, 2.159e-8
-0.176, 2.157e-8
-0.177, 2.139e-8
-0.178, 2.153e-8
-0.179, 2.162e-8
-0.180, 2.146e-8
-0.181, 2.145e-8
-0.182, 2.165e-8
-0.183, 2.153e-8
-0.184, 2.142e-8
-0.185, 2.163e-8
-0.186, 2.161e-8
-0.187, 2.142e-8
-0.188, 2.161e-8
-0.189, 2.167e-8
-0.190, 2.151e-8
-0.191, 2.155e-8
-0.192, 2.174e-8
-0.193, 2.161e-8
-0.194, 2.153e-8
-0.195, 2.173e-8
-0.196, 2.175e-8
-0.197, 2.155e-8
-0.198, 2.172e-8
-0.199, 2.184e-8
