Mar. 16, 2023   10:17:12
Cyclic Voltammetry
File: c:/users/oliverrz/desktop/electrolab/data/2023_03_16\fcmeoh_macros_1_mm\electrode8_cv_50mvs_1_mm.bin
Data Source:  Experiment
Instrument Model:  CHI760E
Header: CV
Note: 

Init E (V) = -0.2
High E (V) = 0.3
Low E (V) = -0.2
Final E (V) = -0.2
Init P/N = P
Scan Rate (V/s) = 0.05
Segment = 3
Sample Interval (V) = 0.001
Quiet Time (sec) = 2
Sensitivity (A/V) = 1e-7

Results:

Channel 1:
Segment 1:
Ep = 0.129V
ip = -5.175e-8A
Ah = -6.679e-8C

Segment 2:
Ep = 0.058V
ip = 4.754e-8A
Ah = 6.103e-8C

Segment 3:

Potential/V, Current/A

-0.200, 3.828e-9
-0.199, 3.470e-9
-0.198, 3.372e-9
-0.197, 3.315e-9
-0.196, 3.263e-9
-0.195, 3.214e-9
-0.194, 3.164e-9
-0.193, 3.120e-9
-0.192, 3.084e-9
-0.191, 3.044e-9
-0.190, 3.002e-9
-0.189, 2.959e-9
-0.188, 2.920e-9
-0.187, 2.890e-9
-0.186, 2.852e-9
-0.185, 2.810e-9
-0.184, 2.776e-9
-0.183, 2.742e-9
-0.182, 2.712e-9
-0.181, 2.679e-9
-0.180, 2.641e-9
-0.179, 2.608e-9
-0.178, 2.577e-9
-0.177, 2.550e-9
-0.176, 2.521e-9
-0.175, 2.486e-9
-0.174, 2.455e-9
-0.173, 2.424e-9
-0.172, 2.398e-9
-0.171, 2.371e-9
-0.170, 2.336e-9
-0.169, 2.307e-9
-0.168, 2.286e-9
-0.167, 2.260e-9
-0.166, 2.237e-9
-0.165, 2.206e-9
-0.164, 2.176e-9
-0.163, 2.154e-9
-0.162, 2.128e-9
-0.161, 2.104e-9
-0.160, 2.077e-9
-0.159, 2.047e-9
-0.158, 2.028e-9
-0.157, 2.008e-9
-0.156, 1.984e-9
-0.155, 1.958e-9
-0.154, 1.930e-9
-0.153, 1.910e-9
-0.152, 1.891e-9
-0.151, 1.867e-9
-0.150, 1.842e-9
-0.149, 1.819e-9
-0.148, 1.800e-9
-0.147, 1.783e-9
-0.146, 1.762e-9
-0.145, 1.738e-9
-0.144, 1.719e-9
-0.143, 1.699e-9
-0.142, 1.683e-9
-0.141, 1.659e-9
-0.140, 1.636e-9
-0.139, 1.618e-9
-0.138, 1.600e-9
-0.137, 1.582e-9
-0.136, 1.566e-9
-0.135, 1.540e-9
-0.134, 1.522e-9
-0.133, 1.508e-9
-0.132, 1.491e-9
-0.131, 1.477e-9
-0.130, 1.453e-9
-0.129, 1.434e-9
-0.128, 1.420e-9
-0.127, 1.404e-9
-0.126, 1.389e-9
-0.125, 1.368e-9
-0.124, 1.347e-9
-0.123, 1.336e-9
-0.122, 1.321e-9
-0.121, 1.305e-9
-0.120, 1.287e-9
-0.119, 1.269e-9
-0.118, 1.258e-9
-0.117, 1.246e-9
-0.116, 1.229e-9
-0.115, 1.211e-9
-0.114, 1.193e-9
-0.113, 1.182e-9
-0.112, 1.170e-9
-0.111, 1.154e-9
-0.110, 1.137e-9
-0.109, 1.120e-9
-0.108, 1.106e-9
-0.107, 1.096e-9
-0.106, 1.080e-9
-0.105, 1.062e-9
-0.104, 1.045e-9
-0.103, 1.032e-9
-0.102, 1.018e-9
-0.101, 1.006e-9
-0.100, 9.890e-10
-0.099, 9.756e-10
-0.098, 9.621e-10
-0.097, 9.531e-10
-0.096, 9.382e-10
-0.095, 9.195e-10
-0.094, 9.044e-10
-0.093, 8.937e-10
-0.092, 8.798e-10
-0.091, 8.678e-10
-0.090, 8.466e-10
-0.089, 8.301e-10
-0.088, 8.218e-10
-0.087, 8.077e-10
-0.086, 7.952e-10
-0.085, 7.780e-10
-0.084, 7.604e-10
-0.083, 7.521e-10
-0.082, 7.378e-10
-0.081, 7.250e-10
-0.080, 7.089e-10
-0.079, 6.912e-10
-0.078, 6.807e-10
-0.077, 6.656e-10
-0.076, 6.495e-10
-0.075, 6.329e-10
-0.074, 6.119e-10
-0.073, 6.006e-10
-0.072, 5.854e-10
-0.071, 5.674e-10
-0.070, 5.483e-10
-0.069, 5.293e-10
-0.068, 5.146e-10
-0.067, 5.041e-10
-0.066, 4.863e-10
-0.065, 4.658e-10
-0.064, 4.471e-10
-0.063, 4.319e-10
-0.062, 4.188e-10
-0.061, 3.990e-10
-0.060, 3.764e-10
-0.059, 3.563e-10
-0.058, 3.397e-10
-0.057, 3.228e-10
-0.056, 3.040e-10
-0.055, 2.759e-10
-0.054, 2.568e-10
-0.053, 2.385e-10
-0.052, 2.178e-10
-0.051, 1.960e-10
-0.050, 1.695e-10
-0.049, 1.460e-10
-0.048, 1.272e-10
-0.047, 1.013e-10
-0.046, 7.917e-11
-0.045, 4.993e-11
-0.044, 2.050e-11
-0.043, 1.398e-12
-0.042, -2.715e-11
-0.041, -5.324e-11
-0.040, -8.435e-11
-0.039, -1.200e-10
-0.038, -1.453e-10
-0.037, -1.755e-10
-0.036, -2.118e-10
-0.035, -2.485e-10
-0.034, -2.840e-10
-0.033, -3.172e-10
-0.032, -3.498e-10
-0.031, -3.900e-10
-0.030, -4.313e-10
-0.029, -4.739e-10
-0.028, -5.105e-10
-0.027, -5.494e-10
-0.026, -5.988e-10
-0.025, -6.506e-10
-0.024, -6.955e-10
-0.023, -7.436e-10
-0.022, -7.913e-10
-0.021, -8.436e-10
-0.020, -9.024e-10
-0.019, -9.557e-10
-0.018, -1.011e-9
-0.017, -1.068e-9
-0.016, -1.127e-9
-0.015, -1.198e-9
-0.014, -1.262e-9
-0.013, -1.330e-9
-0.012, -1.397e-9
-0.011, -1.468e-9
-0.010, -1.549e-9
-0.009, -1.626e-9
-0.008, -1.705e-9
-0.007, -1.788e-9
-0.006, -1.871e-9
-0.005, -1.966e-9
-0.004, -2.061e-9
-0.003, -2.151e-9
-0.002, -2.249e-9
-0.001, -2.355e-9
-0.000, -2.489e-9
0.001, -2.600e-9
0.002, -2.698e-9
0.003, -2.812e-9
0.004, -2.933e-9
0.005, -3.064e-9
0.006, -3.197e-9
0.007, -3.330e-9
0.008, -3.460e-9
0.009, -3.606e-9
0.010, -3.755e-9
0.011, -3.913e-9
0.012, -4.072e-9
0.013, -4.235e-9
0.014, -4.410e-9
0.015, -4.590e-9
0.016, -4.772e-9
0.017, -4.959e-9
0.018, -5.150e-9
0.019, -5.355e-9
0.020, -5.570e-9
0.021, -5.783e-9
0.022, -6.011e-9
0.023, -6.233e-9
0.024, -6.470e-9
0.025, -6.728e-9
0.026, -6.985e-9
0.027, -7.245e-9
0.028, -7.520e-9
0.029, -7.793e-9
0.030, -8.087e-9
0.031, -8.380e-9
0.032, -8.682e-9
0.033, -9.002e-9
0.034, -9.317e-9
0.035, -9.657e-9
0.036, -1.000e-8
0.037, -1.034e-8
0.038, -1.072e-8
0.039, -1.109e-8
0.040, -1.148e-8
0.041, -1.187e-8
0.042, -1.226e-8
0.043, -1.269e-8
0.044, -1.311e-8
0.045, -1.354e-8
0.046, -1.400e-8
0.047, -1.445e-8
0.048, -1.492e-8
0.049, -1.542e-8
0.050, -1.591e-8
0.051, -1.642e-8
0.052, -1.694e-8
0.053, -1.745e-8
0.054, -1.800e-8
0.055, -1.854e-8
0.056, -1.909e-8
0.057, -1.967e-8
0.058, -2.023e-8
0.059, -2.083e-8
0.060, -2.143e-8
0.061, -2.203e-8
0.062, -2.265e-8
0.063, -2.327e-8
0.064, -2.393e-8
0.065, -2.457e-8
0.066, -2.521e-8
0.067, -2.587e-8
0.068, -2.654e-8
0.069, -2.720e-8
0.070, -2.788e-8
0.071, -2.856e-8
0.072, -2.924e-8
0.073, -2.994e-8
0.074, -3.062e-8
0.075, -3.133e-8
0.076, -3.203e-8
0.077, -3.272e-8
0.078, -3.344e-8
0.079, -3.412e-8
0.080, -3.481e-8
0.081, -3.550e-8
0.082, -3.618e-8
0.083, -3.687e-8
0.084, -3.755e-8
0.085, -3.822e-8
0.086, -3.891e-8
0.087, -3.955e-8
0.088, -4.020e-8
0.089, -4.087e-8
0.090, -4.150e-8
0.091, -4.214e-8
0.092, -4.274e-8
0.093, -4.332e-8
0.094, -4.393e-8
0.095, -4.450e-8
0.096, -4.506e-8
0.097, -4.561e-8
0.098, -4.613e-8
0.099, -4.665e-8
0.100, -4.717e-8
0.101, -4.764e-8
0.102, -4.812e-8
0.103, -4.858e-8
0.104, -4.901e-8
0.105, -4.944e-8
0.106, -4.981e-8
0.107, -5.020e-8
0.108, -5.056e-8
0.109, -5.087e-8
0.110, -5.122e-8
0.111, -5.152e-8
0.112, -5.179e-8
0.113, -5.206e-8
0.114, -5.230e-8
0.115, -5.255e-8
0.116, -5.276e-8
0.117, -5.294e-8
0.118, -5.313e-8
0.119, -5.328e-8
0.120, -5.342e-8
0.121, -5.356e-8
0.122, -5.365e-8
0.123, -5.375e-8
0.124, -5.383e-8
0.125, -5.388e-8
0.126, -5.395e-8
0.127, -5.397e-8
0.128, -5.401e-8
0.129, -5.403e-8
0.130, -5.401e-8
0.131, -5.400e-8
0.132, -5.397e-8
0.133, -5.392e-8
0.134, -5.388e-8
0.135, -5.381e-8
0.136, -5.374e-8
0.137, -5.367e-8
0.138, -5.357e-8
0.139, -5.347e-8
0.140, -5.337e-8
0.141, -5.328e-8
0.142, -5.316e-8
0.143, -5.303e-8
0.144, -5.290e-8
0.145, -5.277e-8
0.146, -5.261e-8
0.147, -5.247e-8
0.148, -5.232e-8
0.149, -5.216e-8
0.150, -5.201e-8
0.151, -5.185e-8
0.152, -5.168e-8
0.153, -5.152e-8
0.154, -5.135e-8
0.155, -5.118e-8
0.156, -5.100e-8
0.157, -5.082e-8
0.158, -5.065e-8
0.159, -5.047e-8
0.160, -5.030e-8
0.161, -5.012e-8
0.162, -4.993e-8
0.163, -4.976e-8
0.164, -4.958e-8
0.165, -4.940e-8
0.166, -4.922e-8
0.167, -4.904e-8
0.168, -4.885e-8
0.169, -4.868e-8
0.170, -4.849e-8
0.171, -4.831e-8
0.172, -4.813e-8
0.173, -4.795e-8
0.174, -4.778e-8
0.175, -4.761e-8
0.176, -4.744e-8
0.177, -4.727e-8
0.178, -4.709e-8
0.179, -4.693e-8
0.180, -4.676e-8
0.181, -4.658e-8
0.182, -4.642e-8
0.183, -4.625e-8
0.184, -4.609e-8
0.185, -4.593e-8
0.186, -4.577e-8
0.187, -4.561e-8
0.188, -4.546e-8
0.189, -4.530e-8
0.190, -4.514e-8
0.191, -4.500e-8
0.192, -4.484e-8
0.193, -4.470e-8
0.194, -4.455e-8
0.195, -4.442e-8
0.196, -4.428e-8
0.197, -4.414e-8
0.198, -4.400e-8
0.199, -4.387e-8
0.200, -4.374e-8
0.201, -4.361e-8
0.202, -4.347e-8
0.203, -4.334e-8
0.204, -4.322e-8
0.205, -4.310e-8
0.206, -4.298e-8
0.207, -4.285e-8
0.208, -4.273e-8
0.209, -4.261e-8
0.210, -4.249e-8
0.211, -4.238e-8
0.212, -4.227e-8
0.213, -4.216e-8
0.214, -4.205e-8
0.215, -4.195e-8
0.216, -4.183e-8
0.217, -4.173e-8
0.218, -4.162e-8
0.219, -4.152e-8
0.220, -4.143e-8
0.221, -4.133e-8
0.222, -4.123e-8
0.223, -4.114e-8
0.224, -4.104e-8
0.225, -4.095e-8
0.226, -4.085e-8
0.227, -4.076e-8
0.228, -4.068e-8
0.229, -4.059e-8
0.230, -4.051e-8
0.231, -4.042e-8
0.232, -4.034e-8
0.233, -4.025e-8
0.234, -4.017e-8
0.235, -4.009e-8
0.236, -4.001e-8
0.237, -3.993e-8
0.238, -3.986e-8
0.239, -3.979e-8
0.240, -3.971e-8
0.241, -3.963e-8
0.242, -3.955e-8
0.243, -3.948e-8
0.244, -3.941e-8
0.245, -3.934e-8
0.246, -3.927e-8
0.247, -3.920e-8
0.248, -3.913e-8
0.249, -3.908e-8
0.250, -3.901e-8
0.251, -3.894e-8
0.252, -3.888e-8
0.253, -3.881e-8
0.254, -3.875e-8
0.255, -3.869e-8
0.256, -3.863e-8
0.257, -3.857e-8
0.258, -3.851e-8
0.259, -3.846e-8
0.260, -3.841e-8
0.261, -3.835e-8
0.262, -3.830e-8
0.263, -3.824e-8
0.264, -3.819e-8
0.265, -3.813e-8
0.266, -3.808e-8
0.267, -3.803e-8
0.268, -3.797e-8
0.269, -3.792e-8
0.270, -3.788e-8
0.271, -3.783e-8
0.272, -3.778e-8
0.273, -3.774e-8
0.274, -3.769e-8
0.275, -3.765e-8
0.276, -3.761e-8
0.277, -3.756e-8
0.278, -3.752e-8
0.279, -3.747e-8
0.280, -3.743e-8
0.281, -3.739e-8
0.282, -3.735e-8
0.283, -3.731e-8
0.284, -3.728e-8
0.285, -3.724e-8
0.286, -3.720e-8
0.287, -3.716e-8
0.288, -3.712e-8
0.289, -3.709e-8
0.290, -3.706e-8
0.291, -3.702e-8
0.292, -3.698e-8
0.293, -3.695e-8
0.294, -3.692e-8
0.295, -3.690e-8
0.296, -3.686e-8
0.297, -3.682e-8
0.298, -3.679e-8
0.299, -3.677e-8
0.300, -3.646e-8
0.299, -3.569e-8
0.298, -3.544e-8
0.297, -3.530e-8
0.296, -3.518e-8
0.295, -3.508e-8
0.294, -3.498e-8
0.293, -3.489e-8
0.292, -3.480e-8
0.291, -3.471e-8
0.290, -3.463e-8
0.289, -3.455e-8
0.288, -3.447e-8
0.287, -3.440e-8
0.286, -3.434e-8
0.285, -3.427e-8
0.284, -3.420e-8
0.283, -3.413e-8
0.282, -3.407e-8
0.281, -3.401e-8
0.280, -3.395e-8
0.279, -3.388e-8
0.278, -3.382e-8
0.277, -3.376e-8
0.276, -3.371e-8
0.275, -3.365e-8
0.274, -3.359e-8
0.273, -3.354e-8
0.272, -3.348e-8
0.271, -3.343e-8
0.270, -3.337e-8
0.269, -3.331e-8
0.268, -3.326e-8
0.267, -3.320e-8
0.266, -3.315e-8
0.265, -3.310e-8
0.264, -3.304e-8
0.263, -3.299e-8
0.262, -3.294e-8
0.261, -3.289e-8
0.260, -3.284e-8
0.259, -3.279e-8
0.258, -3.274e-8
0.257, -3.269e-8
0.256, -3.264e-8
0.255, -3.259e-8
0.254, -3.255e-8
0.253, -3.250e-8
0.252, -3.245e-8
0.251, -3.240e-8
0.250, -3.235e-8
0.249, -3.231e-8
0.248, -3.225e-8
0.247, -3.220e-8
0.246, -3.216e-8
0.245, -3.211e-8
0.244, -3.206e-8
0.243, -3.201e-8
0.242, -3.195e-8
0.241, -3.191e-8
0.240, -3.187e-8
0.239, -3.181e-8
0.238, -3.176e-8
0.237, -3.171e-8
0.236, -3.167e-8
0.235, -3.162e-8
0.234, -3.157e-8
0.233, -3.152e-8
0.232, -3.146e-8
0.231, -3.142e-8
0.230, -3.137e-8
0.229, -3.131e-8
0.228, -3.125e-8
0.227, -3.120e-8
0.226, -3.115e-8
0.225, -3.110e-8
0.224, -3.103e-8
0.223, -3.097e-8
0.222, -3.091e-8
0.221, -3.085e-8
0.220, -3.080e-8
0.219, -3.074e-8
0.218, -3.067e-8
0.217, -3.061e-8
0.216, -3.055e-8
0.215, -3.048e-8
0.214, -3.041e-8
0.213, -3.034e-8
0.212, -3.027e-8
0.211, -3.020e-8
0.210, -3.013e-8
0.209, -3.006e-8
0.208, -2.998e-8
0.207, -2.991e-8
0.206, -2.983e-8
0.205, -2.975e-8
0.204, -2.967e-8
0.203, -2.958e-8
0.202, -2.949e-8
0.201, -2.941e-8
0.200, -2.933e-8
0.199, -2.923e-8
0.198, -2.913e-8
0.197, -2.903e-8
0.196, -2.893e-8
0.195, -2.883e-8
0.194, -2.872e-8
0.193, -2.861e-8
0.192, -2.850e-8
0.191, -2.839e-8
0.190, -2.828e-8
0.189, -2.815e-8
0.188, -2.803e-8
0.187, -2.790e-8
0.186, -2.777e-8
0.185, -2.765e-8
0.184, -2.750e-8
0.183, -2.736e-8
0.182, -2.721e-8
0.181, -2.706e-8
0.180, -2.691e-8
0.179, -2.674e-8
0.178, -2.656e-8
0.177, -2.640e-8
0.176, -2.623e-8
0.175, -2.605e-8
0.174, -2.586e-8
0.173, -2.567e-8
0.172, -2.547e-8
0.171, -2.527e-8
0.170, -2.506e-8
0.169, -2.484e-8
0.168, -2.461e-8
0.167, -2.438e-8
0.166, -2.415e-8
0.165, -2.390e-8
0.164, -2.365e-8
0.163, -2.340e-8
0.162, -2.313e-8
0.161, -2.285e-8
0.160, -2.257e-8
0.159, -2.228e-8
0.158, -2.198e-8
0.157, -2.166e-8
0.156, -2.135e-8
0.155, -2.103e-8
0.154, -2.069e-8
0.153, -2.035e-8
0.152, -2.000e-8
0.151, -1.964e-8
0.150, -1.929e-8
0.149, -1.890e-8
0.148, -1.851e-8
0.147, -1.811e-8
0.146, -1.770e-8
0.145, -1.729e-8
0.144, -1.685e-8
0.143, -1.640e-8
0.142, -1.595e-8
0.141, -1.548e-8
0.140, -1.499e-8
0.139, -1.451e-8
0.138, -1.400e-8
0.137, -1.351e-8
0.136, -1.298e-8
0.135, -1.245e-8
0.134, -1.191e-8
0.133, -1.136e-8
0.132, -1.080e-8
0.131, -1.024e-8
0.130, -9.645e-9
0.129, -9.057e-9
0.128, -8.446e-9
0.127, -7.828e-9
0.126, -7.219e-9
0.125, -6.574e-9
0.124, -5.945e-9
0.123, -5.298e-9
0.122, -4.637e-9
0.121, -3.997e-9
0.120, -3.331e-9
0.119, -2.649e-9
0.118, -1.983e-9
0.117, -1.286e-9
0.116, -6.186e-10
0.115, 8.646e-11
0.114, 7.947e-10
0.113, 1.477e-9
0.112, 2.183e-9
0.111, 2.890e-9
0.110, 3.569e-9
0.109, 4.281e-9
0.108, 4.962e-9
0.107, 5.660e-9
0.106, 6.359e-9
0.105, 7.027e-9
0.104, 7.736e-9
0.103, 8.428e-9
0.102, 9.110e-9
0.101, 9.769e-9
0.100, 1.041e-8
0.099, 1.107e-8
0.098, 1.171e-8
0.097, 1.232e-8
0.096, 1.294e-8
0.095, 1.354e-8
0.094, 1.413e-8
0.093, 1.472e-8
0.092, 1.527e-8
0.091, 1.583e-8
0.090, 1.639e-8
0.089, 1.691e-8
0.088, 1.743e-8
0.087, 1.792e-8
0.086, 1.838e-8
0.085, 1.884e-8
0.084, 1.929e-8
0.083, 1.970e-8
0.082, 2.011e-8
0.081, 2.048e-8
0.080, 2.086e-8
0.079, 2.122e-8
0.078, 2.155e-8
0.077, 2.187e-8
0.076, 2.217e-8
0.075, 2.244e-8
0.074, 2.271e-8
0.073, 2.294e-8
0.072, 2.317e-8
0.071, 2.338e-8
0.070, 2.355e-8
0.069, 2.375e-8
0.068, 2.390e-8
0.067, 2.403e-8
0.066, 2.416e-8
0.065, 2.427e-8
0.064, 2.437e-8
0.063, 2.445e-8
0.062, 2.451e-8
0.061, 2.456e-8
0.060, 2.459e-8
0.059, 2.461e-8
0.058, 2.464e-8
0.057, 2.462e-8
0.056, 2.462e-8
0.055, 2.459e-8
0.054, 2.455e-8
0.053, 2.452e-8
0.052, 2.447e-8
0.051, 2.441e-8
0.050, 2.434e-8
0.049, 2.424e-8
0.048, 2.416e-8
0.047, 2.406e-8
0.046, 2.396e-8
0.045, 2.385e-8
0.044, 2.373e-8
0.043, 2.361e-8
0.042, 2.349e-8
0.041, 2.334e-8
0.040, 2.321e-8
0.039, 2.309e-8
0.038, 2.294e-8
0.037, 2.279e-8
0.036, 2.264e-8
0.035, 2.248e-8
0.034, 2.233e-8
0.033, 2.217e-8
0.032, 2.201e-8
0.031, 2.184e-8
0.030, 2.167e-8
0.029, 2.151e-8
0.028, 2.135e-8
0.027, 2.118e-8
0.026, 2.102e-8
0.025, 2.084e-8
0.024, 2.068e-8
0.023, 2.051e-8
0.022, 2.034e-8
0.021, 2.017e-8
0.020, 2.000e-8
0.019, 1.983e-8
0.018, 1.967e-8
0.017, 1.950e-8
0.016, 1.933e-8
0.015, 1.916e-8
0.014, 1.900e-8
0.013, 1.884e-8
0.012, 1.868e-8
0.011, 1.852e-8
0.010, 1.836e-8
0.009, 1.820e-8
0.008, 1.805e-8
0.007, 1.789e-8
0.006, 1.773e-8
0.005, 1.758e-8
0.004, 1.743e-8
0.003, 1.728e-8
0.002, 1.713e-8
0.001, 1.698e-8
0.000, 1.686e-8
-0.001, 1.672e-8
-0.002, 1.657e-8
-0.003, 1.643e-8
-0.004, 1.628e-8
-0.005, 1.614e-8
-0.006, 1.601e-8
-0.007, 1.588e-8
-0.008, 1.574e-8
-0.009, 1.561e-8
-0.010, 1.547e-8
-0.011, 1.536e-8
-0.012, 1.523e-8
-0.013, 1.511e-8
-0.014, 1.499e-8
-0.015, 1.487e-8
-0.016, 1.475e-8
-0.017, 1.464e-8
-0.018, 1.452e-8
-0.019, 1.441e-8
-0.020, 1.430e-8
-0.021, 1.419e-8
-0.022, 1.409e-8
-0.023, 1.398e-8
-0.024, 1.387e-8
-0.025, 1.377e-8
-0.026, 1.367e-8
-0.027, 1.357e-8
-0.028, 1.347e-8
-0.029, 1.337e-8
-0.030, 1.328e-8
-0.031, 1.319e-8
-0.032, 1.310e-8
-0.033, 1.301e-8
-0.034, 1.292e-8
-0.035, 1.284e-8
-0.036, 1.275e-8
-0.037, 1.266e-8
-0.038, 1.258e-8
-0.039, 1.249e-8
-0.040, 1.241e-8
-0.041, 1.233e-8
-0.042, 1.226e-8
-0.043, 1.218e-8
-0.044, 1.210e-8
-0.045, 1.203e-8
-0.046, 1.196e-8
-0.047, 1.189e-8
-0.048, 1.182e-8
-0.049, 1.174e-8
-0.050, 1.167e-8
-0.051, 1.161e-8
-0.052, 1.154e-8
-0.053, 1.147e-8
-0.054, 1.141e-8
-0.055, 1.135e-8
-0.056, 1.129e-8
-0.057, 1.123e-8
-0.058, 1.116e-8
-0.059, 1.110e-8
-0.060, 1.104e-8
-0.061, 1.098e-8
-0.062, 1.093e-8
-0.063, 1.087e-8
-0.064, 1.082e-8
-0.065, 1.077e-8
-0.066, 1.071e-8
-0.067, 1.066e-8
-0.068, 1.061e-8
-0.069, 1.055e-8
-0.070, 1.050e-8
-0.071, 1.046e-8
-0.072, 1.041e-8
-0.073, 1.036e-8
-0.074, 1.031e-8
-0.075, 1.026e-8
-0.076, 1.022e-8
-0.077, 1.018e-8
-0.078, 1.014e-8
-0.079, 1.009e-8
-0.080, 1.005e-8
-0.081, 1.001e-8
-0.082, 9.965e-9
-0.083, 9.924e-9
-0.084, 9.880e-9
-0.085, 9.840e-9
-0.086, 9.807e-9
-0.087, 9.768e-9
-0.088, 9.730e-9
-0.089, 9.693e-9
-0.090, 9.656e-9
-0.091, 9.624e-9
-0.092, 9.592e-9
-0.093, 9.556e-9
-0.094, 9.524e-9
-0.095, 9.490e-9
-0.096, 9.460e-9
-0.097, 9.431e-9
-0.098, 9.396e-9
-0.099, 9.365e-9
-0.100, 9.335e-9
-0.101, 9.306e-9
-0.102, 9.282e-9
-0.103, 9.254e-9
-0.104, 9.221e-9
-0.105, 9.197e-9
-0.106, 9.172e-9
-0.107, 9.146e-9
-0.108, 9.118e-9
-0.109, 9.088e-9
-0.110, 9.070e-9
-0.111, 9.048e-9
-0.112, 9.026e-9
-0.113, 9.004e-9
-0.114, 8.976e-9
-0.115, 8.954e-9
-0.116, 8.936e-9
-0.117, 8.918e-9
-0.118, 8.895e-9
-0.119, 8.870e-9
-0.120, 8.854e-9
-0.121, 8.839e-9
-0.122, 8.820e-9
-0.123, 8.802e-9
-0.124, 8.779e-9
-0.125, 8.758e-9
-0.126, 8.748e-9
-0.127, 8.729e-9
-0.128, 8.717e-9
-0.129, 8.698e-9
-0.130, 8.676e-9
-0.131, 8.664e-9
-0.132, 8.651e-9
-0.133, 8.635e-9
-0.134, 8.621e-9
-0.135, 8.604e-9
-0.136, 8.600e-9
-0.137, 8.592e-9
-0.138, 8.574e-9
-0.139, 8.565e-9
-0.140, 8.553e-9
-0.141, 8.547e-9
-0.142, 8.539e-9
-0.143, 8.525e-9
-0.144, 8.513e-9
-0.145, 8.504e-9
-0.146, 8.499e-9
-0.147, 8.491e-9
-0.148, 8.477e-9
-0.149, 8.464e-9
-0.150, 8.462e-9
-0.151, 8.458e-9
-0.152, 8.456e-9
-0.153, 8.447e-9
-0.154, 8.436e-9
-0.155, 8.434e-9
-0.156, 8.432e-9
-0.157, 8.429e-9
-0.158, 8.427e-9
-0.159, 8.422e-9
-0.160, 8.424e-9
-0.161, 8.426e-9
-0.162, 8.422e-9
-0.163, 8.421e-9
-0.164, 8.418e-9
-0.165, 8.418e-9
-0.166, 8.425e-9
-0.167, 8.425e-9
-0.168, 8.424e-9
-0.169, 8.425e-9
-0.170, 8.425e-9
-0.171, 8.430e-9
-0.172, 8.433e-9
-0.173, 8.434e-9
-0.174, 8.436e-9
-0.175, 8.442e-9
-0.176, 8.449e-9
-0.177, 8.456e-9
-0.178, 8.455e-9
-0.179, 8.460e-9
-0.180, 8.469e-9
-0.181, 8.481e-9
-0.182, 8.501e-9
-0.183, 8.507e-9
-0.184, 8.509e-9
-0.185, 8.519e-9
-0.186, 8.528e-9
-0.187, 8.544e-9
-0.188, 8.554e-9
-0.189, 8.563e-9
-0.190, 8.578e-9
-0.191, 8.589e-9
-0.192, 8.601e-9
-0.193, 8.617e-9
-0.194, 8.622e-9
-0.195, 8.637e-9
-0.196, 8.657e-9
-0.197, 8.672e-9
-0.198, 8.688e-9
-0.199, 8.699e-9
