Mar. 16, 2023   10:15:22
Cyclic Voltammetry
File: c:/users/oliverrz/desktop/electrolab/data/2023_03_16\fcmeoh_macros_1_mm\electrode6_cv_250mvs_1_mm.bin
Data Source:  Experiment
Instrument Model:  CHI760E
Header: CV
Note: 

Init E (V) = -0.2
High E (V) = 0.3
Low E (V) = -0.2
Final E (V) = -0.2
Init P/N = P
Scan Rate (V/s) = 0.25
Segment = 3
Sample Interval (V) = 0.001
Quiet Time (sec) = 2
Sensitivity (A/V) = 1e-7

Results:

Channel 1:
Segment 1:
Ep = 0.123V
ip = -1.035e-7A
Ah = -2.558e-8C

Segment 2:
Ep = 0.063V
ip = 9.648e-8A
Ah = 2.311e-8C

Segment 3:

Potential/V, Current/A

-0.200, 1.188e-8
-0.199, 9.852e-9
-0.198, 9.421e-9
-0.197, 9.267e-9
-0.196, 9.083e-9
-0.195, 8.867e-9
-0.194, 8.590e-9
-0.193, 8.436e-9
-0.192, 8.436e-9
-0.191, 8.160e-9
-0.190, 7.975e-9
-0.189, 7.852e-9
-0.188, 7.790e-9
-0.187, 7.667e-9
-0.186, 7.421e-9
-0.185, 7.267e-9
-0.184, 7.298e-9
-0.183, 7.114e-9
-0.182, 6.929e-9
-0.181, 6.775e-9
-0.180, 6.744e-9
-0.179, 6.652e-9
-0.178, 6.467e-9
-0.177, 6.283e-9
-0.176, 6.283e-9
-0.175, 6.191e-9
-0.174, 6.006e-9
-0.173, 5.852e-9
-0.172, 5.791e-9
-0.171, 5.760e-9
-0.170, 5.606e-9
-0.169, 5.391e-9
-0.168, 5.360e-9
-0.167, 5.329e-9
-0.166, 5.175e-9
-0.165, 5.022e-9
-0.164, 4.898e-9
-0.163, 4.960e-9
-0.162, 4.837e-9
-0.161, 4.591e-9
-0.160, 4.529e-9
-0.159, 4.529e-9
-0.158, 4.437e-9
-0.157, 4.283e-9
-0.156, 4.129e-9
-0.155, 4.160e-9
-0.154, 4.068e-9
-0.153, 3.914e-9
-0.152, 3.822e-9
-0.151, 3.760e-9
-0.150, 3.729e-9
-0.149, 3.606e-9
-0.148, 3.422e-9
-0.147, 3.453e-9
-0.146, 3.422e-9
-0.145, 3.268e-9
-0.144, 3.114e-9
-0.143, 3.053e-9
-0.142, 3.083e-9
-0.141, 2.960e-9
-0.140, 2.776e-9
-0.139, 2.745e-9
-0.138, 2.806e-9
-0.137, 2.653e-9
-0.136, 2.530e-9
-0.135, 2.406e-9
-0.134, 2.468e-9
-0.133, 2.406e-9
-0.132, 2.222e-9
-0.131, 2.160e-9
-0.130, 2.191e-9
-0.129, 2.099e-9
-0.128, 1.976e-9
-0.127, 1.822e-9
-0.126, 1.883e-9
-0.125, 1.883e-9
-0.124, 1.699e-9
-0.123, 1.607e-9
-0.122, 1.607e-9
-0.121, 1.576e-9
-0.120, 1.514e-9
-0.119, 1.330e-9
-0.118, 1.299e-9
-0.117, 1.360e-9
-0.116, 1.207e-9
-0.115, 1.114e-9
-0.114, 1.053e-9
-0.113, 1.084e-9
-0.112, 1.022e-9
-0.111, 8.682e-10
-0.110, 8.067e-10
-0.109, 8.682e-10
-0.108, 7.759e-10
-0.107, 6.529e-10
-0.106, 5.606e-10
-0.105, 5.913e-10
-0.104, 5.606e-10
-0.103, 4.375e-10
-0.102, 3.145e-10
-0.101, 3.760e-10
-0.100, 3.452e-10
-0.099, 2.222e-10
-0.098, 1.299e-10
-0.097, 9.911e-11
-0.096, 1.606e-10
-0.095, 6.813e-12
-0.094, -1.162e-10
-0.093, -8.548e-11
-0.092, -8.548e-11
-0.091, -1.470e-10
-0.090, -3.008e-10
-0.089, -3.624e-10
-0.088, -2.701e-10
-0.087, -3.624e-10
-0.086, -5.162e-10
-0.085, -5.470e-10
-0.084, -5.162e-10
-0.083, -5.162e-10
-0.082, -6.700e-10
-0.081, -7.931e-10
-0.080, -7.008e-10
-0.079, -7.623e-10
-0.078, -8.854e-10
-0.077, -9.777e-10
-0.076, -9.469e-10
-0.075, -9.469e-10
-0.074, -1.070e-9
-0.073, -1.193e-9
-0.072, -1.162e-9
-0.071, -1.162e-9
-0.070, -1.255e-9
-0.069, -1.408e-9
-0.068, -1.408e-9
-0.067, -1.347e-9
-0.066, -1.439e-9
-0.065, -1.624e-9
-0.064, -1.655e-9
-0.063, -1.593e-9
-0.062, -1.685e-9
-0.061, -1.778e-9
-0.060, -1.901e-9
-0.059, -1.839e-9
-0.058, -1.870e-9
-0.057, -2.054e-9
-0.056, -2.116e-9
-0.055, -2.054e-9
-0.054, -2.116e-9
-0.053, -2.239e-9
-0.052, -2.393e-9
-0.051, -2.331e-9
-0.050, -2.362e-9
-0.049, -2.516e-9
-0.048, -2.608e-9
-0.047, -2.639e-9
-0.046, -2.608e-9
-0.045, -2.731e-9
-0.044, -2.947e-9
-0.043, -2.947e-9
-0.042, -2.916e-9
-0.041, -3.070e-9
-0.040, -3.193e-9
-0.039, -3.316e-9
-0.038, -3.254e-9
-0.037, -3.347e-9
-0.036, -3.531e-9
-0.035, -3.623e-9
-0.034, -3.623e-9
-0.033, -3.716e-9
-0.032, -3.870e-9
-0.031, -4.023e-9
-0.030, -4.023e-9
-0.029, -4.085e-9
-0.028, -4.300e-9
-0.027, -4.423e-9
-0.026, -4.485e-9
-0.025, -4.546e-9
-0.024, -4.731e-9
-0.023, -4.946e-9
-0.022, -4.977e-9
-0.021, -5.039e-9
-0.020, -5.254e-9
-0.019, -5.439e-9
-0.018, -5.531e-9
-0.017, -5.623e-9
-0.016, -5.777e-9
-0.015, -6.054e-9
-0.014, -6.208e-9
-0.013, -6.239e-9
-0.012, -6.485e-9
-0.011, -6.700e-9
-0.010, -6.885e-9
-0.009, -7.008e-9
-0.008, -7.161e-9
-0.007, -7.500e-9
-0.006, -7.715e-9
-0.005, -7.808e-9
-0.004, -8.084e-9
-0.003, -8.331e-9
-0.002, -8.638e-9
-0.001, -8.823e-9
-0.000, -9.161e-9
0.001, -9.407e-9
0.002, -9.684e-9
0.003, -9.900e-9
0.004, -1.018e-8
0.005, -1.045e-8
0.006, -1.085e-8
0.007, -1.119e-8
0.008, -1.138e-8
0.009, -1.181e-8
0.010, -1.221e-8
0.011, -1.255e-8
0.012, -1.285e-8
0.013, -1.325e-8
0.014, -1.375e-8
0.015, -1.418e-8
0.016, -1.445e-8
0.017, -1.495e-8
0.018, -1.550e-8
0.019, -1.593e-8
0.020, -1.639e-8
0.021, -1.685e-8
0.022, -1.744e-8
0.023, -1.802e-8
0.024, -1.845e-8
0.025, -1.907e-8
0.026, -1.971e-8
0.027, -2.033e-8
0.028, -2.094e-8
0.029, -2.144e-8
0.030, -2.221e-8
0.031, -2.294e-8
0.032, -2.359e-8
0.033, -2.427e-8
0.034, -2.507e-8
0.035, -2.584e-8
0.036, -2.667e-8
0.037, -2.734e-8
0.038, -2.820e-8
0.039, -2.913e-8
0.040, -2.999e-8
0.041, -3.085e-8
0.042, -3.174e-8
0.043, -3.276e-8
0.044, -3.377e-8
0.045, -3.457e-8
0.046, -3.562e-8
0.047, -3.676e-8
0.048, -3.774e-8
0.049, -3.885e-8
0.050, -3.993e-8
0.051, -4.110e-8
0.052, -4.233e-8
0.053, -4.337e-8
0.054, -4.454e-8
0.055, -4.583e-8
0.056, -4.706e-8
0.057, -4.836e-8
0.058, -4.956e-8
0.059, -5.085e-8
0.060, -5.223e-8
0.061, -5.352e-8
0.062, -5.479e-8
0.063, -5.626e-8
0.064, -5.762e-8
0.065, -5.909e-8
0.066, -6.039e-8
0.067, -6.180e-8
0.068, -6.334e-8
0.069, -6.469e-8
0.070, -6.614e-8
0.071, -6.761e-8
0.072, -6.906e-8
0.073, -7.063e-8
0.074, -7.195e-8
0.075, -7.340e-8
0.076, -7.497e-8
0.077, -7.644e-8
0.078, -7.792e-8
0.079, -7.931e-8
0.080, -8.072e-8
0.081, -8.223e-8
0.082, -8.361e-8
0.083, -8.487e-8
0.084, -8.647e-8
0.085, -8.774e-8
0.086, -8.912e-8
0.087, -9.041e-8
0.088, -9.170e-8
0.089, -9.312e-8
0.090, -9.432e-8
0.091, -9.543e-8
0.092, -9.678e-8
0.093, -9.783e-8
0.094, -9.903e-8
0.095, -1.001e-7
0.096, -1.011e-7
0.097, -1.023e-7
0.098, -1.032e-7
0.099, -1.041e-7
0.100, -1.051e-7
0.101, -1.059e-7
0.102, -1.069e-7
0.103, -1.077e-7
0.104, -1.083e-7
0.105, -1.092e-7
0.106, -1.097e-7
0.107, -1.104e-7
0.108, -1.110e-7
0.109, -1.114e-7
0.110, -1.120e-7
0.111, -1.124e-7
0.112, -1.127e-7
0.113, -1.132e-7
0.114, -1.135e-7
0.115, -1.139e-7
0.116, -1.140e-7
0.117, -1.143e-7
0.118, -1.144e-7
0.119, -1.146e-7
0.120, -1.146e-7
0.121, -1.147e-7
0.122, -1.147e-7
0.123, -1.148e-7
0.124, -1.147e-7
0.125, -1.146e-7
0.126, -1.146e-7
0.127, -1.145e-7
0.128, -1.142e-7
0.129, -1.140e-7
0.130, -1.139e-7
0.131, -1.136e-7
0.132, -1.134e-7
0.133, -1.130e-7
0.134, -1.127e-7
0.135, -1.125e-7
0.136, -1.121e-7
0.137, -1.117e-7
0.138, -1.114e-7
0.139, -1.109e-7
0.140, -1.106e-7
0.141, -1.100e-7
0.142, -1.097e-7
0.143, -1.092e-7
0.144, -1.088e-7
0.145, -1.083e-7
0.146, -1.077e-7
0.147, -1.073e-7
0.148, -1.069e-7
0.149, -1.063e-7
0.150, -1.058e-7
0.151, -1.053e-7
0.152, -1.048e-7
0.153, -1.043e-7
0.154, -1.037e-7
0.155, -1.032e-7
0.156, -1.028e-7
0.157, -1.022e-7
0.158, -1.016e-7
0.159, -1.011e-7
0.160, -1.006e-7
0.161, -1.001e-7
0.162, -9.946e-8
0.163, -9.896e-8
0.164, -9.850e-8
0.165, -9.798e-8
0.166, -9.736e-8
0.167, -9.687e-8
0.168, -9.641e-8
0.169, -9.592e-8
0.170, -9.533e-8
0.171, -9.478e-8
0.172, -9.438e-8
0.173, -9.389e-8
0.174, -9.337e-8
0.175, -9.284e-8
0.176, -9.235e-8
0.177, -9.198e-8
0.178, -9.146e-8
0.179, -9.090e-8
0.180, -9.053e-8
0.181, -9.010e-8
0.182, -8.961e-8
0.183, -8.909e-8
0.184, -8.866e-8
0.185, -8.835e-8
0.186, -8.786e-8
0.187, -8.730e-8
0.188, -8.697e-8
0.189, -8.657e-8
0.190, -8.620e-8
0.191, -8.567e-8
0.192, -8.524e-8
0.193, -8.497e-8
0.194, -8.460e-8
0.195, -8.410e-8
0.196, -8.374e-8
0.197, -8.337e-8
0.198, -8.306e-8
0.199, -8.263e-8
0.200, -8.220e-8
0.201, -8.192e-8
0.202, -8.164e-8
0.203, -8.124e-8
0.204, -8.084e-8
0.205, -8.054e-8
0.206, -8.029e-8
0.207, -7.992e-8
0.208, -7.949e-8
0.209, -7.921e-8
0.210, -7.900e-8
0.211, -7.866e-8
0.212, -7.826e-8
0.213, -7.795e-8
0.214, -7.774e-8
0.215, -7.746e-8
0.216, -7.706e-8
0.217, -7.678e-8
0.218, -7.660e-8
0.219, -7.632e-8
0.220, -7.601e-8
0.221, -7.568e-8
0.222, -7.546e-8
0.223, -7.531e-8
0.224, -7.494e-8
0.225, -7.463e-8
0.226, -7.444e-8
0.227, -7.426e-8
0.228, -7.401e-8
0.229, -7.364e-8
0.230, -7.346e-8
0.231, -7.337e-8
0.232, -7.303e-8
0.233, -7.275e-8
0.234, -7.257e-8
0.235, -7.241e-8
0.236, -7.220e-8
0.237, -7.186e-8
0.238, -7.171e-8
0.239, -7.158e-8
0.240, -7.134e-8
0.241, -7.106e-8
0.242, -7.088e-8
0.243, -7.075e-8
0.244, -7.060e-8
0.245, -7.029e-8
0.246, -7.008e-8
0.247, -6.998e-8
0.248, -6.983e-8
0.249, -6.958e-8
0.250, -6.937e-8
0.251, -6.921e-8
0.252, -6.915e-8
0.253, -6.891e-8
0.254, -6.866e-8
0.255, -6.854e-8
0.256, -6.845e-8
0.257, -6.829e-8
0.258, -6.801e-8
0.259, -6.789e-8
0.260, -6.786e-8
0.261, -6.768e-8
0.262, -6.740e-8
0.263, -6.731e-8
0.264, -6.718e-8
0.265, -6.712e-8
0.266, -6.685e-8
0.267, -6.669e-8
0.268, -6.666e-8
0.269, -6.657e-8
0.270, -6.632e-8
0.271, -6.617e-8
0.272, -6.611e-8
0.273, -6.605e-8
0.274, -6.583e-8
0.275, -6.565e-8
0.276, -6.558e-8
0.277, -6.555e-8
0.278, -6.537e-8
0.279, -6.518e-8
0.280, -6.506e-8
0.281, -6.509e-8
0.282, -6.494e-8
0.283, -6.472e-8
0.284, -6.466e-8
0.285, -6.463e-8
0.286, -6.451e-8
0.287, -6.429e-8
0.288, -6.420e-8
0.289, -6.423e-8
0.290, -6.411e-8
0.291, -6.389e-8
0.292, -6.383e-8
0.293, -6.380e-8
0.294, -6.371e-8
0.295, -6.355e-8
0.296, -6.340e-8
0.297, -6.340e-8
0.298, -6.337e-8
0.299, -6.318e-8
0.300, -6.011e-8
0.299, -5.614e-8
0.298, -5.546e-8
0.297, -5.494e-8
0.296, -5.445e-8
0.295, -5.417e-8
0.294, -5.396e-8
0.293, -5.365e-8
0.292, -5.325e-8
0.291, -5.309e-8
0.290, -5.291e-8
0.289, -5.266e-8
0.288, -5.239e-8
0.287, -5.217e-8
0.286, -5.208e-8
0.285, -5.189e-8
0.284, -5.156e-8
0.283, -5.140e-8
0.282, -5.128e-8
0.281, -5.116e-8
0.280, -5.094e-8
0.279, -5.069e-8
0.278, -5.063e-8
0.277, -5.054e-8
0.276, -5.029e-8
0.275, -5.011e-8
0.274, -4.999e-8
0.273, -4.992e-8
0.272, -4.974e-8
0.271, -4.949e-8
0.270, -4.943e-8
0.269, -4.934e-8
0.268, -4.919e-8
0.267, -4.894e-8
0.266, -4.885e-8
0.265, -4.882e-8
0.264, -4.869e-8
0.263, -4.842e-8
0.262, -4.836e-8
0.261, -4.829e-8
0.260, -4.817e-8
0.259, -4.799e-8
0.258, -4.783e-8
0.257, -4.774e-8
0.256, -4.771e-8
0.255, -4.746e-8
0.254, -4.731e-8
0.253, -4.728e-8
0.252, -4.719e-8
0.251, -4.703e-8
0.250, -4.682e-8
0.249, -4.679e-8
0.248, -4.676e-8
0.247, -4.654e-8
0.246, -4.636e-8
0.245, -4.629e-8
0.244, -4.623e-8
0.243, -4.611e-8
0.242, -4.589e-8
0.241, -4.580e-8
0.240, -4.580e-8
0.239, -4.565e-8
0.238, -4.540e-8
0.237, -4.534e-8
0.236, -4.528e-8
0.235, -4.522e-8
0.234, -4.494e-8
0.233, -4.482e-8
0.232, -4.479e-8
0.231, -4.469e-8
0.230, -4.451e-8
0.229, -4.433e-8
0.228, -4.426e-8
0.227, -4.420e-8
0.226, -4.399e-8
0.225, -4.383e-8
0.224, -4.374e-8
0.223, -4.368e-8
0.222, -4.350e-8
0.221, -4.328e-8
0.220, -4.319e-8
0.219, -4.316e-8
0.218, -4.294e-8
0.217, -4.270e-8
0.216, -4.263e-8
0.215, -4.254e-8
0.214, -4.242e-8
0.213, -4.214e-8
0.212, -4.196e-8
0.211, -4.193e-8
0.210, -4.177e-8
0.209, -4.146e-8
0.208, -4.137e-8
0.207, -4.122e-8
0.206, -4.110e-8
0.205, -4.085e-8
0.204, -4.060e-8
0.203, -4.051e-8
0.202, -4.036e-8
0.201, -4.008e-8
0.200, -3.986e-8
0.199, -3.965e-8
0.198, -3.959e-8
0.197, -3.928e-8
0.196, -3.897e-8
0.195, -3.885e-8
0.194, -3.863e-8
0.193, -3.839e-8
0.192, -3.805e-8
0.191, -3.780e-8
0.190, -3.768e-8
0.189, -3.740e-8
0.188, -3.700e-8
0.187, -3.679e-8
0.186, -3.654e-8
0.185, -3.630e-8
0.184, -3.590e-8
0.183, -3.556e-8
0.182, -3.531e-8
0.181, -3.503e-8
0.180, -3.463e-8
0.179, -3.420e-8
0.178, -3.396e-8
0.177, -3.362e-8
0.176, -3.319e-8
0.175, -3.273e-8
0.174, -3.239e-8
0.173, -3.205e-8
0.172, -3.156e-8
0.171, -3.110e-8
0.170, -3.067e-8
0.169, -3.024e-8
0.168, -2.980e-8
0.167, -2.916e-8
0.166, -2.873e-8
0.165, -2.827e-8
0.164, -2.768e-8
0.163, -2.713e-8
0.162, -2.651e-8
0.161, -2.599e-8
0.160, -2.550e-8
0.159, -2.470e-8
0.158, -2.411e-8
0.157, -2.353e-8
0.156, -2.282e-8
0.155, -2.214e-8
0.154, -2.128e-8
0.153, -2.067e-8
0.152, -1.999e-8
0.151, -1.910e-8
0.150, -1.833e-8
0.149, -1.756e-8
0.148, -1.676e-8
0.147, -1.596e-8
0.146, -1.488e-8
0.145, -1.411e-8
0.144, -1.325e-8
0.143, -1.224e-8
0.142, -1.125e-8
0.141, -1.030e-8
0.140, -9.284e-9
0.139, -8.331e-9
0.138, -7.131e-9
0.137, -6.115e-9
0.136, -5.039e-9
0.135, -3.931e-9
0.134, -2.731e-9
0.133, -1.562e-9
0.132, -3.931e-10
0.131, 7.452e-10
0.130, 2.068e-9
0.129, 3.360e-9
0.128, 4.591e-9
0.127, 5.883e-9
0.126, 7.114e-9
0.125, 8.560e-9
0.124, 9.882e-9
0.123, 1.117e-8
0.122, 1.259e-8
0.121, 1.404e-8
0.120, 1.533e-8
0.119, 1.684e-8
0.118, 1.819e-8
0.117, 1.973e-8
0.116, 2.114e-8
0.115, 2.256e-8
0.114, 2.407e-8
0.113, 2.557e-8
0.112, 2.699e-8
0.111, 2.850e-8
0.110, 2.985e-8
0.109, 3.145e-8
0.108, 3.293e-8
0.107, 3.425e-8
0.106, 3.579e-8
0.105, 3.729e-8
0.104, 3.868e-8
0.103, 4.022e-8
0.102, 4.154e-8
0.101, 4.299e-8
0.100, 4.437e-8
0.099, 4.557e-8
0.098, 4.702e-8
0.097, 4.828e-8
0.096, 4.963e-8
0.095, 5.083e-8
0.094, 5.197e-8
0.093, 5.329e-8
0.092, 5.452e-8
0.091, 5.551e-8
0.090, 5.677e-8
0.089, 5.781e-8
0.088, 5.886e-8
0.087, 5.988e-8
0.086, 6.071e-8
0.085, 6.169e-8
0.084, 6.271e-8
0.083, 6.338e-8
0.082, 6.428e-8
0.081, 6.498e-8
0.080, 6.575e-8
0.079, 6.646e-8
0.078, 6.704e-8
0.077, 6.766e-8
0.076, 6.831e-8
0.075, 6.877e-8
0.074, 6.932e-8
0.073, 6.963e-8
0.072, 7.003e-8
0.071, 7.052e-8
0.070, 7.064e-8
0.069, 7.101e-8
0.068, 7.123e-8
0.067, 7.147e-8
0.066, 7.163e-8
0.065, 7.172e-8
0.064, 7.181e-8
0.063, 7.200e-8
0.062, 7.190e-8
0.061, 7.194e-8
0.060, 7.184e-8
0.059, 7.181e-8
0.058, 7.178e-8
0.057, 7.163e-8
0.056, 7.138e-8
0.055, 7.129e-8
0.054, 7.107e-8
0.053, 7.086e-8
0.052, 7.058e-8
0.051, 7.034e-8
0.050, 7.018e-8
0.049, 6.975e-8
0.048, 6.938e-8
0.047, 6.914e-8
0.046, 6.883e-8
0.045, 6.837e-8
0.044, 6.800e-8
0.043, 6.757e-8
0.042, 6.732e-8
0.041, 6.680e-8
0.040, 6.631e-8
0.039, 6.597e-8
0.038, 6.557e-8
0.037, 6.511e-8
0.036, 6.461e-8
0.035, 6.412e-8
0.034, 6.378e-8
0.033, 6.326e-8
0.032, 6.274e-8
0.031, 6.228e-8
0.030, 6.181e-8
0.029, 6.138e-8
0.028, 6.086e-8
0.027, 6.031e-8
0.026, 5.994e-8
0.025, 5.951e-8
0.024, 5.895e-8
0.023, 5.843e-8
0.022, 5.794e-8
0.021, 5.757e-8
0.020, 5.708e-8
0.019, 5.646e-8
0.018, 5.609e-8
0.017, 5.569e-8
0.016, 5.517e-8
0.015, 5.468e-8
0.014, 5.418e-8
0.013, 5.385e-8
0.012, 5.338e-8
0.011, 5.286e-8
0.010, 5.240e-8
0.009, 5.206e-8
0.008, 5.163e-8
0.007, 5.117e-8
0.006, 5.065e-8
0.005, 5.034e-8
0.004, 5.000e-8
0.003, 4.948e-8
0.002, 4.905e-8
0.001, 4.871e-8
0.000, 4.855e-8
-0.001, 4.800e-8
-0.002, 4.748e-8
-0.003, 4.717e-8
-0.004, 4.689e-8
-0.005, 4.643e-8
-0.006, 4.603e-8
-0.007, 4.566e-8
-0.008, 4.539e-8
-0.009, 4.508e-8
-0.010, 4.462e-8
-0.011, 4.428e-8
-0.012, 4.409e-8
-0.013, 4.369e-8
-0.014, 4.332e-8
-0.015, 4.299e-8
-0.016, 4.274e-8
-0.017, 4.249e-8
-0.018, 4.209e-8
-0.019, 4.176e-8
-0.020, 4.157e-8
-0.021, 4.129e-8
-0.022, 4.096e-8
-0.023, 4.062e-8
-0.024, 4.040e-8
-0.025, 4.022e-8
-0.026, 3.988e-8
-0.027, 3.954e-8
-0.028, 3.936e-8
-0.029, 3.914e-8
-0.030, 3.886e-8
-0.031, 3.852e-8
-0.032, 3.831e-8
-0.033, 3.822e-8
-0.034, 3.794e-8
-0.035, 3.760e-8
-0.036, 3.742e-8
-0.037, 3.726e-8
-0.038, 3.708e-8
-0.039, 3.674e-8
-0.040, 3.652e-8
-0.041, 3.643e-8
-0.042, 3.625e-8
-0.043, 3.597e-8
-0.044, 3.576e-8
-0.045, 3.560e-8
-0.046, 3.548e-8
-0.047, 3.526e-8
-0.048, 3.496e-8
-0.049, 3.489e-8
-0.050, 3.477e-8
-0.051, 3.456e-8
-0.052, 3.431e-8
-0.053, 3.416e-8
-0.054, 3.413e-8
-0.055, 3.391e-8
-0.056, 3.366e-8
-0.057, 3.357e-8
-0.058, 3.348e-8
-0.059, 3.333e-8
-0.060, 3.311e-8
-0.061, 3.293e-8
-0.062, 3.296e-8
-0.063, 3.277e-8
-0.064, 3.256e-8
-0.065, 3.243e-8
-0.066, 3.237e-8
-0.067, 3.225e-8
-0.068, 3.209e-8
-0.069, 3.188e-8
-0.070, 3.188e-8
-0.071, 3.179e-8
-0.072, 3.160e-8
-0.073, 3.145e-8
-0.074, 3.139e-8
-0.075, 3.136e-8
-0.076, 3.120e-8
-0.077, 3.102e-8
-0.078, 3.099e-8
-0.079, 3.096e-8
-0.080, 3.080e-8
-0.081, 3.065e-8
-0.082, 3.056e-8
-0.083, 3.059e-8
-0.084, 3.050e-8
-0.085, 3.028e-8
-0.086, 3.022e-8
-0.087, 3.028e-8
-0.088, 3.016e-8
-0.089, 3.000e-8
-0.090, 2.994e-8
-0.091, 2.994e-8
-0.092, 2.991e-8
-0.093, 2.973e-8
-0.094, 2.963e-8
-0.095, 2.966e-8
-0.096, 2.963e-8
-0.097, 2.951e-8
-0.098, 2.939e-8
-0.099, 2.939e-8
-0.100, 2.945e-8
-0.101, 2.930e-8
-0.102, 2.920e-8
-0.103, 2.920e-8
-0.104, 2.920e-8
-0.105, 2.914e-8
-0.106, 2.899e-8
-0.107, 2.896e-8
-0.108, 2.905e-8
-0.109, 2.896e-8
-0.110, 2.886e-8
-0.111, 2.883e-8
-0.112, 2.886e-8
-0.113, 2.890e-8
-0.114, 2.877e-8
-0.115, 2.871e-8
-0.116, 2.880e-8
-0.117, 2.874e-8
-0.118, 2.868e-8
-0.119, 2.862e-8
-0.120, 2.865e-8
-0.121, 2.871e-8
-0.122, 2.859e-8
-0.123, 2.853e-8
-0.124, 2.862e-8
-0.125, 2.862e-8
-0.126, 2.862e-8
-0.127, 2.846e-8
-0.128, 2.856e-8
-0.129, 2.865e-8
-0.130, 2.856e-8
-0.131, 2.850e-8
-0.132, 2.853e-8
-0.133, 2.862e-8
-0.134, 2.859e-8
-0.135, 2.853e-8
-0.136, 2.853e-8
-0.137, 2.865e-8
-0.138, 2.862e-8
-0.139, 2.856e-8
-0.140, 2.859e-8
-0.141, 2.865e-8
-0.142, 2.871e-8
-0.143, 2.865e-8
-0.144, 2.859e-8
-0.145, 2.877e-8
-0.146, 2.877e-8
-0.147, 2.874e-8
-0.148, 2.874e-8
-0.149, 2.877e-8
-0.150, 2.893e-8
-0.151, 2.890e-8
-0.152, 2.880e-8
-0.153, 2.893e-8
-0.154, 2.902e-8
-0.155, 2.902e-8
-0.156, 2.899e-8
-0.157, 2.902e-8
-0.158, 2.920e-8
-0.159, 2.920e-8
-0.160, 2.914e-8
-0.161, 2.923e-8
-0.162, 2.936e-8
-0.163, 2.939e-8
-0.164, 2.939e-8
-0.165, 2.939e-8
-0.166, 2.957e-8
-0.167, 2.963e-8
-0.168, 2.960e-8
-0.169, 2.963e-8
-0.170, 2.979e-8
-0.171, 2.988e-8
-0.172, 2.988e-8
-0.173, 2.985e-8
-0.174, 3.000e-8
-0.175, 3.016e-8
-0.176, 3.016e-8
-0.177, 3.016e-8
-0.178, 3.028e-8
-0.179, 3.043e-8
-0.180, 3.050e-8
-0.181, 3.043e-8
-0.182, 3.056e-8
-0.183, 3.077e-8
-0.184, 3.077e-8
-0.185, 3.083e-8
-0.186, 3.089e-8
-0.187, 3.108e-8
-0.188, 3.117e-8
-0.189, 3.117e-8
-0.190, 3.126e-8
-0.191, 3.145e-8
-0.192, 3.154e-8
-0.193, 3.163e-8
-0.194, 3.160e-8
-0.195, 3.182e-8
-0.196, 3.200e-8
-0.197, 3.197e-8
-0.198, 3.206e-8
-0.199, 3.222e-8
