Mar. 16, 2023   10:17:51
Cyclic Voltammetry
File: c:/users/oliverrz/desktop/electrolab/data/2023_03_16\fcmeoh_macros_1_mm\electrode8_cv_200mvs_1_mm.bin
Data Source:  Experiment
Instrument Model:  CHI760E
Header: CV
Note: 

Init E (V) = -0.2
High E (V) = 0.3
Low E (V) = -0.2
Final E (V) = -0.2
Init P/N = P
Scan Rate (V/s) = 0.2
Segment = 3
Sample Interval (V) = 0.001
Quiet Time (sec) = 2
Sensitivity (A/V) = 1e-7

Results:

Channel 1:
Segment 1:
Ep = 0.122V
ip = -9.597e-8A
Ah = -2.900e-8C

Segment 2:
Ep = 0.063V
ip = 8.645e-8A
Ah = 2.637e-8C

Segment 3:

Potential/V, Current/A

-0.200, 5.461e-9
-0.199, 4.655e-9
-0.198, 4.317e-9
-0.197, 4.364e-9
-0.196, 4.405e-9
-0.195, 4.119e-9
-0.194, 4.068e-9
-0.193, 4.202e-9
-0.192, 4.019e-9
-0.191, 3.820e-9
-0.190, 4.002e-9
-0.189, 3.940e-9
-0.188, 3.664e-9
-0.187, 3.764e-9
-0.186, 3.850e-9
-0.185, 3.562e-9
-0.184, 3.557e-9
-0.183, 3.713e-9
-0.182, 3.520e-9
-0.181, 3.358e-9
-0.180, 3.545e-9
-0.179, 3.479e-9
-0.178, 3.241e-9
-0.177, 3.319e-9
-0.176, 3.439e-9
-0.175, 3.160e-9
-0.174, 3.123e-9
-0.173, 3.329e-9
-0.172, 3.132e-9
-0.171, 2.964e-9
-0.170, 3.174e-9
-0.169, 3.092e-9
-0.168, 2.865e-9
-0.167, 2.970e-9
-0.166, 3.057e-9
-0.165, 2.801e-9
-0.164, 2.787e-9
-0.163, 2.978e-9
-0.162, 2.793e-9
-0.161, 2.615e-9
-0.160, 2.838e-9
-0.159, 2.774e-9
-0.158, 2.520e-9
-0.157, 2.661e-9
-0.156, 2.739e-9
-0.155, 2.486e-9
-0.154, 2.480e-9
-0.153, 2.640e-9
-0.152, 2.486e-9
-0.151, 2.328e-9
-0.150, 2.526e-9
-0.149, 2.488e-9
-0.148, 2.242e-9
-0.147, 2.359e-9
-0.146, 2.463e-9
-0.145, 2.195e-9
-0.144, 2.203e-9
-0.143, 2.380e-9
-0.142, 2.204e-9
-0.141, 2.055e-9
-0.140, 2.260e-9
-0.139, 2.214e-9
-0.138, 1.980e-9
-0.137, 2.090e-9
-0.136, 2.203e-9
-0.135, 1.943e-9
-0.134, 1.937e-9
-0.133, 2.136e-9
-0.132, 1.950e-9
-0.131, 1.804e-9
-0.130, 2.022e-9
-0.129, 1.954e-9
-0.128, 1.732e-9
-0.127, 1.854e-9
-0.126, 1.944e-9
-0.125, 1.714e-9
-0.124, 1.696e-9
-0.123, 1.896e-9
-0.122, 1.725e-9
-0.121, 1.557e-9
-0.120, 1.789e-9
-0.119, 1.737e-9
-0.118, 1.494e-9
-0.117, 1.638e-9
-0.116, 1.716e-9
-0.115, 1.468e-9
-0.114, 1.489e-9
-0.113, 1.653e-9
-0.112, 1.507e-9
-0.111, 1.342e-9
-0.110, 1.554e-9
-0.109, 1.517e-9
-0.108, 1.277e-9
-0.107, 1.405e-9
-0.106, 1.514e-9
-0.105, 1.245e-9
-0.104, 1.265e-9
-0.103, 1.442e-9
-0.102, 1.261e-9
-0.101, 1.127e-9
-0.100, 1.348e-9
-0.099, 1.288e-9
-0.098, 1.062e-9
-0.097, 1.179e-9
-0.096, 1.293e-9
-0.095, 1.036e-9
-0.094, 1.036e-9
-0.093, 1.232e-9
-0.092, 1.051e-9
-0.091, 9.010e-10
-0.090, 1.133e-9
-0.089, 1.042e-9
-0.088, 8.469e-10
-0.087, 9.670e-10
-0.086, 1.055e-9
-0.085, 8.126e-10
-0.084, 8.128e-10
-0.083, 1.001e-9
-0.082, 8.257e-10
-0.081, 6.646e-10
-0.080, 8.998e-10
-0.079, 8.328e-10
-0.078, 5.901e-10
-0.077, 7.180e-10
-0.076, 8.091e-10
-0.075, 5.551e-10
-0.074, 5.693e-10
-0.073, 7.309e-10
-0.072, 5.724e-10
-0.071, 4.043e-10
-0.070, 6.197e-10
-0.069, 5.630e-10
-0.068, 3.091e-10
-0.067, 4.443e-10
-0.066, 5.368e-10
-0.065, 2.591e-10
-0.064, 2.671e-10
-0.063, 4.374e-10
-0.062, 2.568e-10
-0.061, 1.014e-10
-0.060, 3.160e-10
-0.059, 2.326e-10
-0.058, 1.173e-11
-0.057, 1.016e-10
-0.056, 1.979e-10
-0.055, -6.939e-11
-0.054, -8.632e-11
-0.053, 9.246e-11
-0.052, -1.173e-10
-0.051, -2.736e-10
-0.050, -6.653e-11
-0.049, -1.735e-10
-0.048, -3.968e-10
-0.047, -2.952e-10
-0.046, -2.398e-10
-0.045, -5.034e-10
-0.044, -5.279e-10
-0.043, -3.801e-10
-0.042, -5.704e-10
-0.041, -7.666e-10
-0.040, -5.603e-10
-0.039, -6.743e-10
-0.038, -9.448e-10
-0.037, -8.387e-10
-0.036, -8.012e-10
-0.035, -1.080e-9
-0.034, -1.117e-9
-0.033, -9.950e-10
-0.032, -1.205e-9
-0.031, -1.398e-9
-0.030, -1.238e-9
-0.029, -1.352e-9
-0.028, -1.645e-9
-0.027, -1.576e-9
-0.026, -1.554e-9
-0.025, -1.881e-9
-0.024, -1.919e-9
-0.023, -1.819e-9
-0.022, -2.078e-9
-0.021, -2.289e-9
-0.020, -2.165e-9
-0.019, -2.313e-9
-0.018, -2.621e-9
-0.017, -2.596e-9
-0.016, -2.599e-9
-0.015, -2.953e-9
-0.014, -3.050e-9
-0.013, -2.979e-9
-0.012, -3.289e-9
-0.011, -3.523e-9
-0.010, -3.433e-9
-0.009, -3.655e-9
-0.008, -3.983e-9
-0.007, -3.999e-9
-0.006, -4.081e-9
-0.005, -4.462e-9
-0.004, -4.625e-9
-0.003, -4.604e-9
-0.002, -4.949e-9
-0.001, -5.286e-9
-0.000, -5.353e-9
0.001, -5.554e-9
0.002, -5.973e-9
0.003, -6.027e-9
0.004, -6.183e-9
0.005, -6.634e-9
0.006, -6.846e-9
0.007, -6.952e-9
0.008, -7.362e-9
0.009, -7.768e-9
0.010, -7.830e-9
0.011, -8.173e-9
0.012, -8.699e-9
0.013, -8.866e-9
0.014, -9.108e-9
0.015, -9.687e-9
0.016, -9.986e-9
0.017, -1.019e-8
0.018, -1.075e-8
0.019, -1.120e-8
0.020, -1.142e-8
0.021, -1.188e-8
0.022, -1.250e-8
0.023, -1.282e-8
0.024, -1.317e-8
0.025, -1.391e-8
0.026, -1.435e-8
0.027, -1.467e-8
0.028, -1.539e-8
0.029, -1.601e-8
0.030, -1.636e-8
0.031, -1.702e-8
0.032, -1.774e-8
0.033, -1.825e-8
0.034, -1.878e-8
0.035, -1.961e-8
0.036, -2.029e-8
0.037, -2.075e-8
0.038, -2.164e-8
0.039, -2.248e-8
0.040, -2.298e-8
0.041, -2.386e-8
0.042, -2.478e-8
0.043, -2.544e-8
0.044, -2.623e-8
0.045, -2.725e-8
0.046, -2.806e-8
0.047, -2.882e-8
0.048, -2.986e-8
0.049, -3.089e-8
0.050, -3.163e-8
0.051, -3.268e-8
0.052, -3.386e-8
0.053, -3.470e-8
0.054, -3.568e-8
0.055, -3.696e-8
0.056, -3.793e-8
0.057, -3.888e-8
0.058, -4.017e-8
0.059, -4.134e-8
0.060, -4.232e-8
0.061, -4.350e-8
0.062, -4.484e-8
0.063, -4.594e-8
0.064, -4.708e-8
0.065, -4.851e-8
0.066, -4.970e-8
0.067, -5.075e-8
0.068, -5.219e-8
0.069, -5.351e-8
0.070, -5.457e-8
0.071, -5.602e-8
0.072, -5.733e-8
0.073, -5.855e-8
0.074, -5.980e-8
0.075, -6.124e-8
0.076, -6.258e-8
0.077, -6.371e-8
0.078, -6.514e-8
0.079, -6.653e-8
0.080, -6.757e-8
0.081, -6.900e-8
0.082, -7.035e-8
0.083, -7.145e-8
0.084, -7.272e-8
0.085, -7.407e-8
0.086, -7.526e-8
0.087, -7.633e-8
0.088, -7.759e-8
0.089, -7.890e-8
0.090, -7.983e-8
0.091, -8.103e-8
0.092, -8.231e-8
0.093, -8.313e-8
0.094, -8.415e-8
0.095, -8.536e-8
0.096, -8.622e-8
0.097, -8.711e-8
0.098, -8.816e-8
0.099, -8.907e-8
0.100, -8.978e-8
0.101, -9.061e-8
0.102, -9.161e-8
0.103, -9.225e-8
0.104, -9.286e-8
0.105, -9.370e-8
0.106, -9.433e-8
0.107, -9.473e-8
0.108, -9.552e-8
0.109, -9.598e-8
0.110, -9.629e-8
0.111, -9.692e-8
0.112, -9.735e-8
0.113, -9.765e-8
0.114, -9.793e-8
0.115, -9.839e-8
0.116, -9.864e-8
0.117, -9.869e-8
0.118, -9.902e-8
0.119, -9.929e-8
0.120, -9.918e-8
0.121, -9.940e-8
0.122, -9.956e-8
0.123, -9.948e-8
0.124, -9.945e-8
0.125, -9.955e-8
0.126, -9.946e-8
0.127, -9.927e-8
0.128, -9.929e-8
0.129, -9.926e-8
0.130, -9.889e-8
0.131, -9.875e-8
0.132, -9.875e-8
0.133, -9.835e-8
0.134, -9.805e-8
0.135, -9.801e-8
0.136, -9.766e-8
0.137, -9.720e-8
0.138, -9.705e-8
0.139, -9.678e-8
0.140, -9.628e-8
0.141, -9.598e-8
0.142, -9.578e-8
0.143, -9.527e-8
0.144, -9.478e-8
0.145, -9.460e-8
0.146, -9.415e-8
0.147, -9.354e-8
0.148, -9.331e-8
0.149, -9.294e-8
0.150, -9.231e-8
0.151, -9.198e-8
0.152, -9.166e-8
0.153, -9.109e-8
0.154, -9.059e-8
0.155, -9.032e-8
0.156, -8.985e-8
0.157, -8.919e-8
0.158, -8.889e-8
0.159, -8.855e-8
0.160, -8.784e-8
0.161, -8.746e-8
0.162, -8.719e-8
0.163, -8.656e-8
0.164, -8.606e-8
0.165, -8.579e-8
0.166, -8.530e-8
0.167, -8.468e-8
0.168, -8.438e-8
0.169, -8.403e-8
0.170, -8.335e-8
0.171, -8.298e-8
0.172, -8.274e-8
0.173, -8.212e-8
0.174, -8.162e-8
0.175, -8.143e-8
0.176, -8.093e-8
0.177, -8.036e-8
0.178, -8.011e-8
0.179, -7.979e-8
0.180, -7.916e-8
0.181, -7.882e-8
0.182, -7.861e-8
0.183, -7.806e-8
0.184, -7.755e-8
0.185, -7.740e-8
0.186, -7.697e-8
0.187, -7.641e-8
0.188, -7.622e-8
0.189, -7.592e-8
0.190, -7.532e-8
0.191, -7.507e-8
0.192, -7.489e-8
0.193, -7.436e-8
0.194, -7.396e-8
0.195, -7.383e-8
0.196, -7.345e-8
0.197, -7.293e-8
0.198, -7.277e-8
0.199, -7.256e-8
0.200, -7.200e-8
0.201, -7.175e-8
0.202, -7.165e-8
0.203, -7.116e-8
0.204, -7.079e-8
0.205, -7.073e-8
0.206, -7.037e-8
0.207, -6.991e-8
0.208, -6.978e-8
0.209, -6.960e-8
0.210, -6.908e-8
0.211, -6.888e-8
0.212, -6.881e-8
0.213, -6.837e-8
0.214, -6.802e-8
0.215, -6.801e-8
0.216, -6.769e-8
0.217, -6.725e-8
0.218, -6.719e-8
0.219, -6.703e-8
0.220, -6.658e-8
0.221, -6.643e-8
0.222, -6.639e-8
0.223, -6.599e-8
0.224, -6.566e-8
0.225, -6.569e-8
0.226, -6.541e-8
0.227, -6.500e-8
0.228, -6.498e-8
0.229, -6.484e-8
0.230, -6.441e-8
0.231, -6.429e-8
0.232, -6.426e-8
0.233, -6.389e-8
0.234, -6.364e-8
0.235, -6.367e-8
0.236, -6.344e-8
0.237, -6.305e-8
0.238, -6.305e-8
0.239, -6.297e-8
0.240, -6.253e-8
0.241, -6.242e-8
0.242, -6.247e-8
0.243, -6.210e-8
0.244, -6.187e-8
0.245, -6.192e-8
0.246, -6.168e-8
0.247, -6.135e-8
0.248, -6.136e-8
0.249, -6.128e-8
0.250, -6.090e-8
0.251, -6.081e-8
0.252, -6.085e-8
0.253, -6.051e-8
0.254, -6.031e-8
0.255, -6.040e-8
0.256, -6.019e-8
0.257, -5.986e-8
0.258, -5.991e-8
0.259, -5.984e-8
0.260, -5.949e-8
0.261, -5.942e-8
0.262, -5.948e-8
0.263, -5.918e-8
0.264, -5.897e-8
0.265, -5.907e-8
0.266, -5.889e-8
0.267, -5.856e-8
0.268, -5.864e-8
0.269, -5.860e-8
0.270, -5.825e-8
0.271, -5.820e-8
0.272, -5.827e-8
0.273, -5.797e-8
0.274, -5.780e-8
0.275, -5.790e-8
0.276, -5.774e-8
0.277, -5.744e-8
0.278, -5.752e-8
0.279, -5.750e-8
0.280, -5.714e-8
0.281, -5.712e-8
0.282, -5.722e-8
0.283, -5.692e-8
0.284, -5.677e-8
0.285, -5.688e-8
0.286, -5.674e-8
0.287, -5.645e-8
0.288, -5.652e-8
0.289, -5.652e-8
0.290, -5.620e-8
0.291, -5.617e-8
0.292, -5.629e-8
0.293, -5.600e-8
0.294, -5.586e-8
0.295, -5.600e-8
0.296, -5.585e-8
0.297, -5.561e-8
0.298, -5.572e-8
0.299, -5.570e-8
0.300, -5.309e-8
0.299, -5.129e-8
0.298, -5.106e-8
0.297, -5.054e-8
0.296, -5.023e-8
0.295, -5.019e-8
0.294, -4.991e-8
0.293, -4.952e-8
0.292, -4.948e-8
0.291, -4.939e-8
0.290, -4.896e-8
0.289, -4.885e-8
0.288, -4.890e-8
0.287, -4.852e-8
0.286, -4.831e-8
0.285, -4.838e-8
0.284, -4.816e-8
0.283, -4.783e-8
0.282, -4.787e-8
0.281, -4.779e-8
0.280, -4.744e-8
0.279, -4.737e-8
0.278, -4.744e-8
0.277, -4.712e-8
0.276, -4.691e-8
0.275, -4.702e-8
0.274, -4.683e-8
0.273, -4.649e-8
0.272, -4.658e-8
0.271, -4.651e-8
0.270, -4.617e-8
0.269, -4.612e-8
0.268, -4.619e-8
0.267, -4.589e-8
0.266, -4.572e-8
0.265, -4.580e-8
0.264, -4.565e-8
0.263, -4.533e-8
0.262, -4.542e-8
0.261, -4.538e-8
0.260, -4.503e-8
0.259, -4.499e-8
0.258, -4.509e-8
0.257, -4.477e-8
0.256, -4.463e-8
0.255, -4.472e-8
0.254, -4.456e-8
0.253, -4.426e-8
0.252, -4.434e-8
0.251, -4.432e-8
0.250, -4.398e-8
0.249, -4.393e-8
0.248, -4.404e-8
0.247, -4.372e-8
0.246, -4.356e-8
0.245, -4.369e-8
0.244, -4.350e-8
0.243, -4.321e-8
0.242, -4.331e-8
0.241, -4.325e-8
0.240, -4.293e-8
0.239, -4.288e-8
0.238, -4.298e-8
0.237, -4.268e-8
0.236, -4.251e-8
0.235, -4.262e-8
0.234, -4.245e-8
0.233, -4.214e-8
0.232, -4.224e-8
0.231, -4.217e-8
0.230, -4.184e-8
0.229, -4.180e-8
0.228, -4.187e-8
0.227, -4.157e-8
0.226, -4.140e-8
0.225, -4.148e-8
0.224, -4.131e-8
0.223, -4.099e-8
0.222, -4.107e-8
0.221, -4.101e-8
0.220, -4.064e-8
0.219, -4.060e-8
0.218, -4.065e-8
0.217, -4.031e-8
0.216, -4.015e-8
0.215, -4.021e-8
0.214, -4.002e-8
0.213, -3.969e-8
0.212, -3.973e-8
0.211, -3.966e-8
0.210, -3.928e-8
0.209, -3.918e-8
0.208, -3.926e-8
0.207, -3.887e-8
0.206, -3.866e-8
0.205, -3.870e-8
0.204, -3.847e-8
0.203, -3.812e-8
0.202, -3.815e-8
0.201, -3.800e-8
0.200, -3.762e-8
0.199, -3.748e-8
0.198, -3.750e-8
0.197, -3.709e-8
0.196, -3.684e-8
0.195, -3.686e-8
0.194, -3.657e-8
0.193, -3.617e-8
0.192, -3.614e-8
0.191, -3.596e-8
0.190, -3.550e-8
0.189, -3.535e-8
0.188, -3.526e-8
0.187, -3.483e-8
0.186, -3.453e-8
0.185, -3.445e-8
0.184, -3.412e-8
0.183, -3.363e-8
0.182, -3.355e-8
0.181, -3.330e-8
0.180, -3.275e-8
0.179, -3.253e-8
0.178, -3.237e-8
0.177, -3.183e-8
0.176, -3.145e-8
0.175, -3.127e-8
0.174, -3.085e-8
0.173, -3.029e-8
0.172, -3.007e-8
0.171, -2.975e-8
0.170, -2.910e-8
0.169, -2.874e-8
0.168, -2.850e-8
0.167, -2.782e-8
0.166, -2.735e-8
0.165, -2.705e-8
0.164, -2.648e-8
0.163, -2.583e-8
0.162, -2.549e-8
0.161, -2.498e-8
0.160, -2.424e-8
0.159, -2.372e-8
0.158, -2.333e-8
0.157, -2.253e-8
0.156, -2.184e-8
0.155, -2.144e-8
0.154, -2.069e-8
0.153, -1.984e-8
0.152, -1.936e-8
0.151, -1.870e-8
0.150, -1.777e-8
0.149, -1.710e-8
0.148, -1.647e-8
0.147, -1.554e-8
0.146, -1.470e-8
0.145, -1.403e-8
0.144, -1.316e-8
0.143, -1.209e-8
0.142, -1.142e-8
0.141, -1.055e-8
0.140, -9.371e-9
0.139, -8.568e-9
0.138, -7.752e-9
0.137, -6.556e-9
0.136, -5.553e-9
0.135, -4.668e-9
0.134, -3.601e-9
0.133, -2.356e-9
0.132, -1.441e-9
0.131, -4.236e-10
0.130, 9.210e-10
0.129, 2.012e-9
0.128, 3.028e-9
0.127, 4.407e-9
0.126, 5.569e-9
0.125, 6.578e-9
0.124, 7.952e-9
0.123, 9.248e-9
0.122, 1.037e-8
0.121, 1.157e-8
0.120, 1.303e-8
0.119, 1.428e-8
0.118, 1.538e-8
0.117, 1.688e-8
0.116, 1.822e-8
0.115, 1.933e-8
0.114, 2.074e-8
0.113, 2.217e-8
0.112, 2.328e-8
0.111, 2.467e-8
0.110, 2.614e-8
0.109, 2.733e-8
0.108, 2.857e-8
0.107, 2.995e-8
0.106, 3.130e-8
0.105, 3.246e-8
0.104, 3.376e-8
0.103, 3.522e-8
0.102, 3.628e-8
0.101, 3.750e-8
0.100, 3.895e-8
0.099, 3.989e-8
0.098, 4.105e-8
0.097, 4.233e-8
0.096, 4.342e-8
0.095, 4.442e-8
0.094, 4.554e-8
0.093, 4.668e-8
0.092, 4.761e-8
0.091, 4.851e-8
0.090, 4.973e-8
0.089, 5.052e-8
0.088, 5.129e-8
0.087, 5.234e-8
0.086, 5.312e-8
0.085, 5.380e-8
0.084, 5.464e-8
0.083, 5.539e-8
0.082, 5.597e-8
0.081, 5.661e-8
0.080, 5.738e-8
0.079, 5.784e-8
0.078, 5.828e-8
0.077, 5.894e-8
0.076, 5.945e-8
0.075, 5.962e-8
0.074, 6.013e-8
0.073, 6.064e-8
0.072, 6.071e-8
0.071, 6.101e-8
0.070, 6.141e-8
0.069, 6.151e-8
0.068, 6.160e-8
0.067, 6.186e-8
0.066, 6.202e-8
0.065, 6.195e-8
0.064, 6.206e-8
0.063, 6.226e-8
0.062, 6.203e-8
0.061, 6.194e-8
0.060, 6.213e-8
0.059, 6.187e-8
0.058, 6.167e-8
0.057, 6.172e-8
0.056, 6.156e-8
0.055, 6.123e-8
0.054, 6.109e-8
0.053, 6.100e-8
0.052, 6.062e-8
0.051, 6.032e-8
0.050, 6.029e-8
0.049, 5.988e-8
0.048, 5.941e-8
0.047, 5.932e-8
0.046, 5.899e-8
0.045, 5.845e-8
0.044, 5.823e-8
0.043, 5.795e-8
0.042, 5.743e-8
0.041, 5.701e-8
0.040, 5.683e-8
0.039, 5.635e-8
0.038, 5.579e-8
0.037, 5.556e-8
0.036, 5.519e-8
0.035, 5.455e-8
0.034, 5.424e-8
0.033, 5.396e-8
0.032, 5.334e-8
0.031, 5.291e-8
0.030, 5.268e-8
0.029, 5.212e-8
0.028, 5.160e-8
0.027, 5.132e-8
0.026, 5.094e-8
0.025, 5.030e-8
0.024, 4.996e-8
0.023, 4.970e-8
0.022, 4.907e-8
0.021, 4.858e-8
0.020, 4.843e-8
0.019, 4.786e-8
0.018, 4.730e-8
0.017, 4.708e-8
0.016, 4.669e-8
0.015, 4.607e-8
0.014, 4.577e-8
0.013, 4.551e-8
0.012, 4.495e-8
0.011, 4.446e-8
0.010, 4.432e-8
0.009, 4.383e-8
0.008, 4.328e-8
0.007, 4.312e-8
0.006, 4.276e-8
0.005, 4.217e-8
0.004, 4.193e-8
0.003, 4.169e-8
0.002, 4.114e-8
0.001, 4.076e-8
0.000, 4.073e-8
-0.001, 4.021e-8
-0.002, 3.969e-8
-0.003, 3.953e-8
-0.004, 3.926e-8
-0.005, 3.867e-8
-0.006, 3.847e-8
-0.007, 3.831e-8
-0.008, 3.779e-8
-0.009, 3.744e-8
-0.010, 3.737e-8
-0.011, 3.694e-8
-0.012, 3.651e-8
-0.013, 3.640e-8
-0.014, 3.615e-8
-0.015, 3.564e-8
-0.016, 3.546e-8
-0.017, 3.535e-8
-0.018, 3.488e-8
-0.019, 3.454e-8
-0.020, 3.455e-8
-0.021, 3.415e-8
-0.022, 3.374e-8
-0.023, 3.370e-8
-0.024, 3.347e-8
-0.025, 3.302e-8
-0.026, 3.288e-8
-0.027, 3.278e-8
-0.028, 3.238e-8
-0.029, 3.207e-8
-0.030, 3.208e-8
-0.031, 3.175e-8
-0.032, 3.137e-8
-0.033, 3.136e-8
-0.034, 3.118e-8
-0.035, 3.073e-8
-0.036, 3.065e-8
-0.037, 3.059e-8
-0.038, 3.020e-8
-0.039, 2.997e-8
-0.040, 3.000e-8
-0.041, 2.970e-8
-0.042, 2.934e-8
-0.043, 2.935e-8
-0.044, 2.923e-8
-0.045, 2.880e-8
-0.046, 2.875e-8
-0.047, 2.872e-8
-0.048, 2.835e-8
-0.049, 2.814e-8
-0.050, 2.822e-8
-0.051, 2.792e-8
-0.052, 2.762e-8
-0.053, 2.764e-8
-0.054, 2.754e-8
-0.055, 2.715e-8
-0.056, 2.710e-8
-0.057, 2.711e-8
-0.058, 2.677e-8
-0.059, 2.656e-8
-0.060, 2.670e-8
-0.061, 2.641e-8
-0.062, 2.612e-8
-0.063, 2.620e-8
-0.064, 2.610e-8
-0.065, 2.573e-8
-0.066, 2.572e-8
-0.067, 2.572e-8
-0.068, 2.543e-8
-0.069, 2.524e-8
-0.070, 2.536e-8
-0.071, 2.513e-8
-0.072, 2.484e-8
-0.073, 2.494e-8
-0.074, 2.485e-8
-0.075, 2.450e-8
-0.076, 2.452e-8
-0.077, 2.455e-8
-0.078, 2.425e-8
-0.079, 2.409e-8
-0.080, 2.422e-8
-0.081, 2.399e-8
-0.082, 2.374e-8
-0.083, 2.383e-8
-0.084, 2.380e-8
-0.085, 2.344e-8
-0.086, 2.346e-8
-0.087, 2.353e-8
-0.088, 2.323e-8
-0.089, 2.310e-8
-0.090, 2.326e-8
-0.091, 2.302e-8
-0.092, 2.280e-8
-0.093, 2.289e-8
-0.094, 2.285e-8
-0.095, 2.254e-8
-0.096, 2.257e-8
-0.097, 2.264e-8
-0.098, 2.237e-8
-0.099, 2.223e-8
-0.100, 2.242e-8
-0.101, 2.219e-8
-0.102, 2.198e-8
-0.103, 2.212e-8
-0.104, 2.206e-8
-0.105, 2.176e-8
-0.106, 2.182e-8
-0.107, 2.187e-8
-0.108, 2.163e-8
-0.109, 2.150e-8
-0.110, 2.168e-8
-0.111, 2.150e-8
-0.112, 2.127e-8
-0.113, 2.142e-8
-0.114, 2.139e-8
-0.115, 2.109e-8
-0.116, 2.117e-8
-0.117, 2.124e-8
-0.118, 2.098e-8
-0.119, 2.089e-8
-0.120, 2.107e-8
-0.121, 2.088e-8
-0.122, 2.067e-8
-0.123, 2.083e-8
-0.124, 2.081e-8
-0.125, 2.051e-8
-0.126, 2.059e-8
-0.127, 2.068e-8
-0.128, 2.043e-8
-0.129, 2.035e-8
-0.130, 2.053e-8
-0.131, 2.036e-8
-0.132, 2.018e-8
-0.133, 2.032e-8
-0.134, 2.030e-8
-0.135, 2.004e-8
-0.136, 2.011e-8
-0.137, 2.021e-8
-0.138, 1.998e-8
-0.139, 1.989e-8
-0.140, 2.012e-8
-0.141, 1.993e-8
-0.142, 1.974e-8
-0.143, 1.993e-8
-0.144, 1.990e-8
-0.145, 1.963e-8
-0.146, 1.973e-8
-0.147, 1.982e-8
-0.148, 1.961e-8
-0.149, 1.952e-8
-0.150, 1.973e-8
-0.151, 1.958e-8
-0.152, 1.938e-8
-0.153, 1.958e-8
-0.154, 1.957e-8
-0.155, 1.930e-8
-0.156, 1.941e-8
-0.157, 1.951e-8
-0.158, 1.929e-8
-0.159, 1.923e-8
-0.160, 1.943e-8
-0.161, 1.928e-8
-0.162, 1.911e-8
-0.163, 1.929e-8
-0.164, 1.932e-8
-0.165, 1.904e-8
-0.166, 1.916e-8
-0.167, 1.927e-8
-0.168, 1.904e-8
-0.169, 1.900e-8
-0.170, 1.921e-8
-0.171, 1.905e-8
-0.172, 1.892e-8
-0.173, 1.910e-8
-0.174, 1.909e-8
-0.175, 1.887e-8
-0.176, 1.897e-8
-0.177, 1.911e-8
-0.178, 1.889e-8
-0.179, 1.884e-8
-0.180, 1.908e-8
-0.181, 1.892e-8
-0.182, 1.877e-8
-0.183, 1.898e-8
-0.184, 1.897e-8
-0.185, 1.874e-8
-0.186, 1.886e-8
-0.187, 1.900e-8
-0.188, 1.880e-8
-0.189, 1.875e-8
-0.190, 1.899e-8
-0.191, 1.887e-8
-0.192, 1.870e-8
-0.193, 1.892e-8
-0.194, 1.892e-8
-0.195, 1.868e-8
-0.196, 1.883e-8
-0.197, 1.895e-8
-0.198, 1.875e-8
-0.199, 1.873e-8
