Mar. 16, 2023   10:09:43
Cyclic Voltammetry
File: c:/users/oliverrz/desktop/electrolab/data/2023_03_16\fcmeoh_macros_1_mm\electrode2_cv_150mvs_1_mm.bin
Data Source:  Experiment
Instrument Model:  CHI760E
Header: CV
Note: 

Init E (V) = -0.2
High E (V) = 0.3
Low E (V) = -0.2
Final E (V) = -0.2
Init P/N = P
Scan Rate (V/s) = 0.15
Segment = 3
Sample Interval (V) = 0.001
Quiet Time (sec) = 2
Sensitivity (A/V) = 1e-7

Results:

Channel 1:
Segment 1:
Ep = 0.129V
ip = -8.334e-8A
Ah = -3.532e-8C

Segment 2:
Ep = 0.065V
ip = 7.476e-8A
Ah = 3.103e-8C

Segment 3:

Potential/V, Current/A

-0.200, 5.691e-9
-0.199, 4.799e-9
-0.198, 4.734e-9
-0.197, 4.632e-9
-0.196, 4.380e-9
-0.195, 4.500e-9
-0.194, 4.238e-9
-0.193, 4.258e-9
-0.192, 4.215e-9
-0.191, 4.017e-9
-0.190, 4.137e-9
-0.189, 3.917e-9
-0.188, 3.965e-9
-0.187, 3.902e-9
-0.186, 3.744e-9
-0.185, 3.876e-9
-0.184, 3.643e-9
-0.183, 3.719e-9
-0.182, 3.652e-9
-0.181, 3.493e-9
-0.180, 3.642e-9
-0.179, 3.400e-9
-0.178, 3.481e-9
-0.177, 3.434e-9
-0.176, 3.279e-9
-0.175, 3.435e-9
-0.174, 3.184e-9
-0.173, 3.287e-9
-0.172, 3.221e-9
-0.171, 3.073e-9
-0.170, 3.234e-9
-0.169, 2.977e-9
-0.168, 3.092e-9
-0.167, 3.044e-9
-0.166, 2.857e-9
-0.165, 3.054e-9
-0.164, 2.807e-9
-0.163, 2.889e-9
-0.162, 2.866e-9
-0.161, 2.690e-9
-0.160, 2.875e-9
-0.159, 2.633e-9
-0.158, 2.715e-9
-0.157, 2.689e-9
-0.156, 2.529e-9
-0.155, 2.700e-9
-0.154, 2.463e-9
-0.153, 2.548e-9
-0.152, 2.528e-9
-0.151, 2.369e-9
-0.150, 2.536e-9
-0.149, 2.314e-9
-0.148, 2.399e-9
-0.147, 2.369e-9
-0.146, 2.224e-9
-0.145, 2.369e-9
-0.144, 2.176e-9
-0.143, 2.261e-9
-0.142, 2.201e-9
-0.141, 2.073e-9
-0.140, 2.246e-9
-0.139, 2.000e-9
-0.138, 2.127e-9
-0.137, 2.069e-9
-0.136, 1.924e-9
-0.135, 2.108e-9
-0.134, 1.869e-9
-0.133, 1.975e-9
-0.132, 1.936e-9
-0.131, 1.792e-9
-0.130, 1.967e-9
-0.129, 1.729e-9
-0.128, 1.849e-9
-0.127, 1.798e-9
-0.126, 1.653e-9
-0.125, 1.847e-9
-0.124, 1.600e-9
-0.123, 1.715e-9
-0.122, 1.684e-9
-0.121, 1.522e-9
-0.120, 1.715e-9
-0.119, 1.493e-9
-0.118, 1.578e-9
-0.117, 1.560e-9
-0.116, 1.410e-9
-0.115, 1.571e-9
-0.114, 1.372e-9
-0.113, 1.456e-9
-0.112, 1.433e-9
-0.111, 1.295e-9
-0.110, 1.463e-9
-0.109, 1.244e-9
-0.108, 1.351e-9
-0.107, 1.311e-9
-0.106, 1.183e-9
-0.105, 1.338e-9
-0.104, 1.131e-9
-0.103, 1.224e-9
-0.102, 1.184e-9
-0.101, 1.066e-9
-0.100, 1.226e-9
-0.099, 9.993e-10
-0.098, 1.141e-9
-0.097, 1.056e-9
-0.096, 9.522e-10
-0.095, 1.125e-9
-0.094, 8.820e-10
-0.093, 1.011e-9
-0.092, 9.633e-10
-0.091, 8.154e-10
-0.090, 1.004e-9
-0.089, 7.598e-10
-0.088, 8.947e-10
-0.087, 8.496e-10
-0.086, 7.034e-10
-0.085, 8.828e-10
-0.084, 6.575e-10
-0.083, 7.724e-10
-0.082, 7.260e-10
-0.081, 5.747e-10
-0.080, 7.697e-10
-0.079, 5.346e-10
-0.078, 6.396e-10
-0.077, 5.976e-10
-0.076, 4.540e-10
-0.075, 6.311e-10
-0.074, 4.181e-10
-0.073, 5.030e-10
-0.072, 4.698e-10
-0.071, 3.461e-10
-0.070, 4.939e-10
-0.069, 2.793e-10
-0.068, 3.842e-10
-0.067, 3.278e-10
-0.066, 2.042e-10
-0.065, 3.594e-10
-0.064, 1.325e-10
-0.063, 2.496e-10
-0.062, 1.858e-10
-0.061, 5.759e-11
-0.060, 2.157e-10
-0.059, -8.856e-12
-0.058, 9.824e-11
-0.057, 2.706e-11
-0.056, -8.883e-11
-0.055, 6.335e-11
-0.054, -1.820e-10
-0.053, -5.941e-11
-0.052, -1.349e-10
-0.051, -2.830e-10
-0.050, -1.083e-10
-0.049, -3.705e-10
-0.048, -2.516e-10
-0.047, -3.133e-10
-0.046, -4.780e-10
-0.045, -3.009e-10
-0.044, -5.576e-10
-0.043, -4.643e-10
-0.042, -5.226e-10
-0.041, -6.933e-10
-0.040, -5.285e-10
-0.039, -7.842e-10
-0.038, -6.984e-10
-0.037, -7.685e-10
-0.036, -9.310e-10
-0.035, -7.845e-10
-0.034, -1.039e-9
-0.033, -9.670e-10
-0.032, -1.037e-9
-0.031, -1.195e-9
-0.030, -1.093e-9
-0.029, -1.334e-9
-0.028, -1.260e-9
-0.027, -1.367e-9
-0.026, -1.526e-9
-0.025, -1.420e-9
-0.024, -1.691e-9
-0.023, -1.617e-9
-0.022, -1.745e-9
-0.021, -1.908e-9
-0.020, -1.810e-9
-0.019, -2.095e-9
-0.018, -2.042e-9
-0.017, -2.169e-9
-0.016, -2.350e-9
-0.015, -2.262e-9
-0.014, -2.581e-9
-0.013, -2.535e-9
-0.012, -2.688e-9
-0.011, -2.879e-9
-0.010, -2.812e-9
-0.009, -3.142e-9
-0.008, -3.112e-9
-0.007, -3.277e-9
-0.006, -3.518e-9
-0.005, -3.448e-9
-0.004, -3.791e-9
-0.003, -3.800e-9
-0.002, -3.983e-9
-0.001, -4.252e-9
-0.000, -4.317e-9
0.001, -4.608e-9
0.002, -4.645e-9
0.003, -4.850e-9
0.004, -5.135e-9
0.005, -5.141e-9
0.006, -5.531e-9
0.007, -5.610e-9
0.008, -5.851e-9
0.009, -6.153e-9
0.010, -6.219e-9
0.011, -6.637e-9
0.012, -6.750e-9
0.013, -7.054e-9
0.014, -7.397e-9
0.015, -7.516e-9
0.016, -7.957e-9
0.017, -8.111e-9
0.018, -8.480e-9
0.019, -8.836e-9
0.020, -9.016e-9
0.021, -9.522e-9
0.022, -9.707e-9
0.023, -1.014e-8
0.024, -1.056e-8
0.025, -1.079e-8
0.026, -1.138e-8
0.027, -1.162e-8
0.028, -1.208e-8
0.029, -1.259e-8
0.030, -1.285e-8
0.031, -1.352e-8
0.032, -1.380e-8
0.033, -1.437e-8
0.034, -1.494e-8
0.035, -1.528e-8
0.036, -1.601e-8
0.037, -1.641e-8
0.038, -1.703e-8
0.039, -1.769e-8
0.040, -1.809e-8
0.041, -1.891e-8
0.042, -1.938e-8
0.043, -2.007e-8
0.044, -2.081e-8
0.045, -2.132e-8
0.046, -2.220e-8
0.047, -2.279e-8
0.048, -2.355e-8
0.049, -2.437e-8
0.050, -2.502e-8
0.051, -2.598e-8
0.052, -2.666e-8
0.053, -2.753e-8
0.054, -2.841e-8
0.055, -2.917e-8
0.056, -3.016e-8
0.057, -3.095e-8
0.058, -3.193e-8
0.059, -3.288e-8
0.060, -3.374e-8
0.061, -3.482e-8
0.062, -3.565e-8
0.063, -3.676e-8
0.064, -3.776e-8
0.065, -3.871e-8
0.066, -3.992e-8
0.067, -4.079e-8
0.068, -4.199e-8
0.069, -4.302e-8
0.070, -4.399e-8
0.071, -4.529e-8
0.072, -4.621e-8
0.073, -4.744e-8
0.074, -4.860e-8
0.075, -4.958e-8
0.076, -5.087e-8
0.077, -5.189e-8
0.078, -5.310e-8
0.079, -5.433e-8
0.080, -5.526e-8
0.081, -5.658e-8
0.082, -5.761e-8
0.083, -5.875e-8
0.084, -5.999e-8
0.085, -6.092e-8
0.086, -6.216e-8
0.087, -6.318e-8
0.088, -6.431e-8
0.089, -6.544e-8
0.090, -6.646e-8
0.091, -6.754e-8
0.092, -6.853e-8
0.093, -6.955e-8
0.094, -7.057e-8
0.095, -7.150e-8
0.096, -7.248e-8
0.097, -7.337e-8
0.098, -7.435e-8
0.099, -7.520e-8
0.100, -7.601e-8
0.101, -7.689e-8
0.102, -7.764e-8
0.103, -7.856e-8
0.104, -7.923e-8
0.105, -7.985e-8
0.106, -8.067e-8
0.107, -8.116e-8
0.108, -8.189e-8
0.109, -8.245e-8
0.110, -8.289e-8
0.111, -8.361e-8
0.112, -8.390e-8
0.113, -8.442e-8
0.114, -8.490e-8
0.115, -8.516e-8
0.116, -8.570e-8
0.117, -8.585e-8
0.118, -8.621e-8
0.119, -8.653e-8
0.120, -8.660e-8
0.121, -8.699e-8
0.122, -8.704e-8
0.123, -8.721e-8
0.124, -8.740e-8
0.125, -8.733e-8
0.126, -8.754e-8
0.127, -8.746e-8
0.128, -8.754e-8
0.129, -8.754e-8
0.130, -8.740e-8
0.131, -8.748e-8
0.132, -8.727e-8
0.133, -8.721e-8
0.134, -8.708e-8
0.135, -8.687e-8
0.136, -8.680e-8
0.137, -8.650e-8
0.138, -8.641e-8
0.139, -8.618e-8
0.140, -8.585e-8
0.141, -8.574e-8
0.142, -8.535e-8
0.143, -8.517e-8
0.144, -8.487e-8
0.145, -8.448e-8
0.146, -8.435e-8
0.147, -8.385e-8
0.148, -8.363e-8
0.149, -8.332e-8
0.150, -8.284e-8
0.151, -8.270e-8
0.152, -8.216e-8
0.153, -8.191e-8
0.154, -8.160e-8
0.155, -8.107e-8
0.156, -8.090e-8
0.157, -8.034e-8
0.158, -8.004e-8
0.159, -7.974e-8
0.160, -7.918e-8
0.161, -7.898e-8
0.162, -7.845e-8
0.163, -7.812e-8
0.164, -7.781e-8
0.165, -7.726e-8
0.166, -7.707e-8
0.167, -7.655e-8
0.168, -7.621e-8
0.169, -7.587e-8
0.170, -7.538e-8
0.171, -7.515e-8
0.172, -7.463e-8
0.173, -7.434e-8
0.174, -7.400e-8
0.175, -7.351e-8
0.176, -7.331e-8
0.177, -7.279e-8
0.178, -7.251e-8
0.179, -7.220e-8
0.180, -7.170e-8
0.181, -7.154e-8
0.182, -7.100e-8
0.183, -7.077e-8
0.184, -7.045e-8
0.185, -6.996e-8
0.186, -6.984e-8
0.187, -6.932e-8
0.188, -6.908e-8
0.189, -6.881e-8
0.190, -6.833e-8
0.191, -6.823e-8
0.192, -6.773e-8
0.193, -6.751e-8
0.194, -6.727e-8
0.195, -6.680e-8
0.196, -6.671e-8
0.197, -6.625e-8
0.198, -6.603e-8
0.199, -6.582e-8
0.200, -6.536e-8
0.201, -6.529e-8
0.202, -6.485e-8
0.203, -6.465e-8
0.204, -6.445e-8
0.205, -6.404e-8
0.206, -6.396e-8
0.207, -6.355e-8
0.208, -6.336e-8
0.209, -6.316e-8
0.210, -6.279e-8
0.211, -6.272e-8
0.212, -6.232e-8
0.213, -6.218e-8
0.214, -6.198e-8
0.215, -6.160e-8
0.216, -6.158e-8
0.217, -6.118e-8
0.218, -6.105e-8
0.219, -6.088e-8
0.220, -6.051e-8
0.221, -6.052e-8
0.222, -6.012e-8
0.223, -6.002e-8
0.224, -5.986e-8
0.225, -5.951e-8
0.226, -5.954e-8
0.227, -5.915e-8
0.228, -5.905e-8
0.229, -5.893e-8
0.230, -5.858e-8
0.231, -5.862e-8
0.232, -5.824e-8
0.233, -5.816e-8
0.234, -5.805e-8
0.235, -5.770e-8
0.236, -5.775e-8
0.237, -5.741e-8
0.238, -5.732e-8
0.239, -5.722e-8
0.240, -5.690e-8
0.241, -5.695e-8
0.242, -5.662e-8
0.243, -5.656e-8
0.244, -5.646e-8
0.245, -5.616e-8
0.246, -5.621e-8
0.247, -5.590e-8
0.248, -5.583e-8
0.249, -5.574e-8
0.250, -5.546e-8
0.251, -5.553e-8
0.252, -5.522e-8
0.253, -5.517e-8
0.254, -5.507e-8
0.255, -5.482e-8
0.256, -5.489e-8
0.257, -5.457e-8
0.258, -5.456e-8
0.259, -5.445e-8
0.260, -5.420e-8
0.261, -5.429e-8
0.262, -5.397e-8
0.263, -5.396e-8
0.264, -5.389e-8
0.265, -5.362e-8
0.266, -5.374e-8
0.267, -5.343e-8
0.268, -5.343e-8
0.269, -5.337e-8
0.270, -5.311e-8
0.271, -5.322e-8
0.272, -5.293e-8
0.273, -5.292e-8
0.274, -5.287e-8
0.275, -5.262e-8
0.276, -5.274e-8
0.277, -5.246e-8
0.278, -5.246e-8
0.279, -5.242e-8
0.280, -5.216e-8
0.281, -5.229e-8
0.282, -5.203e-8
0.283, -5.202e-8
0.284, -5.199e-8
0.285, -5.175e-8
0.286, -5.187e-8
0.287, -5.162e-8
0.288, -5.162e-8
0.289, -5.157e-8
0.290, -5.137e-8
0.291, -5.148e-8
0.292, -5.123e-8
0.293, -5.125e-8
0.294, -5.121e-8
0.295, -5.100e-8
0.296, -5.113e-8
0.297, -5.087e-8
0.298, -5.091e-8
0.299, -5.087e-8
0.300, -4.830e-8
0.299, -4.705e-8
0.298, -4.647e-8
0.297, -4.625e-8
0.296, -4.602e-8
0.295, -4.565e-8
0.294, -4.563e-8
0.293, -4.525e-8
0.292, -4.515e-8
0.291, -4.502e-8
0.290, -4.470e-8
0.289, -4.473e-8
0.288, -4.440e-8
0.287, -4.434e-8
0.286, -4.423e-8
0.285, -4.395e-8
0.284, -4.398e-8
0.283, -4.368e-8
0.282, -4.365e-8
0.281, -4.353e-8
0.280, -4.328e-8
0.279, -4.336e-8
0.278, -4.304e-8
0.277, -4.303e-8
0.276, -4.292e-8
0.275, -4.268e-8
0.274, -4.278e-8
0.273, -4.245e-8
0.272, -4.245e-8
0.271, -4.237e-8
0.270, -4.211e-8
0.269, -4.222e-8
0.268, -4.191e-8
0.267, -4.194e-8
0.266, -4.185e-8
0.265, -4.160e-8
0.264, -4.171e-8
0.263, -4.141e-8
0.262, -4.141e-8
0.261, -4.135e-8
0.260, -4.108e-8
0.259, -4.122e-8
0.258, -4.092e-8
0.257, -4.092e-8
0.256, -4.086e-8
0.255, -4.062e-8
0.254, -4.072e-8
0.253, -4.045e-8
0.252, -4.045e-8
0.251, -4.039e-8
0.250, -4.016e-8
0.249, -4.025e-8
0.248, -3.997e-8
0.247, -3.999e-8
0.246, -3.991e-8
0.245, -3.968e-8
0.244, -3.978e-8
0.243, -3.951e-8
0.242, -3.951e-8
0.241, -3.943e-8
0.240, -3.921e-8
0.239, -3.930e-8
0.238, -3.903e-8
0.237, -3.904e-8
0.236, -3.894e-8
0.235, -3.873e-8
0.234, -3.883e-8
0.233, -3.851e-8
0.232, -3.854e-8
0.231, -3.845e-8
0.230, -3.819e-8
0.229, -3.832e-8
0.228, -3.800e-8
0.227, -3.802e-8
0.226, -3.793e-8
0.225, -3.767e-8
0.224, -3.778e-8
0.223, -3.746e-8
0.222, -3.747e-8
0.221, -3.737e-8
0.220, -3.711e-8
0.219, -3.722e-8
0.218, -3.689e-8
0.217, -3.688e-8
0.216, -3.678e-8
0.215, -3.651e-8
0.214, -3.659e-8
0.213, -3.627e-8
0.212, -3.622e-8
0.211, -3.614e-8
0.210, -3.586e-8
0.209, -3.590e-8
0.208, -3.558e-8
0.207, -3.553e-8
0.206, -3.539e-8
0.205, -3.512e-8
0.204, -3.514e-8
0.203, -3.480e-8
0.202, -3.477e-8
0.201, -3.459e-8
0.200, -3.429e-8
0.199, -3.432e-8
0.198, -3.394e-8
0.197, -3.387e-8
0.196, -3.367e-8
0.195, -3.337e-8
0.194, -3.335e-8
0.193, -3.295e-8
0.192, -3.286e-8
0.191, -3.263e-8
0.190, -3.230e-8
0.189, -3.227e-8
0.188, -3.180e-8
0.187, -3.172e-8
0.186, -3.146e-8
0.185, -3.105e-8
0.184, -3.100e-8
0.183, -3.051e-8
0.182, -3.035e-8
0.181, -3.008e-8
0.180, -2.963e-8
0.179, -2.952e-8
0.178, -2.903e-8
0.177, -2.881e-8
0.176, -2.848e-8
0.175, -2.802e-8
0.174, -2.785e-8
0.173, -2.730e-8
0.172, -2.703e-8
0.171, -2.667e-8
0.170, -2.613e-8
0.169, -2.590e-8
0.168, -2.530e-8
0.167, -2.497e-8
0.166, -2.452e-8
0.165, -2.397e-8
0.164, -2.363e-8
0.163, -2.300e-8
0.162, -2.260e-8
0.161, -2.205e-8
0.160, -2.146e-8
0.159, -2.107e-8
0.158, -2.031e-8
0.157, -1.987e-8
0.156, -1.925e-8
0.155, -1.856e-8
0.154, -1.810e-8
0.153, -1.725e-8
0.152, -1.675e-8
0.151, -1.605e-8
0.150, -1.528e-8
0.149, -1.472e-8
0.148, -1.378e-8
0.147, -1.322e-8
0.146, -1.241e-8
0.145, -1.154e-8
0.144, -1.093e-8
0.143, -9.895e-9
0.142, -9.211e-9
0.141, -8.335e-9
0.140, -7.329e-9
0.139, -6.670e-9
0.138, -5.580e-9
0.137, -4.727e-9
0.136, -3.833e-9
0.135, -2.745e-9
0.134, -1.957e-9
0.133, -8.237e-10
0.132, 1.090e-10
0.131, 1.098e-9
0.130, 2.257e-9
0.129, 3.152e-9
0.128, 4.389e-9
0.127, 5.343e-9
0.126, 6.429e-9
0.125, 7.588e-9
0.124, 8.594e-9
0.123, 9.818e-9
0.122, 1.083e-8
0.121, 1.201e-8
0.120, 1.317e-8
0.119, 1.423e-8
0.118, 1.548e-8
0.117, 1.651e-8
0.116, 1.778e-8
0.115, 1.894e-8
0.114, 1.996e-8
0.113, 2.132e-8
0.112, 2.224e-8
0.111, 2.348e-8
0.110, 2.466e-8
0.109, 2.562e-8
0.108, 2.696e-8
0.107, 2.789e-8
0.106, 2.901e-8
0.105, 3.016e-8
0.104, 3.108e-8
0.103, 3.236e-8
0.102, 3.326e-8
0.101, 3.431e-8
0.100, 3.538e-8
0.099, 3.617e-8
0.098, 3.730e-8
0.097, 3.810e-8
0.096, 3.899e-8
0.095, 3.998e-8
0.094, 4.067e-8
0.093, 4.163e-8
0.092, 4.238e-8
0.091, 4.311e-8
0.090, 4.392e-8
0.089, 4.457e-8
0.088, 4.531e-8
0.087, 4.588e-8
0.086, 4.651e-8
0.085, 4.713e-8
0.084, 4.762e-8
0.083, 4.820e-8
0.082, 4.861e-8
0.081, 4.912e-8
0.080, 4.956e-8
0.079, 4.988e-8
0.078, 5.034e-8
0.077, 5.061e-8
0.076, 5.098e-8
0.075, 5.120e-8
0.074, 5.136e-8
0.073, 5.171e-8
0.072, 5.172e-8
0.071, 5.195e-8
0.070, 5.211e-8
0.069, 5.205e-8
0.068, 5.237e-8
0.067, 5.221e-8
0.066, 5.227e-8
0.065, 5.237e-8
0.064, 5.218e-8
0.063, 5.231e-8
0.062, 5.210e-8
0.061, 5.200e-8
0.060, 5.201e-8
0.059, 5.171e-8
0.058, 5.171e-8
0.057, 5.145e-8
0.056, 5.128e-8
0.055, 5.119e-8
0.054, 5.079e-8
0.053, 5.076e-8
0.052, 5.043e-8
0.051, 5.015e-8
0.050, 5.000e-8
0.049, 4.958e-8
0.048, 4.944e-8
0.047, 4.905e-8
0.046, 4.875e-8
0.045, 4.853e-8
0.044, 4.809e-8
0.043, 4.790e-8
0.042, 4.744e-8
0.041, 4.717e-8
0.040, 4.688e-8
0.039, 4.640e-8
0.038, 4.625e-8
0.037, 4.576e-8
0.036, 4.546e-8
0.035, 4.515e-8
0.034, 4.464e-8
0.033, 4.449e-8
0.032, 4.399e-8
0.031, 4.368e-8
0.030, 4.340e-8
0.029, 4.286e-8
0.028, 4.274e-8
0.027, 4.220e-8
0.026, 4.191e-8
0.025, 4.165e-8
0.024, 4.111e-8
0.023, 4.096e-8
0.022, 4.046e-8
0.021, 4.013e-8
0.020, 3.992e-8
0.019, 3.937e-8
0.018, 3.922e-8
0.017, 3.878e-8
0.016, 3.844e-8
0.015, 3.822e-8
0.014, 3.770e-8
0.013, 3.759e-8
0.012, 3.714e-8
0.011, 3.683e-8
0.010, 3.662e-8
0.009, 3.613e-8
0.008, 3.602e-8
0.007, 3.558e-8
0.006, 3.531e-8
0.005, 3.510e-8
0.004, 3.465e-8
0.003, 3.453e-8
0.002, 3.412e-8
0.001, 3.388e-8
0.000, 3.378e-8
-0.001, 3.325e-8
-0.002, 3.319e-8
-0.003, 3.276e-8
-0.004, 3.255e-8
-0.005, 3.237e-8
-0.006, 3.191e-8
-0.007, 3.189e-8
-0.008, 3.148e-8
-0.009, 3.126e-8
-0.010, 3.113e-8
-0.011, 3.070e-8
-0.012, 3.068e-8
-0.013, 3.030e-8
-0.014, 3.010e-8
-0.015, 2.998e-8
-0.016, 2.957e-8
-0.017, 2.957e-8
-0.018, 2.921e-8
-0.019, 2.902e-8
-0.020, 2.894e-8
-0.021, 2.852e-8
-0.022, 2.853e-8
-0.023, 2.821e-8
-0.024, 2.803e-8
-0.025, 2.795e-8
-0.026, 2.758e-8
-0.027, 2.760e-8
-0.028, 2.727e-8
-0.029, 2.712e-8
-0.030, 2.704e-8
-0.031, 2.668e-8
-0.032, 2.672e-8
-0.033, 2.641e-8
-0.034, 2.627e-8
-0.035, 2.621e-8
-0.036, 2.587e-8
-0.037, 2.591e-8
-0.038, 2.562e-8
-0.039, 2.550e-8
-0.040, 2.543e-8
-0.041, 2.511e-8
-0.042, 2.518e-8
-0.043, 2.487e-8
-0.044, 2.479e-8
-0.045, 2.473e-8
-0.046, 2.441e-8
-0.047, 2.450e-8
-0.048, 2.419e-8
-0.049, 2.411e-8
-0.050, 2.408e-8
-0.051, 2.376e-8
-0.052, 2.387e-8
-0.053, 2.357e-8
-0.054, 2.350e-8
-0.055, 2.348e-8
-0.056, 2.317e-8
-0.057, 2.327e-8
-0.058, 2.301e-8
-0.059, 2.294e-8
-0.060, 2.293e-8
-0.061, 2.262e-8
-0.062, 2.274e-8
-0.063, 2.250e-8
-0.064, 2.242e-8
-0.065, 2.241e-8
-0.066, 2.213e-8
-0.067, 2.224e-8
-0.068, 2.202e-8
-0.069, 2.194e-8
-0.070, 2.194e-8
-0.071, 2.168e-8
-0.072, 2.179e-8
-0.073, 2.155e-8
-0.074, 2.152e-8
-0.075, 2.151e-8
-0.076, 2.126e-8
-0.077, 2.138e-8
-0.078, 2.114e-8
-0.079, 2.112e-8
-0.080, 2.111e-8
-0.081, 2.086e-8
-0.082, 2.100e-8
-0.083, 2.076e-8
-0.084, 2.075e-8
-0.085, 2.075e-8
-0.086, 2.050e-8
-0.087, 2.065e-8
-0.088, 2.041e-8
-0.089, 2.041e-8
-0.090, 2.042e-8
-0.091, 2.017e-8
-0.092, 2.033e-8
-0.093, 2.010e-8
-0.094, 2.009e-8
-0.095, 2.012e-8
-0.096, 1.987e-8
-0.097, 2.003e-8
-0.098, 1.982e-8
-0.099, 1.980e-8
-0.100, 1.985e-8
-0.101, 1.960e-8
-0.102, 1.977e-8
-0.103, 1.956e-8
-0.104, 1.954e-8
-0.105, 1.958e-8
-0.106, 1.935e-8
-0.107, 1.951e-8
-0.108, 1.932e-8
-0.109, 1.930e-8
-0.110, 1.935e-8
-0.111, 1.913e-8
-0.112, 1.928e-8
-0.113, 1.909e-8
-0.114, 1.911e-8
-0.115, 1.913e-8
-0.116, 1.893e-8
-0.117, 1.908e-8
-0.118, 1.888e-8
-0.119, 1.892e-8
-0.120, 1.893e-8
-0.121, 1.874e-8
-0.122, 1.891e-8
-0.123, 1.871e-8
-0.124, 1.875e-8
-0.125, 1.878e-8
-0.126, 1.856e-8
-0.127, 1.876e-8
-0.128, 1.856e-8
-0.129, 1.857e-8
-0.130, 1.863e-8
-0.131, 1.842e-8
-0.132, 1.862e-8
-0.133, 1.841e-8
-0.134, 1.844e-8
-0.135, 1.849e-8
-0.136, 1.828e-8
-0.137, 1.849e-8
-0.138, 1.829e-8
-0.139, 1.832e-8
-0.140, 1.840e-8
-0.141, 1.817e-8
-0.142, 1.837e-8
-0.143, 1.819e-8
-0.144, 1.822e-8
-0.145, 1.828e-8
-0.146, 1.810e-8
-0.147, 1.826e-8
-0.148, 1.811e-8
-0.149, 1.814e-8
-0.150, 1.818e-8
-0.151, 1.801e-8
-0.152, 1.820e-8
-0.153, 1.804e-8
-0.154, 1.807e-8
-0.155, 1.813e-8
-0.156, 1.795e-8
-0.157, 1.814e-8
-0.158, 1.797e-8
-0.159, 1.802e-8
-0.160, 1.807e-8
-0.161, 1.790e-8
-0.162, 1.810e-8
-0.163, 1.792e-8
-0.164, 1.800e-8
-0.165, 1.803e-8
-0.166, 1.786e-8
-0.167, 1.809e-8
-0.168, 1.789e-8
-0.169, 1.796e-8
-0.170, 1.804e-8
-0.171, 1.784e-8
-0.172, 1.807e-8
-0.173, 1.789e-8
-0.174, 1.795e-8
-0.175, 1.803e-8
-0.176, 1.785e-8
-0.177, 1.806e-8
-0.178, 1.791e-8
-0.179, 1.797e-8
-0.180, 1.804e-8
-0.181, 1.786e-8
-0.182, 1.809e-8
-0.183, 1.792e-8
-0.184, 1.798e-8
-0.185, 1.807e-8
-0.186, 1.790e-8
-0.187, 1.811e-8
-0.188, 1.798e-8
-0.189, 1.802e-8
-0.190, 1.810e-8
-0.191, 1.796e-8
-0.192, 1.817e-8
-0.193, 1.802e-8
-0.194, 1.811e-8
-0.195, 1.815e-8
-0.196, 1.802e-8
-0.197, 1.824e-8
-0.198, 1.808e-8
-0.199, 1.817e-8
