Mar. 16, 2023   10:16:42
Cyclic Voltammetry
File: c:/users/oliverrz/desktop/electrolab/data/2023_03_16\fcmeoh_macros_1_mm\electrode7_cv_250mvs_1_mm.bin
Data Source:  Experiment
Instrument Model:  CHI760E
Header: CV
Note: 

Init E (V) = -0.2
High E (V) = 0.3
Low E (V) = -0.2
Final E (V) = -0.2
Init P/N = P
Scan Rate (V/s) = 0.25
Segment = 3
Sample Interval (V) = 0.001
Quiet Time (sec) = 2
Sensitivity (A/V) = 1e-7

Results:

Channel 1:
Segment 1:
Ep = 0.124V
ip = -1.083e-7A
Ah = -2.695e-8C

Segment 2:
Ep = 0.066V
ip = 9.725e-8A
Ah = 2.291e-8C

Segment 3:

Potential/V, Current/A

-0.200, 3.299e-9
-0.199, 2.437e-9
-0.198, 2.130e-9
-0.197, 2.037e-9
-0.196, 2.191e-9
-0.195, 2.253e-9
-0.194, 1.976e-9
-0.193, 1.822e-9
-0.192, 2.007e-9
-0.191, 2.068e-9
-0.190, 1.883e-9
-0.189, 1.730e-9
-0.188, 1.822e-9
-0.187, 1.976e-9
-0.186, 1.822e-9
-0.185, 1.607e-9
-0.184, 1.699e-9
-0.183, 1.853e-9
-0.182, 1.760e-9
-0.181, 1.545e-9
-0.180, 1.545e-9
-0.179, 1.760e-9
-0.178, 1.699e-9
-0.177, 1.453e-9
-0.176, 1.453e-9
-0.175, 1.668e-9
-0.174, 1.637e-9
-0.173, 1.422e-9
-0.172, 1.330e-9
-0.171, 1.545e-9
-0.170, 1.607e-9
-0.169, 1.360e-9
-0.168, 1.268e-9
-0.167, 1.422e-9
-0.166, 1.514e-9
-0.165, 1.360e-9
-0.164, 1.145e-9
-0.163, 1.330e-9
-0.162, 1.453e-9
-0.161, 1.330e-9
-0.160, 1.114e-9
-0.159, 1.176e-9
-0.158, 1.360e-9
-0.157, 1.299e-9
-0.156, 1.053e-9
-0.155, 1.114e-9
-0.154, 1.299e-9
-0.153, 1.237e-9
-0.152, 1.022e-9
-0.151, 1.022e-9
-0.150, 1.207e-9
-0.149, 1.207e-9
-0.148, 9.913e-10
-0.147, 9.298e-10
-0.146, 1.145e-9
-0.145, 1.176e-9
-0.144, 9.913e-10
-0.143, 8.375e-10
-0.142, 1.022e-9
-0.141, 1.145e-9
-0.140, 9.605e-10
-0.139, 8.067e-10
-0.138, 9.298e-10
-0.137, 1.084e-9
-0.136, 9.605e-10
-0.135, 7.452e-10
-0.134, 8.067e-10
-0.133, 1.022e-9
-0.132, 8.990e-10
-0.131, 7.144e-10
-0.130, 7.452e-10
-0.129, 9.298e-10
-0.128, 8.990e-10
-0.127, 6.529e-10
-0.126, 6.529e-10
-0.125, 8.990e-10
-0.124, 8.375e-10
-0.123, 6.529e-10
-0.122, 5.913e-10
-0.121, 7.759e-10
-0.120, 8.375e-10
-0.119, 6.221e-10
-0.118, 4.991e-10
-0.117, 6.836e-10
-0.116, 7.759e-10
-0.115, 6.221e-10
-0.114, 4.683e-10
-0.113, 5.913e-10
-0.112, 7.759e-10
-0.111, 5.913e-10
-0.110, 4.068e-10
-0.109, 4.991e-10
-0.108, 6.836e-10
-0.107, 5.913e-10
-0.106, 3.760e-10
-0.105, 4.068e-10
-0.104, 6.221e-10
-0.103, 5.606e-10
-0.102, 3.145e-10
-0.101, 3.145e-10
-0.100, 5.298e-10
-0.099, 5.298e-10
-0.098, 3.145e-10
-0.097, 2.222e-10
-0.096, 4.683e-10
-0.095, 4.991e-10
-0.094, 2.837e-10
-0.093, 1.606e-10
-0.092, 3.145e-10
-0.091, 4.683e-10
-0.090, 2.529e-10
-0.089, 9.911e-11
-0.088, 2.529e-10
-0.087, 3.760e-10
-0.086, 2.529e-10
-0.085, 3.758e-11
-0.084, 1.299e-10
-0.083, 3.145e-10
-0.082, 2.222e-10
-0.081, -2.395e-11
-0.080, 3.758e-11
-0.079, 2.222e-10
-0.078, 1.606e-10
-0.077, -8.548e-11
-0.076, -8.548e-11
-0.075, 1.299e-10
-0.074, 9.911e-11
-0.073, -1.162e-10
-0.072, -1.778e-10
-0.071, 6.813e-12
-0.070, 3.758e-11
-0.069, -1.778e-10
-0.068, -3.008e-10
-0.067, -1.162e-10
-0.066, -2.395e-11
-0.065, -2.393e-10
-0.064, -3.931e-10
-0.063, -3.008e-10
-0.062, -1.470e-10
-0.061, -2.701e-10
-0.060, -5.470e-10
-0.059, -4.239e-10
-0.058, -2.701e-10
-0.057, -4.239e-10
-0.056, -6.085e-10
-0.055, -6.085e-10
-0.054, -4.239e-10
-0.053, -4.854e-10
-0.052, -7.931e-10
-0.051, -7.931e-10
-0.050, -6.085e-10
-0.049, -6.393e-10
-0.048, -8.546e-10
-0.047, -9.777e-10
-0.046, -7.931e-10
-0.045, -7.931e-10
-0.044, -1.039e-9
-0.043, -1.162e-9
-0.042, -1.039e-9
-0.041, -9.777e-10
-0.040, -1.193e-9
-0.039, -1.408e-9
-0.038, -1.316e-9
-0.037, -1.224e-9
-0.036, -1.408e-9
-0.035, -1.655e-9
-0.034, -1.593e-9
-0.033, -1.470e-9
-0.032, -1.624e-9
-0.031, -1.901e-9
-0.030, -1.931e-9
-0.029, -1.778e-9
-0.028, -1.931e-9
-0.027, -2.239e-9
-0.026, -2.301e-9
-0.025, -2.178e-9
-0.024, -2.270e-9
-0.023, -2.547e-9
-0.022, -2.731e-9
-0.021, -2.577e-9
-0.020, -2.670e-9
-0.019, -2.947e-9
-0.018, -3.162e-9
-0.017, -3.131e-9
-0.016, -3.100e-9
-0.015, -3.439e-9
-0.014, -3.685e-9
-0.013, -3.685e-9
-0.012, -3.716e-9
-0.011, -3.931e-9
-0.010, -4.270e-9
-0.009, -4.362e-9
-0.008, -4.300e-9
-0.007, -4.577e-9
-0.006, -4.977e-9
-0.005, -5.069e-9
-0.004, -5.069e-9
-0.003, -5.316e-9
-0.002, -5.715e-9
-0.001, -5.931e-9
-0.000, -6.054e-9
0.001, -6.208e-9
0.002, -6.638e-9
0.003, -6.915e-9
0.004, -6.977e-9
0.005, -7.161e-9
0.006, -7.654e-9
0.007, -8.054e-9
0.008, -8.146e-9
0.009, -8.331e-9
0.010, -8.823e-9
0.011, -9.253e-9
0.012, -9.500e-9
0.013, -9.684e-9
0.014, -1.018e-8
0.015, -1.073e-8
0.016, -1.098e-8
0.017, -1.125e-8
0.018, -1.175e-8
0.019, -1.233e-8
0.020, -1.276e-8
0.021, -1.298e-8
0.022, -1.350e-8
0.023, -1.421e-8
0.024, -1.467e-8
0.025, -1.504e-8
0.026, -1.556e-8
0.027, -1.630e-8
0.028, -1.698e-8
0.029, -1.728e-8
0.030, -1.790e-8
0.031, -1.873e-8
0.032, -1.941e-8
0.033, -1.996e-8
0.034, -2.048e-8
0.035, -2.137e-8
0.036, -2.224e-8
0.037, -2.285e-8
0.038, -2.353e-8
0.039, -2.442e-8
0.040, -2.537e-8
0.041, -2.614e-8
0.042, -2.682e-8
0.043, -2.780e-8
0.044, -2.888e-8
0.045, -2.974e-8
0.046, -3.051e-8
0.047, -3.159e-8
0.048, -3.270e-8
0.049, -3.374e-8
0.050, -3.457e-8
0.051, -3.571e-8
0.052, -3.697e-8
0.053, -3.811e-8
0.054, -3.903e-8
0.055, -4.020e-8
0.056, -4.150e-8
0.057, -4.282e-8
0.058, -4.386e-8
0.059, -4.500e-8
0.060, -4.648e-8
0.061, -4.780e-8
0.062, -4.900e-8
0.063, -5.026e-8
0.064, -5.165e-8
0.065, -5.322e-8
0.066, -5.445e-8
0.067, -5.562e-8
0.068, -5.725e-8
0.069, -5.866e-8
0.070, -6.008e-8
0.071, -6.134e-8
0.072, -6.288e-8
0.073, -6.448e-8
0.074, -6.580e-8
0.075, -6.709e-8
0.076, -6.869e-8
0.077, -7.023e-8
0.078, -7.177e-8
0.079, -7.306e-8
0.080, -7.438e-8
0.081, -7.608e-8
0.082, -7.749e-8
0.083, -7.872e-8
0.084, -8.011e-8
0.085, -8.161e-8
0.086, -8.306e-8
0.087, -8.432e-8
0.088, -8.549e-8
0.089, -8.700e-8
0.090, -8.838e-8
0.091, -8.955e-8
0.092, -9.066e-8
0.093, -9.198e-8
0.094, -9.324e-8
0.095, -9.438e-8
0.096, -9.524e-8
0.097, -9.647e-8
0.098, -9.767e-8
0.099, -9.860e-8
0.100, -9.946e-8
0.101, -1.003e-7
0.102, -1.015e-7
0.103, -1.024e-7
0.104, -1.030e-7
0.105, -1.038e-7
0.106, -1.046e-7
0.107, -1.053e-7
0.108, -1.059e-7
0.109, -1.063e-7
0.110, -1.071e-7
0.111, -1.077e-7
0.112, -1.080e-7
0.113, -1.084e-7
0.114, -1.089e-7
0.115, -1.093e-7
0.116, -1.096e-7
0.117, -1.097e-7
0.118, -1.101e-7
0.119, -1.103e-7
0.120, -1.105e-7
0.121, -1.104e-7
0.122, -1.105e-7
0.123, -1.107e-7
0.124, -1.108e-7
0.125, -1.105e-7
0.126, -1.105e-7
0.127, -1.106e-7
0.128, -1.105e-7
0.129, -1.102e-7
0.130, -1.100e-7
0.131, -1.099e-7
0.132, -1.098e-7
0.133, -1.093e-7
0.134, -1.090e-7
0.135, -1.088e-7
0.136, -1.086e-7
0.137, -1.082e-7
0.138, -1.077e-7
0.139, -1.074e-7
0.140, -1.072e-7
0.141, -1.067e-7
0.142, -1.061e-7
0.143, -1.058e-7
0.144, -1.055e-7
0.145, -1.050e-7
0.146, -1.043e-7
0.147, -1.039e-7
0.148, -1.036e-7
0.149, -1.031e-7
0.150, -1.024e-7
0.151, -1.019e-7
0.152, -1.015e-7
0.153, -1.011e-7
0.154, -1.004e-7
0.155, -9.980e-8
0.156, -9.949e-8
0.157, -9.900e-8
0.158, -9.832e-8
0.159, -9.770e-8
0.160, -9.727e-8
0.161, -9.693e-8
0.162, -9.623e-8
0.163, -9.558e-8
0.164, -9.518e-8
0.165, -9.481e-8
0.166, -9.417e-8
0.167, -9.346e-8
0.168, -9.303e-8
0.169, -9.272e-8
0.170, -9.213e-8
0.171, -9.140e-8
0.172, -9.097e-8
0.173, -9.063e-8
0.174, -9.013e-8
0.175, -8.946e-8
0.176, -8.890e-8
0.177, -8.866e-8
0.178, -8.820e-8
0.179, -8.752e-8
0.180, -8.703e-8
0.181, -8.669e-8
0.182, -8.632e-8
0.183, -8.570e-8
0.184, -8.509e-8
0.185, -8.484e-8
0.186, -8.454e-8
0.187, -8.392e-8
0.188, -8.337e-8
0.189, -8.306e-8
0.190, -8.281e-8
0.191, -8.229e-8
0.192, -8.167e-8
0.193, -8.140e-8
0.194, -8.118e-8
0.195, -8.072e-8
0.196, -8.011e-8
0.197, -7.977e-8
0.198, -7.961e-8
0.199, -7.921e-8
0.200, -7.863e-8
0.201, -7.826e-8
0.202, -7.811e-8
0.203, -7.777e-8
0.204, -7.721e-8
0.205, -7.681e-8
0.206, -7.666e-8
0.207, -7.641e-8
0.208, -7.589e-8
0.209, -7.549e-8
0.210, -7.534e-8
0.211, -7.512e-8
0.212, -7.466e-8
0.213, -7.420e-8
0.214, -7.401e-8
0.215, -7.392e-8
0.216, -7.349e-8
0.217, -7.303e-8
0.218, -7.284e-8
0.219, -7.272e-8
0.220, -7.241e-8
0.221, -7.189e-8
0.222, -7.168e-8
0.223, -7.165e-8
0.224, -7.134e-8
0.225, -7.088e-8
0.226, -7.060e-8
0.227, -7.057e-8
0.228, -7.035e-8
0.229, -6.989e-8
0.230, -6.961e-8
0.231, -6.955e-8
0.232, -6.940e-8
0.233, -6.900e-8
0.234, -6.863e-8
0.235, -6.860e-8
0.236, -6.851e-8
0.237, -6.814e-8
0.238, -6.777e-8
0.239, -6.768e-8
0.240, -6.765e-8
0.241, -6.734e-8
0.242, -6.694e-8
0.243, -6.681e-8
0.244, -6.685e-8
0.245, -6.657e-8
0.246, -6.617e-8
0.247, -6.605e-8
0.248, -6.602e-8
0.249, -6.586e-8
0.250, -6.546e-8
0.251, -6.525e-8
0.252, -6.531e-8
0.253, -6.512e-8
0.254, -6.475e-8
0.255, -6.457e-8
0.256, -6.454e-8
0.257, -6.448e-8
0.258, -6.414e-8
0.259, -6.386e-8
0.260, -6.389e-8
0.261, -6.383e-8
0.262, -6.355e-8
0.263, -6.322e-8
0.264, -6.322e-8
0.265, -6.325e-8
0.266, -6.297e-8
0.267, -6.263e-8
0.268, -6.260e-8
0.269, -6.263e-8
0.270, -6.245e-8
0.271, -6.205e-8
0.272, -6.198e-8
0.273, -6.208e-8
0.274, -6.192e-8
0.275, -6.155e-8
0.276, -6.143e-8
0.277, -6.149e-8
0.278, -6.140e-8
0.279, -6.109e-8
0.280, -6.091e-8
0.281, -6.097e-8
0.282, -6.094e-8
0.283, -6.063e-8
0.284, -6.042e-8
0.285, -6.048e-8
0.286, -6.048e-8
0.287, -6.023e-8
0.288, -5.992e-8
0.289, -5.999e-8
0.290, -6.008e-8
0.291, -5.980e-8
0.292, -5.952e-8
0.293, -5.949e-8
0.294, -5.962e-8
0.295, -5.946e-8
0.296, -5.909e-8
0.297, -5.909e-8
0.298, -5.919e-8
0.299, -5.906e-8
0.300, -5.722e-8
0.299, -5.525e-8
0.298, -5.512e-8
0.297, -5.488e-8
0.296, -5.445e-8
0.295, -5.417e-8
0.294, -5.414e-8
0.293, -5.408e-8
0.292, -5.365e-8
0.291, -5.340e-8
0.290, -5.340e-8
0.289, -5.334e-8
0.288, -5.306e-8
0.287, -5.272e-8
0.286, -5.272e-8
0.285, -5.276e-8
0.284, -5.248e-8
0.283, -5.217e-8
0.282, -5.211e-8
0.281, -5.217e-8
0.280, -5.199e-8
0.279, -5.159e-8
0.278, -5.152e-8
0.277, -5.162e-8
0.276, -5.146e-8
0.275, -5.112e-8
0.274, -5.097e-8
0.273, -5.106e-8
0.272, -5.100e-8
0.271, -5.063e-8
0.270, -5.048e-8
0.269, -5.054e-8
0.268, -5.054e-8
0.267, -5.020e-8
0.266, -4.999e-8
0.265, -5.005e-8
0.264, -5.005e-8
0.263, -4.977e-8
0.262, -4.952e-8
0.261, -4.952e-8
0.260, -4.959e-8
0.259, -4.937e-8
0.258, -4.906e-8
0.257, -4.903e-8
0.256, -4.913e-8
0.255, -4.897e-8
0.254, -4.863e-8
0.253, -4.857e-8
0.252, -4.866e-8
0.251, -4.854e-8
0.250, -4.820e-8
0.249, -4.808e-8
0.248, -4.820e-8
0.247, -4.811e-8
0.246, -4.777e-8
0.245, -4.765e-8
0.244, -4.768e-8
0.243, -4.768e-8
0.242, -4.737e-8
0.241, -4.713e-8
0.240, -4.725e-8
0.239, -4.722e-8
0.238, -4.697e-8
0.237, -4.669e-8
0.236, -4.669e-8
0.235, -4.679e-8
0.234, -4.651e-8
0.233, -4.623e-8
0.232, -4.620e-8
0.231, -4.626e-8
0.230, -4.611e-8
0.229, -4.574e-8
0.228, -4.565e-8
0.227, -4.577e-8
0.226, -4.559e-8
0.225, -4.528e-8
0.224, -4.513e-8
0.223, -4.519e-8
0.222, -4.509e-8
0.221, -4.476e-8
0.220, -4.457e-8
0.219, -4.460e-8
0.218, -4.457e-8
0.217, -4.420e-8
0.216, -4.399e-8
0.215, -4.399e-8
0.214, -4.399e-8
0.213, -4.368e-8
0.212, -4.334e-8
0.211, -4.334e-8
0.210, -4.334e-8
0.209, -4.306e-8
0.208, -4.273e-8
0.207, -4.260e-8
0.206, -4.263e-8
0.205, -4.239e-8
0.204, -4.196e-8
0.203, -4.186e-8
0.202, -4.183e-8
0.201, -4.162e-8
0.200, -4.125e-8
0.199, -4.100e-8
0.198, -4.103e-8
0.197, -4.082e-8
0.196, -4.036e-8
0.195, -4.014e-8
0.194, -4.005e-8
0.193, -3.990e-8
0.192, -3.943e-8
0.191, -3.906e-8
0.190, -3.900e-8
0.189, -3.885e-8
0.188, -3.842e-8
0.187, -3.799e-8
0.186, -3.780e-8
0.185, -3.771e-8
0.184, -3.725e-8
0.183, -3.673e-8
0.182, -3.654e-8
0.181, -3.636e-8
0.180, -3.593e-8
0.179, -3.537e-8
0.178, -3.503e-8
0.177, -3.488e-8
0.176, -3.448e-8
0.175, -3.387e-8
0.174, -3.343e-8
0.173, -3.319e-8
0.172, -3.279e-8
0.171, -3.214e-8
0.170, -3.165e-8
0.169, -3.131e-8
0.168, -3.091e-8
0.167, -3.017e-8
0.166, -2.956e-8
0.165, -2.919e-8
0.164, -2.873e-8
0.163, -2.805e-8
0.162, -2.728e-8
0.161, -2.682e-8
0.160, -2.639e-8
0.159, -2.559e-8
0.158, -2.476e-8
0.157, -2.421e-8
0.156, -2.362e-8
0.155, -2.291e-8
0.154, -2.190e-8
0.153, -2.125e-8
0.152, -2.064e-8
0.151, -1.978e-8
0.150, -1.879e-8
0.149, -1.796e-8
0.148, -1.725e-8
0.147, -1.645e-8
0.146, -1.531e-8
0.145, -1.436e-8
0.144, -1.359e-8
0.143, -1.267e-8
0.142, -1.147e-8
0.141, -1.036e-8
0.140, -9.469e-9
0.139, -8.577e-9
0.138, -7.285e-9
0.137, -6.054e-9
0.136, -5.069e-9
0.135, -3.993e-9
0.134, -2.824e-9
0.133, -1.378e-9
0.132, -2.701e-10
0.131, 7.759e-10
0.130, 2.160e-9
0.129, 3.637e-9
0.128, 4.837e-9
0.127, 6.068e-9
0.126, 7.390e-9
0.125, 8.929e-9
0.124, 1.031e-8
0.123, 1.145e-8
0.122, 1.293e-8
0.121, 1.444e-8
0.120, 1.585e-8
0.119, 1.727e-8
0.118, 1.853e-8
0.117, 2.022e-8
0.116, 2.176e-8
0.115, 2.299e-8
0.114, 2.450e-8
0.113, 2.603e-8
0.112, 2.757e-8
0.111, 2.893e-8
0.110, 3.028e-8
0.109, 3.185e-8
0.108, 3.351e-8
0.107, 3.474e-8
0.106, 3.619e-8
0.105, 3.754e-8
0.104, 3.920e-8
0.103, 4.056e-8
0.102, 4.182e-8
0.101, 4.314e-8
0.100, 4.471e-8
0.099, 4.585e-8
0.098, 4.714e-8
0.097, 4.831e-8
0.096, 4.975e-8
0.095, 5.102e-8
0.094, 5.194e-8
0.093, 5.314e-8
0.092, 5.437e-8
0.091, 5.548e-8
0.090, 5.643e-8
0.089, 5.735e-8
0.088, 5.843e-8
0.087, 5.954e-8
0.086, 6.012e-8
0.085, 6.095e-8
0.084, 6.191e-8
0.083, 6.271e-8
0.082, 6.344e-8
0.081, 6.394e-8
0.080, 6.468e-8
0.079, 6.547e-8
0.078, 6.587e-8
0.077, 6.637e-8
0.076, 6.689e-8
0.075, 6.741e-8
0.074, 6.781e-8
0.073, 6.803e-8
0.072, 6.831e-8
0.071, 6.883e-8
0.070, 6.895e-8
0.069, 6.907e-8
0.068, 6.920e-8
0.067, 6.944e-8
0.066, 6.966e-8
0.065, 6.951e-8
0.064, 6.944e-8
0.063, 6.960e-8
0.062, 6.966e-8
0.061, 6.947e-8
0.060, 6.923e-8
0.059, 6.917e-8
0.058, 6.923e-8
0.057, 6.892e-8
0.056, 6.855e-8
0.055, 6.846e-8
0.054, 6.831e-8
0.053, 6.797e-8
0.052, 6.757e-8
0.051, 6.726e-8
0.050, 6.720e-8
0.049, 6.677e-8
0.048, 6.618e-8
0.047, 6.587e-8
0.046, 6.563e-8
0.045, 6.523e-8
0.044, 6.471e-8
0.043, 6.412e-8
0.042, 6.397e-8
0.041, 6.354e-8
0.040, 6.289e-8
0.039, 6.240e-8
0.038, 6.203e-8
0.037, 6.172e-8
0.036, 6.111e-8
0.035, 6.043e-8
0.034, 6.012e-8
0.033, 5.975e-8
0.032, 5.914e-8
0.031, 5.855e-8
0.030, 5.806e-8
0.029, 5.778e-8
0.028, 5.726e-8
0.027, 5.652e-8
0.026, 5.609e-8
0.025, 5.578e-8
0.024, 5.526e-8
0.023, 5.458e-8
0.022, 5.406e-8
0.021, 5.375e-8
0.020, 5.332e-8
0.019, 5.265e-8
0.018, 5.209e-8
0.017, 5.182e-8
0.016, 5.142e-8
0.015, 5.080e-8
0.014, 5.018e-8
0.013, 4.988e-8
0.012, 4.960e-8
0.011, 4.895e-8
0.010, 4.837e-8
0.009, 4.803e-8
0.008, 4.775e-8
0.007, 4.723e-8
0.006, 4.659e-8
0.005, 4.622e-8
0.004, 4.603e-8
0.003, 4.554e-8
0.002, 4.495e-8
0.001, 4.455e-8
0.000, 4.446e-8
-0.001, 4.400e-8
-0.002, 4.335e-8
-0.003, 4.295e-8
-0.004, 4.280e-8
-0.005, 4.243e-8
-0.006, 4.191e-8
-0.007, 4.145e-8
-0.008, 4.126e-8
-0.009, 4.102e-8
-0.010, 4.046e-8
-0.011, 4.000e-8
-0.012, 3.982e-8
-0.013, 3.960e-8
-0.014, 3.914e-8
-0.015, 3.865e-8
-0.016, 3.843e-8
-0.017, 3.831e-8
-0.018, 3.788e-8
-0.019, 3.739e-8
-0.020, 3.714e-8
-0.021, 3.705e-8
-0.022, 3.671e-8
-0.023, 3.622e-8
-0.024, 3.594e-8
-0.025, 3.588e-8
-0.026, 3.560e-8
-0.027, 3.511e-8
-0.028, 3.483e-8
-0.029, 3.477e-8
-0.030, 3.453e-8
-0.031, 3.409e-8
-0.032, 3.373e-8
-0.033, 3.369e-8
-0.034, 3.354e-8
-0.035, 3.311e-8
-0.036, 3.277e-8
-0.037, 3.268e-8
-0.038, 3.259e-8
-0.039, 3.222e-8
-0.040, 3.179e-8
-0.041, 3.173e-8
-0.042, 3.166e-8
-0.043, 3.136e-8
-0.044, 3.096e-8
-0.045, 3.080e-8
-0.046, 3.083e-8
-0.047, 3.056e-8
-0.048, 3.013e-8
-0.049, 2.997e-8
-0.050, 3.000e-8
-0.051, 2.982e-8
-0.052, 2.939e-8
-0.053, 2.917e-8
-0.054, 2.920e-8
-0.055, 2.908e-8
-0.056, 2.871e-8
-0.057, 2.843e-8
-0.058, 2.846e-8
-0.059, 2.837e-8
-0.060, 2.806e-8
-0.061, 2.773e-8
-0.062, 2.776e-8
-0.063, 2.776e-8
-0.064, 2.742e-8
-0.065, 2.711e-8
-0.066, 2.705e-8
-0.067, 2.708e-8
-0.068, 2.686e-8
-0.069, 2.650e-8
-0.070, 2.643e-8
-0.071, 2.650e-8
-0.072, 2.628e-8
-0.073, 2.597e-8
-0.074, 2.582e-8
-0.075, 2.591e-8
-0.076, 2.579e-8
-0.077, 2.542e-8
-0.078, 2.530e-8
-0.079, 2.536e-8
-0.080, 2.526e-8
-0.081, 2.496e-8
-0.082, 2.471e-8
-0.083, 2.483e-8
-0.084, 2.480e-8
-0.085, 2.447e-8
-0.086, 2.425e-8
-0.087, 2.428e-8
-0.088, 2.431e-8
-0.089, 2.407e-8
-0.090, 2.376e-8
-0.091, 2.379e-8
-0.092, 2.385e-8
-0.093, 2.363e-8
-0.094, 2.336e-8
-0.095, 2.333e-8
-0.096, 2.342e-8
-0.097, 2.327e-8
-0.098, 2.296e-8
-0.099, 2.287e-8
-0.100, 2.299e-8
-0.101, 2.287e-8
-0.102, 2.259e-8
-0.103, 2.247e-8
-0.104, 2.256e-8
-0.105, 2.253e-8
-0.106, 2.222e-8
-0.107, 2.207e-8
-0.108, 2.219e-8
-0.109, 2.216e-8
-0.110, 2.194e-8
-0.111, 2.173e-8
-0.112, 2.176e-8
-0.113, 2.185e-8
-0.114, 2.160e-8
-0.115, 2.139e-8
-0.116, 2.142e-8
-0.117, 2.148e-8
-0.118, 2.133e-8
-0.119, 2.105e-8
-0.120, 2.105e-8
-0.121, 2.120e-8
-0.122, 2.102e-8
-0.123, 2.077e-8
-0.124, 2.071e-8
-0.125, 2.087e-8
-0.126, 2.077e-8
-0.127, 2.050e-8
-0.128, 2.040e-8
-0.129, 2.056e-8
-0.130, 2.053e-8
-0.131, 2.025e-8
-0.132, 2.010e-8
-0.133, 2.022e-8
-0.134, 2.028e-8
-0.135, 2.003e-8
-0.136, 1.982e-8
-0.137, 1.994e-8
-0.138, 2.003e-8
-0.139, 1.979e-8
-0.140, 1.957e-8
-0.141, 1.963e-8
-0.142, 1.973e-8
-0.143, 1.963e-8
-0.144, 1.933e-8
-0.145, 1.936e-8
-0.146, 1.951e-8
-0.147, 1.936e-8
-0.148, 1.917e-8
-0.149, 1.911e-8
-0.150, 1.930e-8
-0.151, 1.923e-8
-0.152, 1.893e-8
-0.153, 1.890e-8
-0.154, 1.902e-8
-0.155, 1.902e-8
-0.156, 1.880e-8
-0.157, 1.862e-8
-0.158, 1.884e-8
-0.159, 1.884e-8
-0.160, 1.859e-8
-0.161, 1.847e-8
-0.162, 1.853e-8
-0.163, 1.865e-8
-0.164, 1.847e-8
-0.165, 1.825e-8
-0.166, 1.834e-8
-0.167, 1.847e-8
-0.168, 1.831e-8
-0.169, 1.810e-8
-0.170, 1.813e-8
-0.171, 1.828e-8
-0.172, 1.819e-8
-0.173, 1.794e-8
-0.174, 1.791e-8
-0.175, 1.810e-8
-0.176, 1.807e-8
-0.177, 1.779e-8
-0.178, 1.773e-8
-0.179, 1.791e-8
-0.180, 1.794e-8
-0.181, 1.770e-8
-0.182, 1.754e-8
-0.183, 1.776e-8
-0.184, 1.779e-8
-0.185, 1.760e-8
-0.186, 1.742e-8
-0.187, 1.754e-8
-0.188, 1.767e-8
-0.189, 1.745e-8
-0.190, 1.730e-8
-0.191, 1.739e-8
-0.192, 1.751e-8
-0.193, 1.739e-8
-0.194, 1.714e-8
-0.195, 1.724e-8
-0.196, 1.742e-8
-0.197, 1.730e-8
-0.198, 1.708e-8
-0.199, 1.705e-8
