Mar. 16, 2023   10:12:22
Cyclic Voltammetry
File: c:/users/oliverrz/desktop/electrolab/data/2023_03_16\fcmeoh_macros_1_mm\electrode4_cv_150mvs_1_mm.bin
Data Source:  Experiment
Instrument Model:  CHI760E
Header: CV
Note: 

Init E (V) = -0.2
High E (V) = 0.3
Low E (V) = -0.2
Final E (V) = -0.2
Init P/N = P
Scan Rate (V/s) = 0.15
Segment = 3
Sample Interval (V) = 0.001
Quiet Time (sec) = 2
Sensitivity (A/V) = 1e-7

Results:

Channel 1:
Segment 1:
Ep = 0.122V
ip = -8.023e-8A
Ah = -3.372e-8C

Segment 2:
Ep = 0.057V
ip = 7.628e-8A
Ah = 3.212e-8C

Segment 3:

Potential/V, Current/A

-0.200, 1.345e-8
-0.199, 1.263e-8
-0.198, 1.225e-8
-0.197, 1.208e-8
-0.196, 1.188e-8
-0.195, 1.161e-8
-0.194, 1.155e-8
-0.193, 1.127e-8
-0.192, 1.115e-8
-0.191, 1.102e-8
-0.190, 1.078e-8
-0.189, 1.073e-8
-0.188, 1.050e-8
-0.187, 1.038e-8
-0.186, 1.028e-8
-0.185, 1.003e-8
-0.184, 1.001e-8
-0.183, 9.790e-9
-0.182, 9.677e-9
-0.181, 9.581e-9
-0.180, 9.353e-9
-0.179, 9.329e-9
-0.178, 9.125e-9
-0.177, 9.016e-9
-0.176, 8.939e-9
-0.175, 8.727e-9
-0.174, 8.694e-9
-0.173, 8.513e-9
-0.172, 8.401e-9
-0.171, 8.314e-9
-0.170, 8.133e-9
-0.169, 8.097e-9
-0.168, 7.919e-9
-0.167, 7.836e-9
-0.166, 7.741e-9
-0.165, 7.562e-9
-0.164, 7.548e-9
-0.163, 7.365e-9
-0.162, 7.293e-9
-0.161, 7.205e-9
-0.160, 7.030e-9
-0.159, 7.034e-9
-0.158, 6.845e-9
-0.157, 6.782e-9
-0.156, 6.700e-9
-0.155, 6.532e-9
-0.154, 6.528e-9
-0.153, 6.339e-9
-0.152, 6.305e-9
-0.151, 6.229e-9
-0.150, 6.043e-9
-0.149, 6.071e-9
-0.148, 5.895e-9
-0.147, 5.833e-9
-0.146, 5.789e-9
-0.145, 5.590e-9
-0.144, 5.622e-9
-0.143, 5.468e-9
-0.142, 5.389e-9
-0.141, 5.347e-9
-0.140, 5.180e-9
-0.139, 5.196e-9
-0.138, 5.044e-9
-0.137, 4.979e-9
-0.136, 4.944e-9
-0.135, 4.782e-9
-0.134, 4.806e-9
-0.133, 4.649e-9
-0.132, 4.596e-9
-0.131, 4.561e-9
-0.130, 4.397e-9
-0.129, 4.416e-9
-0.128, 4.284e-9
-0.127, 4.225e-9
-0.126, 4.180e-9
-0.125, 4.048e-9
-0.124, 4.067e-9
-0.123, 3.908e-9
-0.122, 3.894e-9
-0.121, 3.832e-9
-0.120, 3.692e-9
-0.119, 3.732e-9
-0.118, 3.572e-9
-0.117, 3.551e-9
-0.116, 3.519e-9
-0.115, 3.350e-9
-0.114, 3.413e-9
-0.113, 3.257e-9
-0.112, 3.231e-9
-0.111, 3.196e-9
-0.110, 3.047e-9
-0.109, 3.101e-9
-0.108, 2.953e-9
-0.107, 2.928e-9
-0.106, 2.896e-9
-0.105, 2.732e-9
-0.104, 2.809e-9
-0.103, 2.647e-9
-0.102, 2.611e-9
-0.101, 2.612e-9
-0.100, 2.459e-9
-0.099, 2.496e-9
-0.098, 2.393e-9
-0.097, 2.331e-9
-0.096, 2.333e-9
-0.095, 2.196e-9
-0.094, 2.228e-9
-0.093, 2.103e-9
-0.092, 2.078e-9
-0.091, 2.048e-9
-0.090, 1.909e-9
-0.089, 1.958e-9
-0.088, 1.839e-9
-0.087, 1.807e-9
-0.086, 1.781e-9
-0.085, 1.649e-9
-0.084, 1.694e-9
-0.083, 1.577e-9
-0.082, 1.546e-9
-0.081, 1.506e-9
-0.080, 1.402e-9
-0.079, 1.435e-9
-0.078, 1.297e-9
-0.077, 1.282e-9
-0.076, 1.255e-9
-0.075, 1.117e-9
-0.074, 1.194e-9
-0.073, 1.034e-9
-0.072, 1.018e-9
-0.071, 1.014e-9
-0.070, 8.539e-10
-0.069, 9.167e-10
-0.068, 7.833e-10
-0.067, 7.523e-10
-0.066, 7.364e-10
-0.065, 5.855e-10
-0.064, 6.410e-10
-0.063, 5.041e-10
-0.062, 4.696e-10
-0.061, 4.632e-10
-0.060, 2.988e-10
-0.059, 3.590e-10
-0.058, 2.344e-10
-0.057, 1.770e-10
-0.056, 1.867e-10
-0.055, 2.573e-11
-0.054, 5.670e-11
-0.053, -6.259e-11
-0.052, -1.041e-10
-0.051, -1.503e-10
-0.050, -2.709e-10
-0.049, -2.559e-10
-0.048, -3.771e-10
-0.047, -4.198e-10
-0.046, -4.627e-10
-0.045, -6.088e-10
-0.044, -5.739e-10
-0.043, -7.290e-10
-0.042, -7.637e-10
-0.041, -8.148e-10
-0.040, -9.658e-10
-0.039, -9.420e-10
-0.038, -1.097e-9
-0.037, -1.142e-9
-0.036, -1.198e-9
-0.035, -1.359e-9
-0.034, -1.341e-9
-0.033, -1.517e-9
-0.032, -1.561e-9
-0.031, -1.620e-9
-0.030, -1.823e-9
-0.029, -1.790e-9
-0.028, -1.976e-9
-0.027, -2.055e-9
-0.026, -2.118e-9
-0.025, -2.320e-9
-0.024, -2.322e-9
-0.023, -2.493e-9
-0.022, -2.598e-9
-0.021, -2.676e-9
-0.020, -2.885e-9
-0.019, -2.903e-9
-0.018, -3.108e-9
-0.017, -3.234e-9
-0.016, -3.319e-9
-0.015, -3.535e-9
-0.014, -3.592e-9
-0.013, -3.797e-9
-0.012, -3.948e-9
-0.011, -4.059e-9
-0.010, -4.294e-9
-0.009, -4.392e-9
-0.008, -4.620e-9
-0.007, -4.766e-9
-0.006, -4.946e-9
-0.005, -5.195e-9
-0.004, -5.300e-9
-0.003, -5.583e-9
-0.002, -5.754e-9
-0.001, -5.952e-9
-0.000, -6.365e-9
0.001, -6.411e-9
0.002, -6.736e-9
0.003, -6.923e-9
0.004, -7.166e-9
0.005, -7.506e-9
0.006, -7.676e-9
0.007, -8.043e-9
0.008, -8.286e-9
0.009, -8.557e-9
0.010, -8.956e-9
0.011, -9.164e-9
0.012, -9.574e-9
0.013, -9.892e-9
0.014, -1.019e-8
0.015, -1.065e-8
0.016, -1.092e-8
0.017, -1.135e-8
0.018, -1.176e-8
0.019, -1.211e-8
0.020, -1.262e-8
0.021, -1.296e-8
0.022, -1.345e-8
0.023, -1.392e-8
0.024, -1.433e-8
0.025, -1.492e-8
0.026, -1.535e-8
0.027, -1.592e-8
0.028, -1.645e-8
0.029, -1.695e-8
0.030, -1.759e-8
0.031, -1.811e-8
0.032, -1.872e-8
0.033, -1.933e-8
0.034, -1.996e-8
0.035, -2.063e-8
0.036, -2.125e-8
0.037, -2.196e-8
0.038, -2.263e-8
0.039, -2.339e-8
0.040, -2.414e-8
0.041, -2.482e-8
0.042, -2.569e-8
0.043, -2.641e-8
0.044, -2.723e-8
0.045, -2.808e-8
0.046, -2.885e-8
0.047, -2.981e-8
0.048, -3.063e-8
0.049, -3.154e-8
0.050, -3.252e-8
0.051, -3.338e-8
0.052, -3.441e-8
0.053, -3.532e-8
0.054, -3.628e-8
0.055, -3.737e-8
0.056, -3.826e-8
0.057, -3.936e-8
0.058, -4.042e-8
0.059, -4.143e-8
0.060, -4.259e-8
0.061, -4.356e-8
0.062, -4.470e-8
0.063, -4.588e-8
0.064, -4.691e-8
0.065, -4.812e-8
0.066, -4.917e-8
0.067, -5.036e-8
0.068, -5.150e-8
0.069, -5.261e-8
0.070, -5.380e-8
0.071, -5.495e-8
0.072, -5.607e-8
0.073, -5.724e-8
0.074, -5.841e-8
0.075, -5.955e-8
0.076, -6.071e-8
0.077, -6.187e-8
0.078, -6.299e-8
0.079, -6.418e-8
0.080, -6.520e-8
0.081, -6.630e-8
0.082, -6.745e-8
0.083, -6.841e-8
0.084, -6.955e-8
0.085, -7.058e-8
0.086, -7.152e-8
0.087, -7.264e-8
0.088, -7.354e-8
0.089, -7.453e-8
0.090, -7.552e-8
0.091, -7.632e-8
0.092, -7.731e-8
0.093, -7.809e-8
0.094, -7.892e-8
0.095, -7.979e-8
0.096, -8.043e-8
0.097, -8.127e-8
0.098, -8.197e-8
0.099, -8.259e-8
0.100, -8.335e-8
0.101, -8.384e-8
0.102, -8.451e-8
0.103, -8.508e-8
0.104, -8.553e-8
0.105, -8.608e-8
0.106, -8.648e-8
0.107, -8.689e-8
0.108, -8.730e-8
0.109, -8.761e-8
0.110, -8.793e-8
0.111, -8.827e-8
0.112, -8.848e-8
0.113, -8.871e-8
0.114, -8.892e-8
0.115, -8.911e-8
0.116, -8.922e-8
0.117, -8.933e-8
0.118, -8.939e-8
0.119, -8.947e-8
0.120, -8.949e-8
0.121, -8.943e-8
0.122, -8.950e-8
0.123, -8.938e-8
0.124, -8.934e-8
0.125, -8.926e-8
0.126, -8.905e-8
0.127, -8.904e-8
0.128, -8.885e-8
0.129, -8.865e-8
0.130, -8.855e-8
0.131, -8.821e-8
0.132, -8.807e-8
0.133, -8.781e-8
0.134, -8.751e-8
0.135, -8.735e-8
0.136, -8.694e-8
0.137, -8.671e-8
0.138, -8.641e-8
0.139, -8.606e-8
0.140, -8.582e-8
0.141, -8.540e-8
0.142, -8.513e-8
0.143, -8.479e-8
0.144, -8.436e-8
0.145, -8.409e-8
0.146, -8.365e-8
0.147, -8.331e-8
0.148, -8.295e-8
0.149, -8.254e-8
0.150, -8.222e-8
0.151, -8.180e-8
0.152, -8.144e-8
0.153, -8.105e-8
0.154, -8.067e-8
0.155, -8.030e-8
0.156, -7.984e-8
0.157, -7.952e-8
0.158, -7.910e-8
0.159, -7.871e-8
0.160, -7.834e-8
0.161, -7.789e-8
0.162, -7.758e-8
0.163, -7.717e-8
0.164, -7.674e-8
0.165, -7.644e-8
0.166, -7.598e-8
0.167, -7.569e-8
0.168, -7.527e-8
0.169, -7.487e-8
0.170, -7.459e-8
0.171, -7.413e-8
0.172, -7.383e-8
0.173, -7.345e-8
0.174, -7.305e-8
0.175, -7.282e-8
0.176, -7.233e-8
0.177, -7.207e-8
0.178, -7.173e-8
0.179, -7.134e-8
0.180, -7.110e-8
0.181, -7.067e-8
0.182, -7.039e-8
0.183, -7.008e-8
0.184, -6.969e-8
0.185, -6.946e-8
0.186, -6.907e-8
0.187, -6.882e-8
0.188, -6.851e-8
0.189, -6.817e-8
0.190, -6.795e-8
0.191, -6.757e-8
0.192, -6.736e-8
0.193, -6.705e-8
0.194, -6.673e-8
0.195, -6.653e-8
0.196, -6.618e-8
0.197, -6.597e-8
0.198, -6.568e-8
0.199, -6.540e-8
0.200, -6.520e-8
0.201, -6.486e-8
0.202, -6.469e-8
0.203, -6.441e-8
0.204, -6.414e-8
0.205, -6.399e-8
0.206, -6.364e-8
0.207, -6.350e-8
0.208, -6.324e-8
0.209, -6.297e-8
0.210, -6.284e-8
0.211, -6.251e-8
0.212, -6.237e-8
0.213, -6.213e-8
0.214, -6.187e-8
0.215, -6.177e-8
0.216, -6.145e-8
0.217, -6.131e-8
0.218, -6.111e-8
0.219, -6.085e-8
0.220, -6.077e-8
0.221, -6.047e-8
0.222, -6.035e-8
0.223, -6.018e-8
0.224, -5.992e-8
0.225, -5.985e-8
0.226, -5.959e-8
0.227, -5.945e-8
0.228, -5.928e-8
0.229, -5.907e-8
0.230, -5.898e-8
0.231, -5.874e-8
0.232, -5.862e-8
0.233, -5.846e-8
0.234, -5.826e-8
0.235, -5.818e-8
0.236, -5.793e-8
0.237, -5.786e-8
0.238, -5.769e-8
0.239, -5.751e-8
0.240, -5.743e-8
0.241, -5.720e-8
0.242, -5.713e-8
0.243, -5.698e-8
0.244, -5.680e-8
0.245, -5.676e-8
0.246, -5.652e-8
0.247, -5.647e-8
0.248, -5.632e-8
0.249, -5.615e-8
0.250, -5.612e-8
0.251, -5.588e-8
0.252, -5.584e-8
0.253, -5.571e-8
0.254, -5.553e-8
0.255, -5.553e-8
0.256, -5.530e-8
0.257, -5.525e-8
0.258, -5.514e-8
0.259, -5.497e-8
0.260, -5.495e-8
0.261, -5.475e-8
0.262, -5.470e-8
0.263, -5.459e-8
0.264, -5.443e-8
0.265, -5.442e-8
0.266, -5.422e-8
0.267, -5.419e-8
0.268, -5.409e-8
0.269, -5.394e-8
0.270, -5.394e-8
0.271, -5.375e-8
0.272, -5.372e-8
0.273, -5.362e-8
0.274, -5.349e-8
0.275, -5.347e-8
0.276, -5.332e-8
0.277, -5.328e-8
0.278, -5.318e-8
0.279, -5.307e-8
0.280, -5.306e-8
0.281, -5.289e-8
0.282, -5.289e-8
0.283, -5.280e-8
0.284, -5.266e-8
0.285, -5.269e-8
0.286, -5.249e-8
0.287, -5.251e-8
0.288, -5.241e-8
0.289, -5.230e-8
0.290, -5.233e-8
0.291, -5.214e-8
0.292, -5.215e-8
0.293, -5.207e-8
0.294, -5.196e-8
0.295, -5.200e-8
0.296, -5.182e-8
0.297, -5.182e-8
0.298, -5.177e-8
0.299, -5.163e-8
0.300, -4.910e-8
0.299, -4.736e-8
0.298, -4.701e-8
0.297, -4.669e-8
0.296, -4.638e-8
0.295, -4.624e-8
0.294, -4.592e-8
0.293, -4.580e-8
0.292, -4.559e-8
0.291, -4.538e-8
0.290, -4.529e-8
0.289, -4.502e-8
0.288, -4.495e-8
0.287, -4.478e-8
0.286, -4.458e-8
0.285, -4.456e-8
0.284, -4.429e-8
0.283, -4.425e-8
0.282, -4.410e-8
0.281, -4.390e-8
0.280, -4.389e-8
0.279, -4.367e-8
0.278, -4.360e-8
0.277, -4.350e-8
0.276, -4.331e-8
0.275, -4.331e-8
0.274, -4.310e-8
0.273, -4.305e-8
0.272, -4.294e-8
0.271, -4.278e-8
0.270, -4.277e-8
0.269, -4.257e-8
0.268, -4.251e-8
0.267, -4.242e-8
0.266, -4.227e-8
0.265, -4.225e-8
0.264, -4.207e-8
0.263, -4.203e-8
0.262, -4.192e-8
0.261, -4.179e-8
0.260, -4.177e-8
0.259, -4.160e-8
0.258, -4.156e-8
0.257, -4.145e-8
0.256, -4.131e-8
0.255, -4.132e-8
0.254, -4.112e-8
0.253, -4.110e-8
0.252, -4.100e-8
0.251, -4.087e-8
0.250, -4.087e-8
0.249, -4.067e-8
0.248, -4.065e-8
0.247, -4.056e-8
0.246, -4.041e-8
0.245, -4.042e-8
0.244, -4.022e-8
0.243, -4.021e-8
0.242, -4.012e-8
0.241, -3.995e-8
0.240, -3.999e-8
0.239, -3.978e-8
0.238, -3.975e-8
0.237, -3.967e-8
0.236, -3.951e-8
0.235, -3.953e-8
0.234, -3.935e-8
0.233, -3.929e-8
0.232, -3.921e-8
0.231, -3.906e-8
0.230, -3.906e-8
0.229, -3.889e-8
0.228, -3.883e-8
0.227, -3.874e-8
0.226, -3.859e-8
0.225, -3.859e-8
0.224, -3.840e-8
0.223, -3.836e-8
0.222, -3.825e-8
0.221, -3.809e-8
0.220, -3.807e-8
0.219, -3.790e-8
0.218, -3.784e-8
0.217, -3.772e-8
0.216, -3.758e-8
0.215, -3.755e-8
0.214, -3.735e-8
0.213, -3.731e-8
0.212, -3.717e-8
0.211, -3.702e-8
0.210, -3.698e-8
0.209, -3.676e-8
0.208, -3.671e-8
0.207, -3.658e-8
0.206, -3.639e-8
0.205, -3.636e-8
0.204, -3.611e-8
0.203, -3.605e-8
0.202, -3.592e-8
0.201, -3.570e-8
0.200, -3.567e-8
0.199, -3.543e-8
0.198, -3.533e-8
0.197, -3.518e-8
0.196, -3.495e-8
0.195, -3.490e-8
0.194, -3.463e-8
0.193, -3.451e-8
0.192, -3.434e-8
0.191, -3.409e-8
0.190, -3.400e-8
0.189, -3.374e-8
0.188, -3.357e-8
0.187, -3.339e-8
0.186, -3.315e-8
0.185, -3.298e-8
0.184, -3.270e-8
0.183, -3.254e-8
0.182, -3.230e-8
0.181, -3.202e-8
0.180, -3.184e-8
0.179, -3.151e-8
0.178, -3.133e-8
0.177, -3.103e-8
0.176, -3.072e-8
0.175, -3.053e-8
0.174, -3.014e-8
0.173, -2.991e-8
0.172, -2.958e-8
0.171, -2.924e-8
0.170, -2.898e-8
0.169, -2.856e-8
0.168, -2.829e-8
0.167, -2.791e-8
0.166, -2.750e-8
0.165, -2.722e-8
0.164, -2.671e-8
0.163, -2.641e-8
0.162, -2.599e-8
0.161, -2.549e-8
0.160, -2.518e-8
0.159, -2.462e-8
0.158, -2.421e-8
0.157, -2.376e-8
0.156, -2.319e-8
0.155, -2.279e-8
0.154, -2.217e-8
0.153, -2.168e-8
0.152, -2.116e-8
0.151, -2.053e-8
0.150, -2.005e-8
0.149, -1.938e-8
0.148, -1.881e-8
0.147, -1.822e-8
0.146, -1.753e-8
0.145, -1.691e-8
0.144, -1.619e-8
0.143, -1.553e-8
0.142, -1.482e-8
0.141, -1.405e-8
0.140, -1.333e-8
0.139, -1.256e-8
0.138, -1.183e-8
0.137, -1.098e-8
0.136, -1.017e-8
0.135, -9.384e-9
0.134, -8.465e-9
0.133, -7.667e-9
0.132, -6.702e-9
0.131, -5.831e-9
0.130, -4.932e-9
0.129, -3.905e-9
0.128, -3.011e-9
0.127, -2.029e-9
0.126, -1.021e-9
0.125, -8.883e-11
0.124, 1.042e-9
0.123, 1.953e-9
0.122, 3.039e-9
0.121, 4.173e-9
0.120, 5.143e-9
0.119, 6.331e-9
0.118, 7.332e-9
0.117, 8.484e-9
0.116, 9.656e-9
0.115, 1.074e-8
0.114, 1.190e-8
0.113, 1.302e-8
0.112, 1.411e-8
0.111, 1.534e-8
0.110, 1.644e-8
0.109, 1.764e-8
0.108, 1.881e-8
0.107, 1.991e-8
0.106, 2.110e-8
0.105, 2.226e-8
0.104, 2.341e-8
0.103, 2.455e-8
0.102, 2.577e-8
0.101, 2.682e-8
0.100, 2.797e-8
0.099, 2.905e-8
0.098, 3.011e-8
0.097, 3.124e-8
0.096, 3.226e-8
0.095, 3.334e-8
0.094, 3.435e-8
0.093, 3.531e-8
0.092, 3.637e-8
0.091, 3.731e-8
0.090, 3.824e-8
0.089, 3.923e-8
0.088, 4.000e-8
0.087, 4.096e-8
0.086, 4.179e-8
0.085, 4.258e-8
0.084, 4.346e-8
0.083, 4.405e-8
0.082, 4.487e-8
0.081, 4.558e-8
0.080, 4.615e-8
0.079, 4.689e-8
0.078, 4.742e-8
0.077, 4.804e-8
0.076, 4.864e-8
0.075, 4.903e-8
0.074, 4.956e-8
0.073, 4.998e-8
0.072, 5.035e-8
0.071, 5.079e-8
0.070, 5.107e-8
0.069, 5.143e-8
0.068, 5.173e-8
0.067, 5.193e-8
0.066, 5.219e-8
0.065, 5.236e-8
0.064, 5.256e-8
0.063, 5.268e-8
0.062, 5.279e-8
0.061, 5.290e-8
0.060, 5.295e-8
0.059, 5.297e-8
0.058, 5.295e-8
0.057, 5.298e-8
0.056, 5.295e-8
0.055, 5.286e-8
0.054, 5.282e-8
0.053, 5.267e-8
0.052, 5.262e-8
0.051, 5.247e-8
0.050, 5.226e-8
0.049, 5.220e-8
0.048, 5.192e-8
0.047, 5.176e-8
0.046, 5.157e-8
0.045, 5.125e-8
0.044, 5.115e-8
0.043, 5.079e-8
0.042, 5.056e-8
0.041, 5.033e-8
0.040, 4.998e-8
0.039, 4.978e-8
0.038, 4.943e-8
0.037, 4.912e-8
0.036, 4.888e-8
0.035, 4.845e-8
0.034, 4.823e-8
0.033, 4.786e-8
0.032, 4.750e-8
0.031, 4.724e-8
0.030, 4.682e-8
0.029, 4.656e-8
0.028, 4.620e-8
0.027, 4.581e-8
0.026, 4.556e-8
0.025, 4.514e-8
0.024, 4.486e-8
0.023, 4.447e-8
0.022, 4.411e-8
0.021, 4.381e-8
0.020, 4.343e-8
0.019, 4.314e-8
0.018, 4.276e-8
0.017, 4.242e-8
0.016, 4.211e-8
0.015, 4.172e-8
0.014, 4.146e-8
0.013, 4.108e-8
0.012, 4.077e-8
0.011, 4.047e-8
0.010, 4.006e-8
0.009, 3.984e-8
0.008, 3.945e-8
0.007, 3.914e-8
0.006, 3.889e-8
0.005, 3.848e-8
0.004, 3.829e-8
0.003, 3.790e-8
0.002, 3.762e-8
0.001, 3.740e-8
0.000, 3.712e-8
-0.001, 3.684e-8
-0.002, 3.650e-8
-0.003, 3.621e-8
-0.004, 3.601e-8
-0.005, 3.563e-8
-0.006, 3.544e-8
-0.007, 3.515e-8
-0.008, 3.486e-8
-0.009, 3.468e-8
-0.010, 3.433e-8
-0.011, 3.417e-8
-0.012, 3.389e-8
-0.013, 3.364e-8
-0.014, 3.346e-8
-0.015, 3.314e-8
-0.016, 3.299e-8
-0.017, 3.273e-8
-0.018, 3.249e-8
-0.019, 3.234e-8
-0.020, 3.204e-8
-0.021, 3.190e-8
-0.022, 3.164e-8
-0.023, 3.145e-8
-0.024, 3.130e-8
-0.025, 3.103e-8
-0.026, 3.092e-8
-0.027, 3.067e-8
-0.028, 3.049e-8
-0.029, 3.035e-8
-0.030, 3.009e-8
-0.031, 3.002e-8
-0.032, 2.977e-8
-0.033, 2.961e-8
-0.034, 2.951e-8
-0.035, 2.924e-8
-0.036, 2.920e-8
-0.037, 2.897e-8
-0.038, 2.881e-8
-0.039, 2.874e-8
-0.040, 2.849e-8
-0.041, 2.844e-8
-0.042, 2.824e-8
-0.043, 2.809e-8
-0.044, 2.804e-8
-0.045, 2.779e-8
-0.046, 2.777e-8
-0.047, 2.760e-8
-0.048, 2.744e-8
-0.049, 2.740e-8
-0.050, 2.719e-8
-0.051, 2.715e-8
-0.052, 2.701e-8
-0.053, 2.686e-8
-0.054, 2.682e-8
-0.055, 2.664e-8
-0.056, 2.661e-8
-0.057, 2.647e-8
-0.058, 2.636e-8
-0.059, 2.632e-8
-0.060, 2.614e-8
-0.061, 2.613e-8
-0.062, 2.599e-8
-0.063, 2.590e-8
-0.064, 2.587e-8
-0.065, 2.570e-8
-0.066, 2.570e-8
-0.067, 2.558e-8
-0.068, 2.551e-8
-0.069, 2.547e-8
-0.070, 2.531e-8
-0.071, 2.534e-8
-0.072, 2.521e-8
-0.073, 2.514e-8
-0.074, 2.515e-8
-0.075, 2.498e-8
-0.076, 2.502e-8
-0.077, 2.491e-8
-0.078, 2.482e-8
-0.079, 2.486e-8
-0.080, 2.469e-8
-0.081, 2.474e-8
-0.082, 2.464e-8
-0.083, 2.457e-8
-0.084, 2.461e-8
-0.085, 2.445e-8
-0.086, 2.450e-8
-0.087, 2.442e-8
-0.088, 2.436e-8
-0.089, 2.440e-8
-0.090, 2.427e-8
-0.091, 2.431e-8
-0.092, 2.425e-8
-0.093, 2.418e-8
-0.094, 2.422e-8
-0.095, 2.412e-8
-0.096, 2.415e-8
-0.097, 2.410e-8
-0.098, 2.406e-8
-0.099, 2.410e-8
-0.100, 2.400e-8
-0.101, 2.406e-8
-0.102, 2.401e-8
-0.103, 2.399e-8
-0.104, 2.402e-8
-0.105, 2.392e-8
-0.106, 2.401e-8
-0.107, 2.395e-8
-0.108, 2.394e-8
-0.109, 2.399e-8
-0.110, 2.389e-8
-0.111, 2.399e-8
-0.112, 2.393e-8
-0.113, 2.392e-8
-0.114, 2.400e-8
-0.115, 2.390e-8
-0.116, 2.401e-8
-0.117, 2.396e-8
-0.118, 2.395e-8
-0.119, 2.404e-8
-0.120, 2.394e-8
-0.121, 2.405e-8
-0.122, 2.402e-8
-0.123, 2.400e-8
-0.124, 2.412e-8
-0.125, 2.402e-8
-0.126, 2.413e-8
-0.127, 2.413e-8
-0.128, 2.413e-8
-0.129, 2.423e-8
-0.130, 2.415e-8
-0.131, 2.427e-8
-0.132, 2.427e-8
-0.133, 2.427e-8
-0.134, 2.438e-8
-0.135, 2.434e-8
-0.136, 2.444e-8
-0.137, 2.444e-8
-0.138, 2.447e-8
-0.139, 2.456e-8
-0.140, 2.453e-8
-0.141, 2.465e-8
-0.142, 2.465e-8
-0.143, 2.470e-8
-0.144, 2.480e-8
-0.145, 2.476e-8
-0.146, 2.490e-8
-0.147, 2.490e-8
-0.148, 2.496e-8
-0.149, 2.506e-8
-0.150, 2.503e-8
-0.151, 2.519e-8
-0.152, 2.519e-8
-0.153, 2.524e-8
-0.154, 2.538e-8
-0.155, 2.534e-8
-0.156, 2.551e-8
-0.157, 2.552e-8
-0.158, 2.557e-8
-0.159, 2.573e-8
-0.160, 2.568e-8
-0.161, 2.586e-8
-0.162, 2.589e-8
-0.163, 2.595e-8
-0.164, 2.612e-8
-0.165, 2.607e-8
-0.166, 2.626e-8
-0.167, 2.630e-8
-0.168, 2.636e-8
-0.169, 2.652e-8
-0.170, 2.652e-8
-0.171, 2.669e-8
-0.172, 2.675e-8
-0.173, 2.681e-8
-0.174, 2.698e-8
-0.175, 2.700e-8
-0.176, 2.716e-8
-0.177, 2.723e-8
-0.178, 2.732e-8
-0.179, 2.749e-8
-0.180, 2.752e-8
-0.181, 2.769e-8
-0.182, 2.775e-8
-0.183, 2.787e-8
-0.184, 2.803e-8
-0.185, 2.805e-8
-0.186, 2.826e-8
-0.187, 2.833e-8
-0.188, 2.844e-8
-0.189, 2.862e-8
-0.190, 2.865e-8
-0.191, 2.887e-8
-0.192, 2.895e-8
-0.193, 2.907e-8
-0.194, 2.925e-8
-0.195, 2.929e-8
-0.196, 2.952e-8
-0.197, 2.960e-8
-0.198, 2.972e-8
-0.199, 2.995e-8
