Mar. 16, 2023   10:13:42
Cyclic Voltammetry
File: c:/users/oliverrz/desktop/electrolab/data/2023_03_16\fcmeoh_macros_1_mm\electrode5_cv_150mvs_1_mm.bin
Data Source:  Experiment
Instrument Model:  CHI760E
Header: CV
Note: 

Init E (V) = -0.2
High E (V) = 0.3
Low E (V) = -0.2
Final E (V) = -0.2
Init P/N = P
Scan Rate (V/s) = 0.15
Segment = 3
Sample Interval (V) = 0.001
Quiet Time (sec) = 2
Sensitivity (A/V) = 1e-7

Results:

Channel 1:
Segment 1:
Ep = 0.119V
ip = -8.216e-8A
Ah = -3.304e-8C

Segment 2:
Ep = 0.060V
ip = 7.730e-8A
Ah = 3.093e-8C

Segment 3:

Potential/V, Current/A

-0.200, 1.108e-8
-0.199, 1.020e-8
-0.198, 9.864e-9
-0.197, 9.853e-9
-0.196, 9.482e-9
-0.195, 9.489e-9
-0.194, 9.294e-9
-0.193, 9.082e-9
-0.192, 9.123e-9
-0.191, 8.799e-9
-0.190, 8.832e-9
-0.189, 8.666e-9
-0.188, 8.461e-9
-0.187, 8.527e-9
-0.186, 8.228e-9
-0.185, 8.251e-9
-0.184, 8.117e-9
-0.183, 7.937e-9
-0.182, 7.982e-9
-0.181, 7.700e-9
-0.180, 7.742e-9
-0.179, 7.587e-9
-0.178, 7.433e-9
-0.177, 7.496e-9
-0.176, 7.218e-9
-0.175, 7.282e-9
-0.174, 7.116e-9
-0.173, 6.968e-9
-0.172, 7.044e-9
-0.171, 6.752e-9
-0.170, 6.838e-9
-0.169, 6.672e-9
-0.168, 6.533e-9
-0.167, 6.613e-9
-0.166, 6.321e-9
-0.165, 6.410e-9
-0.164, 6.270e-9
-0.163, 6.126e-9
-0.162, 6.208e-9
-0.161, 5.918e-9
-0.160, 6.029e-9
-0.159, 5.879e-9
-0.158, 5.723e-9
-0.157, 5.833e-9
-0.156, 5.544e-9
-0.155, 5.636e-9
-0.154, 5.506e-9
-0.153, 5.350e-9
-0.152, 5.466e-9
-0.151, 5.195e-9
-0.150, 5.268e-9
-0.149, 5.155e-9
-0.148, 5.018e-9
-0.147, 5.112e-9
-0.146, 4.858e-9
-0.145, 4.938e-9
-0.144, 4.826e-9
-0.143, 4.689e-9
-0.142, 4.788e-9
-0.141, 4.528e-9
-0.140, 4.626e-9
-0.139, 4.503e-9
-0.138, 4.388e-9
-0.137, 4.476e-9
-0.136, 4.230e-9
-0.135, 4.335e-9
-0.134, 4.205e-9
-0.133, 4.092e-9
-0.132, 4.194e-9
-0.131, 3.931e-9
-0.130, 4.054e-9
-0.129, 3.909e-9
-0.128, 3.809e-9
-0.127, 3.916e-9
-0.126, 3.648e-9
-0.125, 3.779e-9
-0.124, 3.651e-9
-0.123, 3.532e-9
-0.122, 3.667e-9
-0.121, 3.383e-9
-0.120, 3.516e-9
-0.119, 3.409e-9
-0.118, 3.280e-9
-0.117, 3.406e-9
-0.116, 3.149e-9
-0.115, 3.260e-9
-0.114, 3.156e-9
-0.113, 3.031e-9
-0.112, 3.169e-9
-0.111, 2.914e-9
-0.110, 3.019e-9
-0.109, 2.923e-9
-0.108, 2.806e-9
-0.107, 2.928e-9
-0.106, 2.688e-9
-0.105, 2.791e-9
-0.104, 2.695e-9
-0.103, 2.585e-9
-0.102, 2.686e-9
-0.101, 2.462e-9
-0.100, 2.580e-9
-0.099, 2.471e-9
-0.098, 2.370e-9
-0.097, 2.481e-9
-0.096, 2.249e-9
-0.095, 2.368e-9
-0.094, 2.252e-9
-0.093, 2.162e-9
-0.092, 2.275e-9
-0.091, 2.035e-9
-0.090, 2.158e-9
-0.089, 2.039e-9
-0.088, 1.956e-9
-0.087, 2.069e-9
-0.086, 1.815e-9
-0.085, 1.965e-9
-0.084, 1.837e-9
-0.083, 1.735e-9
-0.082, 1.876e-9
-0.081, 1.608e-9
-0.080, 1.752e-9
-0.079, 1.645e-9
-0.078, 1.521e-9
-0.077, 1.653e-9
-0.076, 1.410e-9
-0.075, 1.529e-9
-0.074, 1.441e-9
-0.073, 1.313e-9
-0.072, 1.449e-9
-0.071, 1.205e-9
-0.070, 1.319e-9
-0.069, 1.213e-9
-0.068, 1.108e-9
-0.067, 1.235e-9
-0.066, 9.891e-10
-0.065, 1.096e-9
-0.064, 9.902e-10
-0.063, 8.852e-10
-0.062, 9.907e-10
-0.061, 7.567e-10
-0.060, 8.690e-10
-0.059, 7.472e-10
-0.058, 6.571e-10
-0.057, 7.521e-10
-0.056, 5.073e-10
-0.055, 6.343e-10
-0.054, 4.866e-10
-0.053, 3.921e-10
-0.052, 4.996e-10
-0.051, 2.291e-10
-0.050, 3.555e-10
-0.049, 2.229e-10
-0.048, 1.152e-10
-0.047, 2.180e-10
-0.046, -5.106e-11
-0.045, 6.808e-11
-0.044, -7.818e-11
-0.043, -1.847e-10
-0.042, -8.986e-11
-0.041, -3.738e-10
-0.040, -2.438e-10
-0.039, -4.060e-10
-0.038, -5.437e-10
-0.037, -4.296e-10
-0.036, -7.219e-10
-0.035, -6.289e-10
-0.034, -7.614e-10
-0.033, -9.244e-10
-0.032, -8.202e-10
-0.031, -1.104e-9
-0.030, -1.051e-9
-0.029, -1.187e-9
-0.028, -1.333e-9
-0.027, -1.285e-9
-0.026, -1.583e-9
-0.025, -1.513e-9
-0.024, -1.684e-9
-0.023, -1.846e-9
-0.022, -1.798e-9
-0.021, -2.109e-9
-0.020, -2.066e-9
-0.019, -2.245e-9
-0.018, -2.426e-9
-0.017, -2.409e-9
-0.016, -2.703e-9
-0.015, -2.696e-9
-0.014, -2.920e-9
-0.013, -3.090e-9
-0.012, -3.117e-9
-0.011, -3.455e-9
-0.010, -3.427e-9
-0.009, -3.688e-9
-0.008, -3.887e-9
-0.007, -3.906e-9
-0.006, -4.308e-9
-0.005, -4.309e-9
-0.004, -4.574e-9
-0.003, -4.838e-9
-0.002, -4.876e-9
-0.001, -5.299e-9
-0.000, -5.463e-9
0.001, -5.678e-9
0.002, -5.965e-9
0.003, -6.047e-9
0.004, -6.500e-9
0.005, -6.569e-9
0.006, -6.917e-9
0.007, -7.280e-9
0.008, -7.372e-9
0.009, -7.876e-9
0.010, -8.045e-9
0.011, -8.401e-9
0.012, -8.799e-9
0.013, -8.991e-9
0.014, -9.486e-9
0.015, -9.740e-9
0.016, -1.015e-8
0.017, -1.057e-8
0.018, -1.085e-8
0.019, -1.142e-8
0.020, -1.168e-8
0.021, -1.219e-8
0.022, -1.268e-8
0.023, -1.301e-8
0.024, -1.364e-8
0.025, -1.399e-8
0.026, -1.458e-8
0.027, -1.514e-8
0.028, -1.556e-8
0.029, -1.625e-8
0.030, -1.666e-8
0.031, -1.737e-8
0.032, -1.795e-8
0.033, -1.846e-8
0.034, -1.927e-8
0.035, -1.972e-8
0.036, -2.051e-8
0.037, -2.121e-8
0.038, -2.176e-8
0.039, -2.272e-8
0.040, -2.326e-8
0.041, -2.408e-8
0.042, -2.494e-8
0.043, -2.556e-8
0.044, -2.658e-8
0.045, -2.724e-8
0.046, -2.817e-8
0.047, -2.909e-8
0.048, -2.980e-8
0.049, -3.090e-8
0.050, -3.168e-8
0.051, -3.270e-8
0.052, -3.372e-8
0.053, -3.452e-8
0.054, -3.568e-8
0.055, -3.657e-8
0.056, -3.761e-8
0.057, -3.869e-8
0.058, -3.967e-8
0.059, -4.084e-8
0.060, -4.180e-8
0.061, -4.296e-8
0.062, -4.403e-8
0.063, -4.512e-8
0.064, -4.635e-8
0.065, -4.734e-8
0.066, -4.860e-8
0.067, -4.972e-8
0.068, -5.079e-8
0.069, -5.206e-8
0.070, -5.306e-8
0.071, -5.435e-8
0.072, -5.545e-8
0.073, -5.655e-8
0.074, -5.784e-8
0.075, -5.882e-8
0.076, -6.013e-8
0.077, -6.127e-8
0.078, -6.230e-8
0.079, -6.361e-8
0.080, -6.447e-8
0.081, -6.571e-8
0.082, -6.684e-8
0.083, -6.777e-8
0.084, -6.900e-8
0.085, -6.988e-8
0.086, -7.092e-8
0.087, -7.205e-8
0.088, -7.284e-8
0.089, -7.398e-8
0.090, -7.480e-8
0.091, -7.577e-8
0.092, -7.668e-8
0.093, -7.738e-8
0.094, -7.838e-8
0.095, -7.907e-8
0.096, -7.983e-8
0.097, -8.065e-8
0.098, -8.127e-8
0.099, -8.199e-8
0.100, -8.259e-8
0.101, -8.322e-8
0.102, -8.385e-8
0.103, -8.436e-8
0.104, -8.493e-8
0.105, -8.528e-8
0.106, -8.582e-8
0.107, -8.621e-8
0.108, -8.655e-8
0.109, -8.700e-8
0.110, -8.716e-8
0.111, -8.758e-8
0.112, -8.778e-8
0.113, -8.793e-8
0.114, -8.827e-8
0.115, -8.826e-8
0.116, -8.851e-8
0.117, -8.861e-8
0.118, -8.856e-8
0.119, -8.879e-8
0.120, -8.862e-8
0.121, -8.871e-8
0.122, -8.872e-8
0.123, -8.851e-8
0.124, -8.864e-8
0.125, -8.839e-8
0.126, -8.834e-8
0.127, -8.825e-8
0.128, -8.796e-8
0.129, -8.795e-8
0.130, -8.761e-8
0.131, -8.745e-8
0.132, -8.725e-8
0.133, -8.689e-8
0.134, -8.680e-8
0.135, -8.640e-8
0.136, -8.616e-8
0.137, -8.591e-8
0.138, -8.549e-8
0.139, -8.530e-8
0.140, -8.485e-8
0.141, -8.459e-8
0.142, -8.427e-8
0.143, -8.386e-8
0.144, -8.361e-8
0.145, -8.310e-8
0.146, -8.284e-8
0.147, -8.247e-8
0.148, -8.201e-8
0.149, -8.180e-8
0.150, -8.123e-8
0.151, -8.097e-8
0.152, -8.058e-8
0.153, -8.008e-8
0.154, -7.989e-8
0.155, -7.931e-8
0.156, -7.901e-8
0.157, -7.866e-8
0.158, -7.812e-8
0.159, -7.792e-8
0.160, -7.733e-8
0.161, -7.706e-8
0.162, -7.671e-8
0.163, -7.618e-8
0.164, -7.600e-8
0.165, -7.543e-8
0.166, -7.514e-8
0.167, -7.483e-8
0.168, -7.428e-8
0.169, -7.412e-8
0.170, -7.359e-8
0.171, -7.330e-8
0.172, -7.298e-8
0.173, -7.247e-8
0.174, -7.231e-8
0.175, -7.180e-8
0.176, -7.151e-8
0.177, -7.121e-8
0.178, -7.074e-8
0.179, -7.060e-8
0.180, -7.009e-8
0.181, -6.984e-8
0.182, -6.954e-8
0.183, -6.909e-8
0.184, -6.894e-8
0.185, -6.846e-8
0.186, -6.825e-8
0.187, -6.797e-8
0.188, -6.753e-8
0.189, -6.743e-8
0.190, -6.694e-8
0.191, -6.676e-8
0.192, -6.650e-8
0.193, -6.608e-8
0.194, -6.600e-8
0.195, -6.553e-8
0.196, -6.536e-8
0.197, -6.513e-8
0.198, -6.470e-8
0.199, -6.466e-8
0.200, -6.420e-8
0.201, -6.404e-8
0.202, -6.384e-8
0.203, -6.343e-8
0.204, -6.341e-8
0.205, -6.300e-8
0.206, -6.283e-8
0.207, -6.265e-8
0.208, -6.225e-8
0.209, -6.224e-8
0.210, -6.183e-8
0.211, -6.169e-8
0.212, -6.153e-8
0.213, -6.115e-8
0.214, -6.115e-8
0.215, -6.077e-8
0.216, -6.063e-8
0.217, -6.049e-8
0.218, -6.015e-8
0.219, -6.013e-8
0.220, -5.978e-8
0.221, -5.967e-8
0.222, -5.951e-8
0.223, -5.920e-8
0.224, -5.919e-8
0.225, -5.883e-8
0.226, -5.877e-8
0.227, -5.862e-8
0.228, -5.830e-8
0.229, -5.834e-8
0.230, -5.799e-8
0.231, -5.792e-8
0.232, -5.779e-8
0.233, -5.748e-8
0.234, -5.753e-8
0.235, -5.719e-8
0.236, -5.712e-8
0.237, -5.700e-8
0.238, -5.671e-8
0.239, -5.679e-8
0.240, -5.643e-8
0.241, -5.639e-8
0.242, -5.630e-8
0.243, -5.600e-8
0.244, -5.608e-8
0.245, -5.576e-8
0.246, -5.569e-8
0.247, -5.564e-8
0.248, -5.534e-8
0.249, -5.540e-8
0.250, -5.512e-8
0.251, -5.508e-8
0.252, -5.498e-8
0.253, -5.473e-8
0.254, -5.480e-8
0.255, -5.451e-8
0.256, -5.448e-8
0.257, -5.440e-8
0.258, -5.415e-8
0.259, -5.423e-8
0.260, -5.395e-8
0.261, -5.391e-8
0.262, -5.384e-8
0.263, -5.362e-8
0.264, -5.368e-8
0.265, -5.340e-8
0.266, -5.342e-8
0.267, -5.333e-8
0.268, -5.310e-8
0.269, -5.322e-8
0.270, -5.291e-8
0.271, -5.294e-8
0.272, -5.286e-8
0.273, -5.261e-8
0.274, -5.275e-8
0.275, -5.246e-8
0.276, -5.246e-8
0.277, -5.241e-8
0.278, -5.218e-8
0.279, -5.231e-8
0.280, -5.202e-8
0.281, -5.206e-8
0.282, -5.200e-8
0.283, -5.177e-8
0.284, -5.191e-8
0.285, -5.163e-8
0.286, -5.164e-8
0.287, -5.162e-8
0.288, -5.138e-8
0.289, -5.151e-8
0.290, -5.127e-8
0.291, -5.127e-8
0.292, -5.125e-8
0.293, -5.103e-8
0.294, -5.115e-8
0.295, -5.092e-8
0.296, -5.093e-8
0.297, -5.090e-8
0.298, -5.069e-8
0.299, -5.083e-8
0.300, -4.818e-8
0.299, -4.677e-8
0.298, -4.641e-8
0.297, -4.594e-8
0.296, -4.591e-8
0.295, -4.549e-8
0.294, -4.537e-8
0.293, -4.522e-8
0.292, -4.488e-8
0.291, -4.494e-8
0.290, -4.458e-8
0.289, -4.451e-8
0.288, -4.440e-8
0.287, -4.411e-8
0.286, -4.416e-8
0.285, -4.385e-8
0.284, -4.379e-8
0.283, -4.372e-8
0.282, -4.343e-8
0.281, -4.350e-8
0.280, -4.321e-8
0.279, -4.318e-8
0.278, -4.309e-8
0.277, -4.285e-8
0.276, -4.292e-8
0.275, -4.265e-8
0.274, -4.264e-8
0.273, -4.254e-8
0.272, -4.231e-8
0.271, -4.241e-8
0.270, -4.211e-8
0.269, -4.211e-8
0.268, -4.203e-8
0.267, -4.181e-8
0.266, -4.191e-8
0.265, -4.161e-8
0.264, -4.163e-8
0.263, -4.156e-8
0.262, -4.132e-8
0.261, -4.144e-8
0.260, -4.113e-8
0.259, -4.117e-8
0.258, -4.110e-8
0.257, -4.085e-8
0.256, -4.098e-8
0.255, -4.070e-8
0.254, -4.070e-8
0.253, -4.066e-8
0.252, -4.041e-8
0.251, -4.054e-8
0.250, -4.026e-8
0.249, -4.027e-8
0.248, -4.021e-8
0.247, -3.998e-8
0.246, -4.010e-8
0.245, -3.984e-8
0.244, -3.983e-8
0.243, -3.978e-8
0.242, -3.956e-8
0.241, -3.966e-8
0.240, -3.940e-8
0.239, -3.940e-8
0.238, -3.934e-8
0.237, -3.913e-8
0.236, -3.921e-8
0.235, -3.896e-8
0.234, -3.897e-8
0.233, -3.889e-8
0.232, -3.867e-8
0.231, -3.877e-8
0.230, -3.850e-8
0.229, -3.851e-8
0.228, -3.844e-8
0.227, -3.822e-8
0.226, -3.833e-8
0.225, -3.804e-8
0.224, -3.805e-8
0.223, -3.798e-8
0.222, -3.774e-8
0.221, -3.785e-8
0.220, -3.754e-8
0.219, -3.756e-8
0.218, -3.747e-8
0.217, -3.722e-8
0.216, -3.734e-8
0.215, -3.702e-8
0.214, -3.702e-8
0.213, -3.695e-8
0.212, -3.667e-8
0.211, -3.678e-8
0.210, -3.647e-8
0.209, -3.643e-8
0.208, -3.636e-8
0.207, -3.609e-8
0.206, -3.616e-8
0.205, -3.584e-8
0.204, -3.581e-8
0.203, -3.571e-8
0.202, -3.544e-8
0.201, -3.548e-8
0.200, -3.517e-8
0.199, -3.511e-8
0.198, -3.499e-8
0.197, -3.471e-8
0.196, -3.473e-8
0.195, -3.440e-8
0.194, -3.434e-8
0.193, -3.417e-8
0.192, -3.388e-8
0.191, -3.389e-8
0.190, -3.352e-8
0.189, -3.345e-8
0.188, -3.324e-8
0.187, -3.294e-8
0.186, -3.292e-8
0.185, -3.251e-8
0.184, -3.242e-8
0.183, -3.221e-8
0.182, -3.184e-8
0.181, -3.180e-8
0.180, -3.137e-8
0.179, -3.123e-8
0.178, -3.099e-8
0.177, -3.058e-8
0.176, -3.051e-8
0.175, -3.003e-8
0.174, -2.986e-8
0.173, -2.958e-8
0.172, -2.913e-8
0.171, -2.903e-8
0.170, -2.852e-8
0.169, -2.827e-8
0.168, -2.798e-8
0.167, -2.745e-8
0.166, -2.730e-8
0.165, -2.675e-8
0.164, -2.644e-8
0.163, -2.610e-8
0.162, -2.557e-8
0.161, -2.530e-8
0.160, -2.471e-8
0.159, -2.435e-8
0.158, -2.391e-8
0.157, -2.332e-8
0.156, -2.298e-8
0.155, -2.234e-8
0.154, -2.189e-8
0.153, -2.138e-8
0.152, -2.074e-8
0.151, -2.034e-8
0.150, -1.958e-8
0.149, -1.913e-8
0.148, -1.849e-8
0.147, -1.780e-8
0.146, -1.731e-8
0.145, -1.646e-8
0.144, -1.592e-8
0.143, -1.520e-8
0.142, -1.441e-8
0.141, -1.383e-8
0.140, -1.288e-8
0.139, -1.228e-8
0.138, -1.150e-8
0.137, -1.059e-8
0.136, -9.941e-9
0.135, -8.918e-9
0.134, -8.203e-9
0.133, -7.323e-9
0.132, -6.289e-9
0.131, -5.594e-9
0.130, -4.464e-9
0.129, -3.635e-9
0.128, -2.684e-9
0.127, -1.594e-9
0.126, -7.834e-10
0.125, 3.713e-10
0.124, 1.355e-9
0.123, 2.325e-9
0.122, 3.481e-9
0.121, 4.416e-9
0.120, 5.618e-9
0.119, 6.648e-9
0.118, 7.733e-9
0.117, 8.908e-9
0.116, 9.962e-9
0.115, 1.119e-8
0.114, 1.226e-8
0.113, 1.342e-8
0.112, 1.461e-8
0.111, 1.566e-8
0.110, 1.697e-8
0.109, 1.797e-8
0.108, 1.921e-8
0.107, 2.039e-8
0.106, 2.145e-8
0.105, 2.277e-8
0.104, 2.380e-8
0.103, 2.502e-8
0.102, 2.623e-8
0.101, 2.721e-8
0.100, 2.852e-8
0.099, 2.941e-8
0.098, 3.058e-8
0.097, 3.174e-8
0.096, 3.267e-8
0.095, 3.390e-8
0.094, 3.479e-8
0.093, 3.580e-8
0.092, 3.693e-8
0.091, 3.770e-8
0.090, 3.885e-8
0.089, 3.969e-8
0.088, 4.057e-8
0.087, 4.156e-8
0.086, 4.221e-8
0.085, 4.317e-8
0.084, 4.391e-8
0.083, 4.460e-8
0.082, 4.543e-8
0.081, 4.606e-8
0.080, 4.680e-8
0.079, 4.741e-8
0.078, 4.797e-8
0.077, 4.865e-8
0.076, 4.912e-8
0.075, 4.968e-8
0.074, 5.008e-8
0.073, 5.057e-8
0.072, 5.099e-8
0.071, 5.128e-8
0.070, 5.176e-8
0.069, 5.195e-8
0.068, 5.232e-8
0.067, 5.253e-8
0.066, 5.269e-8
0.065, 5.306e-8
0.064, 5.310e-8
0.063, 5.327e-8
0.062, 5.344e-8
0.061, 5.335e-8
0.060, 5.365e-8
0.059, 5.352e-8
0.058, 5.351e-8
0.057, 5.362e-8
0.056, 5.343e-8
0.055, 5.354e-8
0.054, 5.334e-8
0.053, 5.325e-8
0.052, 5.324e-8
0.051, 5.293e-8
0.050, 5.295e-8
0.049, 5.267e-8
0.048, 5.244e-8
0.047, 5.237e-8
0.046, 5.197e-8
0.045, 5.192e-8
0.044, 5.161e-8
0.043, 5.130e-8
0.042, 5.114e-8
0.041, 5.073e-8
0.040, 5.060e-8
0.039, 5.022e-8
0.038, 4.992e-8
0.037, 4.968e-8
0.036, 4.924e-8
0.035, 4.906e-8
0.034, 4.863e-8
0.033, 4.831e-8
0.032, 4.806e-8
0.031, 4.755e-8
0.030, 4.738e-8
0.029, 4.692e-8
0.028, 4.658e-8
0.027, 4.633e-8
0.026, 4.584e-8
0.025, 4.566e-8
0.024, 4.516e-8
0.023, 4.483e-8
0.022, 4.458e-8
0.021, 4.403e-8
0.020, 4.391e-8
0.019, 4.341e-8
0.018, 4.305e-8
0.017, 4.286e-8
0.016, 4.229e-8
0.015, 4.214e-8
0.014, 4.170e-8
0.013, 4.133e-8
0.012, 4.114e-8
0.011, 4.059e-8
0.010, 4.044e-8
0.009, 4.001e-8
0.008, 3.967e-8
0.007, 3.946e-8
0.006, 3.894e-8
0.005, 3.882e-8
0.004, 3.841e-8
0.003, 3.806e-8
0.002, 3.791e-8
0.001, 3.740e-8
0.000, 3.740e-8
-0.001, 3.692e-8
-0.002, 3.660e-8
-0.003, 3.642e-8
-0.004, 3.597e-8
-0.005, 3.585e-8
-0.006, 3.546e-8
-0.007, 3.521e-8
-0.008, 3.503e-8
-0.009, 3.457e-8
-0.010, 3.452e-8
-0.011, 3.413e-8
-0.012, 3.389e-8
-0.013, 3.376e-8
-0.014, 3.331e-8
-0.015, 3.326e-8
-0.016, 3.291e-8
-0.017, 3.267e-8
-0.018, 3.255e-8
-0.019, 3.213e-8
-0.020, 3.211e-8
-0.021, 3.175e-8
-0.022, 3.153e-8
-0.023, 3.145e-8
-0.024, 3.102e-8
-0.025, 3.104e-8
-0.026, 3.072e-8
-0.027, 3.049e-8
-0.028, 3.045e-8
-0.029, 3.004e-8
-0.030, 3.004e-8
-0.031, 2.976e-8
-0.032, 2.955e-8
-0.033, 2.950e-8
-0.034, 2.913e-8
-0.035, 2.914e-8
-0.036, 2.887e-8
-0.037, 2.869e-8
-0.038, 2.865e-8
-0.039, 2.829e-8
-0.040, 2.833e-8
-0.041, 2.806e-8
-0.042, 2.789e-8
-0.043, 2.788e-8
-0.044, 2.754e-8
-0.045, 2.756e-8
-0.046, 2.733e-8
-0.047, 2.718e-8
-0.048, 2.716e-8
-0.049, 2.683e-8
-0.050, 2.690e-8
-0.051, 2.665e-8
-0.052, 2.653e-8
-0.053, 2.652e-8
-0.054, 2.619e-8
-0.055, 2.629e-8
-0.056, 2.604e-8
-0.057, 2.591e-8
-0.058, 2.594e-8
-0.059, 2.562e-8
-0.060, 2.573e-8
-0.061, 2.549e-8
-0.062, 2.537e-8
-0.063, 2.541e-8
-0.064, 2.510e-8
-0.065, 2.521e-8
-0.066, 2.499e-8
-0.067, 2.488e-8
-0.068, 2.494e-8
-0.069, 2.463e-8
-0.070, 2.475e-8
-0.071, 2.456e-8
-0.072, 2.444e-8
-0.073, 2.450e-8
-0.074, 2.421e-8
-0.075, 2.433e-8
-0.076, 2.414e-8
-0.077, 2.405e-8
-0.078, 2.410e-8
-0.079, 2.385e-8
-0.080, 2.397e-8
-0.081, 2.377e-8
-0.082, 2.371e-8
-0.083, 2.376e-8
-0.084, 2.351e-8
-0.085, 2.363e-8
-0.086, 2.346e-8
-0.087, 2.341e-8
-0.088, 2.346e-8
-0.089, 2.322e-8
-0.090, 2.336e-8
-0.091, 2.318e-8
-0.092, 2.314e-8
-0.093, 2.319e-8
-0.094, 2.295e-8
-0.095, 2.313e-8
-0.096, 2.294e-8
-0.097, 2.290e-8
-0.098, 2.299e-8
-0.099, 2.273e-8
-0.100, 2.291e-8
-0.101, 2.274e-8
-0.102, 2.272e-8
-0.103, 2.280e-8
-0.104, 2.256e-8
-0.105, 2.274e-8
-0.106, 2.258e-8
-0.107, 2.254e-8
-0.108, 2.266e-8
-0.109, 2.241e-8
-0.110, 2.259e-8
-0.111, 2.246e-8
-0.112, 2.242e-8
-0.113, 2.253e-8
-0.114, 2.231e-8
-0.115, 2.249e-8
-0.116, 2.237e-8
-0.117, 2.233e-8
-0.118, 2.243e-8
-0.119, 2.224e-8
-0.120, 2.241e-8
-0.121, 2.228e-8
-0.122, 2.227e-8
-0.123, 2.238e-8
-0.124, 2.218e-8
-0.125, 2.237e-8
-0.126, 2.224e-8
-0.127, 2.225e-8
-0.128, 2.236e-8
-0.129, 2.217e-8
-0.130, 2.236e-8
-0.131, 2.224e-8
-0.132, 2.226e-8
-0.133, 2.236e-8
-0.134, 2.218e-8
-0.135, 2.239e-8
-0.136, 2.226e-8
-0.137, 2.227e-8
-0.138, 2.242e-8
-0.139, 2.221e-8
-0.140, 2.244e-8
-0.141, 2.232e-8
-0.142, 2.233e-8
-0.143, 2.249e-8
-0.144, 2.229e-8
-0.145, 2.251e-8
-0.146, 2.241e-8
-0.147, 2.242e-8
-0.148, 2.259e-8
-0.149, 2.239e-8
-0.150, 2.261e-8
-0.151, 2.254e-8
-0.152, 2.255e-8
-0.153, 2.271e-8
-0.154, 2.254e-8
-0.155, 2.276e-8
-0.156, 2.269e-8
-0.157, 2.270e-8
-0.158, 2.287e-8
-0.159, 2.271e-8
-0.160, 2.293e-8
-0.161, 2.285e-8
-0.162, 2.289e-8
-0.163, 2.304e-8
-0.164, 2.291e-8
-0.165, 2.313e-8
-0.166, 2.306e-8
-0.167, 2.312e-8
-0.168, 2.327e-8
-0.169, 2.313e-8
-0.170, 2.338e-8
-0.171, 2.330e-8
-0.172, 2.337e-8
-0.173, 2.352e-8
-0.174, 2.338e-8
-0.175, 2.365e-8
-0.176, 2.358e-8
-0.177, 2.364e-8
-0.178, 2.383e-8
-0.179, 2.368e-8
-0.180, 2.396e-8
-0.181, 2.389e-8
-0.182, 2.395e-8
-0.183, 2.415e-8
-0.184, 2.401e-8
-0.185, 2.429e-8
-0.186, 2.424e-8
-0.187, 2.430e-8
-0.188, 2.452e-8
-0.189, 2.438e-8
-0.190, 2.465e-8
-0.191, 2.463e-8
-0.192, 2.469e-8
-0.193, 2.491e-8
-0.194, 2.480e-8
-0.195, 2.507e-8
-0.196, 2.504e-8
-0.197, 2.513e-8
-0.198, 2.533e-8
-0.199, 2.524e-8
