Mar. 16, 2023   10:16:21
Cyclic Voltammetry
File: c:/users/oliverrz/desktop/electrolab/data/2023_03_16\fcmeoh_macros_1_mm\electrode7_cv_150mvs_1_mm.bin
Data Source:  Experiment
Instrument Model:  CHI760E
Header: CV
Note: 

Init E (V) = -0.2
High E (V) = 0.3
Low E (V) = -0.2
Final E (V) = -0.2
Init P/N = P
Scan Rate (V/s) = 0.15
Segment = 3
Sample Interval (V) = 0.001
Quiet Time (sec) = 2
Sensitivity (A/V) = 1e-7

Results:

Channel 1:
Segment 1:
Ep = 0.126V
ip = -8.491e-8A
Ah = -3.624e-8C

Segment 2:
Ep = 0.063V
ip = 7.628e-8A
Ah = 3.145e-8C

Segment 3:

Potential/V, Current/A

-0.200, 3.206e-9
-0.199, 2.664e-9
-0.198, 2.856e-9
-0.197, 2.597e-9
-0.196, 2.647e-9
-0.195, 2.681e-9
-0.194, 2.453e-9
-0.193, 2.656e-9
-0.192, 2.442e-9
-0.191, 2.496e-9
-0.190, 2.519e-9
-0.189, 2.330e-9
-0.188, 2.525e-9
-0.187, 2.304e-9
-0.186, 2.384e-9
-0.185, 2.396e-9
-0.184, 2.200e-9
-0.183, 2.433e-9
-0.182, 2.184e-9
-0.181, 2.267e-9
-0.180, 2.304e-9
-0.179, 2.084e-9
-0.178, 2.313e-9
-0.177, 2.096e-9
-0.176, 2.163e-9
-0.175, 2.200e-9
-0.174, 1.994e-9
-0.173, 2.224e-9
-0.172, 1.990e-9
-0.171, 2.081e-9
-0.170, 2.108e-9
-0.169, 1.900e-9
-0.168, 2.144e-9
-0.167, 1.899e-9
-0.166, 1.974e-9
-0.165, 2.035e-9
-0.164, 1.813e-9
-0.163, 2.044e-9
-0.162, 1.834e-9
-0.161, 1.893e-9
-0.160, 1.941e-9
-0.159, 1.751e-9
-0.158, 1.956e-9
-0.157, 1.745e-9
-0.156, 1.832e-9
-0.155, 1.859e-9
-0.154, 1.660e-9
-0.153, 1.893e-9
-0.152, 1.672e-9
-0.151, 1.745e-9
-0.150, 1.793e-9
-0.149, 1.588e-9
-0.148, 1.816e-9
-0.147, 1.602e-9
-0.146, 1.680e-9
-0.145, 1.705e-9
-0.144, 1.536e-9
-0.143, 1.747e-9
-0.142, 1.522e-9
-0.141, 1.618e-9
-0.140, 1.644e-9
-0.139, 1.446e-9
-0.138, 1.693e-9
-0.137, 1.454e-9
-0.136, 1.542e-9
-0.135, 1.598e-9
-0.134, 1.373e-9
-0.133, 1.622e-9
-0.132, 1.401e-9
-0.131, 1.478e-9
-0.130, 1.519e-9
-0.129, 1.323e-9
-0.128, 1.550e-9
-0.127, 1.332e-9
-0.126, 1.421e-9
-0.125, 1.454e-9
-0.124, 1.254e-9
-0.123, 1.498e-9
-0.122, 1.274e-9
-0.121, 1.347e-9
-0.120, 1.405e-9
-0.119, 1.204e-9
-0.118, 1.425e-9
-0.117, 1.224e-9
-0.116, 1.293e-9
-0.115, 1.324e-9
-0.114, 1.154e-9
-0.113, 1.364e-9
-0.112, 1.151e-9
-0.111, 1.248e-9
-0.110, 1.264e-9
-0.109, 1.082e-9
-0.108, 1.318e-9
-0.107, 1.090e-9
-0.106, 1.179e-9
-0.105, 1.212e-9
-0.104, 1.025e-9
-0.103, 1.245e-9
-0.102, 1.032e-9
-0.101, 1.115e-9
-0.100, 1.145e-9
-0.099, 9.642e-10
-0.098, 1.190e-9
-0.097, 9.553e-10
-0.096, 1.064e-9
-0.095, 1.088e-9
-0.094, 8.807e-10
-0.093, 1.137e-9
-0.092, 8.917e-10
-0.091, 9.789e-10
-0.090, 1.030e-9
-0.089, 8.130e-10
-0.088, 1.054e-9
-0.087, 8.379e-10
-0.086, 9.067e-10
-0.085, 9.450e-10
-0.084, 7.570e-10
-0.083, 9.761e-10
-0.082, 7.539e-10
-0.081, 8.379e-10
-0.080, 8.730e-10
-0.079, 6.691e-10
-0.078, 9.037e-10
-0.077, 6.671e-10
-0.076, 7.518e-10
-0.075, 7.892e-10
-0.074, 5.858e-10
-0.073, 7.973e-10
-0.072, 5.920e-10
-0.071, 6.623e-10
-0.070, 6.827e-10
-0.069, 4.987e-10
-0.068, 7.093e-10
-0.067, 4.746e-10
-0.066, 5.761e-10
-0.065, 5.780e-10
-0.064, 3.790e-10
-0.063, 6.129e-10
-0.062, 3.614e-10
-0.061, 4.426e-10
-0.060, 4.753e-10
-0.059, 2.554e-10
-0.058, 4.797e-10
-0.057, 2.474e-10
-0.056, 3.180e-10
-0.055, 3.339e-10
-0.054, 1.276e-10
-0.053, 3.433e-10
-0.052, 9.240e-11
-0.051, 1.752e-10
-0.050, 1.806e-10
-0.049, -3.997e-11
-0.048, 1.872e-10
-0.047, -6.702e-11
-0.046, -1.492e-11
-0.045, 1.842e-11
-0.044, -2.114e-10
-0.043, -1.832e-11
-0.042, -2.477e-10
-0.041, -2.124e-10
-0.040, -1.984e-10
-0.039, -4.171e-10
-0.038, -2.352e-10
-0.037, -4.940e-10
-0.036, -4.339e-10
-0.035, -4.415e-10
-0.034, -6.790e-10
-0.033, -4.880e-10
-0.032, -7.498e-10
-0.031, -7.136e-10
-0.030, -7.290e-10
-0.029, -9.675e-10
-0.028, -8.007e-10
-0.027, -1.065e-9
-0.026, -1.045e-9
-0.025, -1.089e-9
-0.024, -1.314e-9
-0.023, -1.156e-9
-0.022, -1.459e-9
-0.021, -1.421e-9
-0.020, -1.477e-9
-0.019, -1.749e-9
-0.018, -1.581e-9
-0.017, -1.910e-9
-0.016, -1.892e-9
-0.015, -1.950e-9
-0.014, -2.243e-9
-0.013, -2.117e-9
-0.012, -2.425e-9
-0.011, -2.454e-9
-0.010, -2.533e-9
-0.009, -2.834e-9
-0.008, -2.721e-9
-0.007, -3.080e-9
-0.006, -3.114e-9
-0.005, -3.215e-9
-0.004, -3.543e-9
-0.003, -3.459e-9
-0.002, -3.822e-9
-0.001, -3.913e-9
-0.000, -4.103e-9
0.001, -4.414e-9
0.002, -4.371e-9
0.003, -4.741e-9
0.004, -4.863e-9
0.005, -5.035e-9
0.006, -5.394e-9
0.007, -5.409e-9
0.008, -5.843e-9
0.009, -5.968e-9
0.010, -6.196e-9
0.011, -6.621e-9
0.012, -6.644e-9
0.013, -7.133e-9
0.014, -7.321e-9
0.015, -7.583e-9
0.016, -8.052e-9
0.017, -8.134e-9
0.018, -8.675e-9
0.019, -8.887e-9
0.020, -9.233e-9
0.021, -9.720e-9
0.022, -9.872e-9
0.023, -1.050e-8
0.024, -1.075e-8
0.025, -1.115e-8
0.026, -1.174e-8
0.027, -1.192e-8
0.028, -1.260e-8
0.029, -1.296e-8
0.030, -1.339e-8
0.031, -1.406e-8
0.032, -1.433e-8
0.033, -1.505e-8
0.034, -1.552e-8
0.035, -1.604e-8
0.036, -1.676e-8
0.037, -1.713e-8
0.038, -1.793e-8
0.039, -1.846e-8
0.040, -1.905e-8
0.041, -1.988e-8
0.042, -2.034e-8
0.043, -2.120e-8
0.044, -2.183e-8
0.045, -2.252e-8
0.046, -2.342e-8
0.047, -2.400e-8
0.048, -2.493e-8
0.049, -2.563e-8
0.050, -2.647e-8
0.051, -2.743e-8
0.052, -2.810e-8
0.053, -2.916e-8
0.054, -2.992e-8
0.055, -3.086e-8
0.056, -3.188e-8
0.057, -3.264e-8
0.058, -3.379e-8
0.059, -3.467e-8
0.060, -3.566e-8
0.061, -3.677e-8
0.062, -3.760e-8
0.063, -3.882e-8
0.064, -3.977e-8
0.065, -4.083e-8
0.066, -4.204e-8
0.067, -4.289e-8
0.068, -4.422e-8
0.069, -4.517e-8
0.070, -4.626e-8
0.071, -4.757e-8
0.072, -4.844e-8
0.073, -4.979e-8
0.074, -5.083e-8
0.075, -5.192e-8
0.076, -5.322e-8
0.077, -5.416e-8
0.078, -5.551e-8
0.079, -5.653e-8
0.080, -5.762e-8
0.081, -5.888e-8
0.082, -5.984e-8
0.083, -6.106e-8
0.084, -6.213e-8
0.085, -6.317e-8
0.086, -6.435e-8
0.087, -6.528e-8
0.088, -6.645e-8
0.089, -6.740e-8
0.090, -6.848e-8
0.091, -6.951e-8
0.092, -7.037e-8
0.093, -7.142e-8
0.094, -7.225e-8
0.095, -7.326e-8
0.096, -7.412e-8
0.097, -7.484e-8
0.098, -7.585e-8
0.099, -7.651e-8
0.100, -7.735e-8
0.101, -7.815e-8
0.102, -7.873e-8
0.103, -7.962e-8
0.104, -8.010e-8
0.105, -8.073e-8
0.106, -8.144e-8
0.107, -8.180e-8
0.108, -8.248e-8
0.109, -8.283e-8
0.110, -8.331e-8
0.111, -8.386e-8
0.112, -8.401e-8
0.113, -8.458e-8
0.114, -8.481e-8
0.115, -8.508e-8
0.116, -8.549e-8
0.117, -8.551e-8
0.118, -8.586e-8
0.119, -8.598e-8
0.120, -8.607e-8
0.121, -8.633e-8
0.122, -8.623e-8
0.123, -8.646e-8
0.124, -8.639e-8
0.125, -8.638e-8
0.126, -8.647e-8
0.127, -8.627e-8
0.128, -8.636e-8
0.129, -8.619e-8
0.130, -8.608e-8
0.131, -8.603e-8
0.132, -8.571e-8
0.133, -8.570e-8
0.134, -8.542e-8
0.135, -8.522e-8
0.136, -8.510e-8
0.137, -8.468e-8
0.138, -8.462e-8
0.139, -8.422e-8
0.140, -8.397e-8
0.141, -8.382e-8
0.142, -8.330e-8
0.143, -8.322e-8
0.144, -8.275e-8
0.145, -8.242e-8
0.146, -8.225e-8
0.147, -8.167e-8
0.148, -8.153e-8
0.149, -8.106e-8
0.150, -8.067e-8
0.151, -8.046e-8
0.152, -7.986e-8
0.153, -7.971e-8
0.154, -7.923e-8
0.155, -7.881e-8
0.156, -7.860e-8
0.157, -7.797e-8
0.158, -7.777e-8
0.159, -7.730e-8
0.160, -7.686e-8
0.161, -7.664e-8
0.162, -7.604e-8
0.163, -7.583e-8
0.164, -7.536e-8
0.165, -7.494e-8
0.166, -7.471e-8
0.167, -7.413e-8
0.168, -7.393e-8
0.169, -7.344e-8
0.170, -7.305e-8
0.171, -7.281e-8
0.172, -7.223e-8
0.173, -7.207e-8
0.174, -7.158e-8
0.175, -7.120e-8
0.176, -7.099e-8
0.177, -7.041e-8
0.178, -7.027e-8
0.179, -6.979e-8
0.180, -6.943e-8
0.181, -6.925e-8
0.182, -6.865e-8
0.183, -6.855e-8
0.184, -6.808e-8
0.185, -6.773e-8
0.186, -6.757e-8
0.187, -6.701e-8
0.188, -6.691e-8
0.189, -6.649e-8
0.190, -6.614e-8
0.191, -6.601e-8
0.192, -6.547e-8
0.193, -6.537e-8
0.194, -6.499e-8
0.195, -6.465e-8
0.196, -6.454e-8
0.197, -6.401e-8
0.198, -6.394e-8
0.199, -6.356e-8
0.200, -6.325e-8
0.201, -6.316e-8
0.202, -6.266e-8
0.203, -6.261e-8
0.204, -6.224e-8
0.205, -6.196e-8
0.206, -6.186e-8
0.207, -6.139e-8
0.208, -6.134e-8
0.209, -6.099e-8
0.210, -6.074e-8
0.211, -6.065e-8
0.212, -6.020e-8
0.213, -6.019e-8
0.214, -5.984e-8
0.215, -5.961e-8
0.216, -5.955e-8
0.217, -5.909e-8
0.218, -5.911e-8
0.219, -5.878e-8
0.220, -5.856e-8
0.221, -5.852e-8
0.222, -5.808e-8
0.223, -5.810e-8
0.224, -5.779e-8
0.225, -5.757e-8
0.226, -5.756e-8
0.227, -5.712e-8
0.228, -5.717e-8
0.229, -5.686e-8
0.230, -5.666e-8
0.231, -5.666e-8
0.232, -5.623e-8
0.233, -5.629e-8
0.234, -5.601e-8
0.235, -5.580e-8
0.236, -5.581e-8
0.237, -5.542e-8
0.238, -5.546e-8
0.239, -5.520e-8
0.240, -5.501e-8
0.241, -5.503e-8
0.242, -5.465e-8
0.243, -5.471e-8
0.244, -5.445e-8
0.245, -5.428e-8
0.246, -5.429e-8
0.247, -5.392e-8
0.248, -5.399e-8
0.249, -5.374e-8
0.250, -5.358e-8
0.251, -5.361e-8
0.252, -5.325e-8
0.253, -5.334e-8
0.254, -5.309e-8
0.255, -5.294e-8
0.256, -5.298e-8
0.257, -5.262e-8
0.258, -5.273e-8
0.259, -5.248e-8
0.260, -5.234e-8
0.261, -5.239e-8
0.262, -5.203e-8
0.263, -5.215e-8
0.264, -5.191e-8
0.265, -5.178e-8
0.266, -5.185e-8
0.267, -5.149e-8
0.268, -5.161e-8
0.269, -5.140e-8
0.270, -5.126e-8
0.271, -5.133e-8
0.272, -5.098e-8
0.273, -5.110e-8
0.274, -5.090e-8
0.275, -5.077e-8
0.276, -5.084e-8
0.277, -5.052e-8
0.278, -5.064e-8
0.279, -5.044e-8
0.280, -5.031e-8
0.281, -5.040e-8
0.282, -5.007e-8
0.283, -5.019e-8
0.284, -5.000e-8
0.285, -4.988e-8
0.286, -4.996e-8
0.287, -4.965e-8
0.288, -4.977e-8
0.289, -4.958e-8
0.290, -4.949e-8
0.291, -4.956e-8
0.292, -4.924e-8
0.293, -4.940e-8
0.294, -4.920e-8
0.295, -4.910e-8
0.296, -4.919e-8
0.297, -4.887e-8
0.298, -4.903e-8
0.299, -4.883e-8
0.300, -4.734e-8
0.299, -4.666e-8
0.298, -4.619e-8
0.297, -4.621e-8
0.296, -4.593e-8
0.295, -4.576e-8
0.294, -4.577e-8
0.293, -4.539e-8
0.292, -4.548e-8
0.291, -4.524e-8
0.290, -4.509e-8
0.289, -4.514e-8
0.288, -4.479e-8
0.287, -4.488e-8
0.286, -4.466e-8
0.285, -4.452e-8
0.284, -4.456e-8
0.283, -4.423e-8
0.282, -4.434e-8
0.281, -4.411e-8
0.280, -4.400e-8
0.279, -4.406e-8
0.278, -4.371e-8
0.277, -4.385e-8
0.276, -4.362e-8
0.275, -4.350e-8
0.274, -4.359e-8
0.273, -4.324e-8
0.272, -4.337e-8
0.271, -4.316e-8
0.270, -4.305e-8
0.269, -4.311e-8
0.268, -4.279e-8
0.267, -4.292e-8
0.266, -4.271e-8
0.265, -4.260e-8
0.264, -4.268e-8
0.263, -4.235e-8
0.262, -4.249e-8
0.261, -4.228e-8
0.260, -4.216e-8
0.259, -4.226e-8
0.258, -4.193e-8
0.257, -4.205e-8
0.256, -4.186e-8
0.255, -4.175e-8
0.254, -4.181e-8
0.253, -4.151e-8
0.252, -4.163e-8
0.251, -4.143e-8
0.250, -4.134e-8
0.249, -4.141e-8
0.248, -4.108e-8
0.247, -4.123e-8
0.246, -4.102e-8
0.245, -4.092e-8
0.244, -4.099e-8
0.243, -4.068e-8
0.242, -4.080e-8
0.241, -4.060e-8
0.240, -4.051e-8
0.239, -4.056e-8
0.238, -4.024e-8
0.237, -4.039e-8
0.236, -4.015e-8
0.235, -4.006e-8
0.234, -4.014e-8
0.233, -3.979e-8
0.232, -3.994e-8
0.231, -3.972e-8
0.230, -3.959e-8
0.229, -3.968e-8
0.228, -3.933e-8
0.227, -3.946e-8
0.226, -3.925e-8
0.225, -3.912e-8
0.224, -3.918e-8
0.223, -3.885e-8
0.222, -3.897e-8
0.221, -3.874e-8
0.220, -3.860e-8
0.219, -3.867e-8
0.218, -3.831e-8
0.217, -3.842e-8
0.216, -3.820e-8
0.215, -3.805e-8
0.214, -3.810e-8
0.213, -3.775e-8
0.212, -3.782e-8
0.211, -3.761e-8
0.210, -3.746e-8
0.209, -3.746e-8
0.208, -3.712e-8
0.207, -3.720e-8
0.206, -3.694e-8
0.205, -3.678e-8
0.204, -3.679e-8
0.203, -3.641e-8
0.202, -3.649e-8
0.201, -3.620e-8
0.200, -3.603e-8
0.199, -3.603e-8
0.198, -3.563e-8
0.197, -3.567e-8
0.196, -3.536e-8
0.195, -3.519e-8
0.194, -3.514e-8
0.193, -3.473e-8
0.192, -3.477e-8
0.191, -3.443e-8
0.190, -3.422e-8
0.189, -3.416e-8
0.188, -3.370e-8
0.187, -3.372e-8
0.186, -3.336e-8
0.185, -3.309e-8
0.184, -3.302e-8
0.183, -3.253e-8
0.182, -3.248e-8
0.181, -3.211e-8
0.180, -3.180e-8
0.179, -3.167e-8
0.178, -3.117e-8
0.177, -3.107e-8
0.176, -3.064e-8
0.175, -3.031e-8
0.174, -3.014e-8
0.173, -2.956e-8
0.172, -2.943e-8
0.171, -2.899e-8
0.170, -2.859e-8
0.169, -2.836e-8
0.168, -2.777e-8
0.167, -2.754e-8
0.166, -2.703e-8
0.165, -2.661e-8
0.164, -2.630e-8
0.163, -2.565e-8
0.162, -2.540e-8
0.161, -2.478e-8
0.160, -2.431e-8
0.159, -2.394e-8
0.158, -2.318e-8
0.157, -2.287e-8
0.156, -2.218e-8
0.155, -2.163e-8
0.154, -2.117e-8
0.153, -2.035e-8
0.152, -1.996e-8
0.151, -1.920e-8
0.150, -1.859e-8
0.149, -1.804e-8
0.148, -1.714e-8
0.147, -1.669e-8
0.146, -1.582e-8
0.145, -1.509e-8
0.144, -1.450e-8
0.143, -1.349e-8
0.142, -1.291e-8
0.141, -1.201e-8
0.140, -1.115e-8
0.139, -1.049e-8
0.138, -9.433e-9
0.137, -8.730e-9
0.136, -7.751e-9
0.135, -6.831e-9
0.134, -6.037e-9
0.133, -4.889e-9
0.132, -4.094e-9
0.131, -3.061e-9
0.130, -2.045e-9
0.129, -1.174e-9
0.128, 4.133e-11
0.127, 9.377e-10
0.126, 2.050e-9
0.125, 3.106e-9
0.124, 4.112e-9
0.123, 5.326e-9
0.122, 6.255e-9
0.121, 7.490e-9
0.120, 8.557e-9
0.119, 9.617e-9
0.118, 1.089e-8
0.117, 1.184e-8
0.116, 1.315e-8
0.115, 1.424e-8
0.114, 1.528e-8
0.113, 1.665e-8
0.112, 1.760e-8
0.111, 1.886e-8
0.110, 1.999e-8
0.109, 2.098e-8
0.108, 2.236e-8
0.107, 2.326e-8
0.106, 2.450e-8
0.105, 2.562e-8
0.104, 2.661e-8
0.103, 2.796e-8
0.102, 2.882e-8
0.101, 2.997e-8
0.100, 3.104e-8
0.099, 3.188e-8
0.098, 3.311e-8
0.097, 3.395e-8
0.096, 3.494e-8
0.095, 3.593e-8
0.094, 3.673e-8
0.093, 3.777e-8
0.092, 3.854e-8
0.091, 3.942e-8
0.090, 4.023e-8
0.089, 4.098e-8
0.088, 4.186e-8
0.087, 4.243e-8
0.086, 4.322e-8
0.085, 4.386e-8
0.084, 4.445e-8
0.083, 4.513e-8
0.082, 4.560e-8
0.081, 4.622e-8
0.080, 4.668e-8
0.079, 4.714e-8
0.078, 4.769e-8
0.077, 4.799e-8
0.076, 4.851e-8
0.075, 4.874e-8
0.074, 4.902e-8
0.073, 4.949e-8
0.072, 4.953e-8
0.071, 4.989e-8
0.070, 5.006e-8
0.069, 5.009e-8
0.068, 5.048e-8
0.067, 5.035e-8
0.066, 5.055e-8
0.065, 5.064e-8
0.064, 5.054e-8
0.063, 5.075e-8
0.062, 5.054e-8
0.061, 5.061e-8
0.060, 5.055e-8
0.059, 5.034e-8
0.058, 5.043e-8
0.057, 5.013e-8
0.056, 5.008e-8
0.055, 4.995e-8
0.054, 4.962e-8
0.053, 4.966e-8
0.052, 4.929e-8
0.051, 4.915e-8
0.050, 4.891e-8
0.049, 4.856e-8
0.048, 4.847e-8
0.047, 4.803e-8
0.046, 4.785e-8
0.045, 4.754e-8
0.044, 4.715e-8
0.043, 4.703e-8
0.042, 4.651e-8
0.041, 4.631e-8
0.040, 4.597e-8
0.039, 4.554e-8
0.038, 4.539e-8
0.037, 4.484e-8
0.036, 4.464e-8
0.035, 4.425e-8
0.034, 4.379e-8
0.033, 4.366e-8
0.032, 4.307e-8
0.031, 4.285e-8
0.030, 4.248e-8
0.029, 4.198e-8
0.028, 4.186e-8
0.027, 4.126e-8
0.026, 4.104e-8
0.025, 4.070e-8
0.024, 4.017e-8
0.023, 4.004e-8
0.022, 3.945e-8
0.021, 3.921e-8
0.020, 3.888e-8
0.019, 3.836e-8
0.018, 3.824e-8
0.017, 3.768e-8
0.016, 3.745e-8
0.015, 3.713e-8
0.014, 3.663e-8
0.013, 3.653e-8
0.012, 3.598e-8
0.011, 3.576e-8
0.010, 3.544e-8
0.009, 3.498e-8
0.008, 3.487e-8
0.007, 3.435e-8
0.006, 3.415e-8
0.005, 3.384e-8
0.004, 3.340e-8
0.003, 3.330e-8
0.002, 3.279e-8
0.001, 3.263e-8
0.000, 3.240e-8
-0.001, 3.190e-8
-0.002, 3.185e-8
-0.003, 3.133e-8
-0.004, 3.119e-8
-0.005, 3.091e-8
-0.006, 3.048e-8
-0.007, 3.046e-8
-0.008, 2.996e-8
-0.009, 2.983e-8
-0.010, 2.958e-8
-0.011, 2.918e-8
-0.012, 2.916e-8
-0.013, 2.869e-8
-0.014, 2.857e-8
-0.015, 2.834e-8
-0.016, 2.795e-8
-0.017, 2.796e-8
-0.018, 2.751e-8
-0.019, 2.741e-8
-0.020, 2.721e-8
-0.021, 2.682e-8
-0.022, 2.683e-8
-0.023, 2.641e-8
-0.024, 2.632e-8
-0.025, 2.613e-8
-0.026, 2.578e-8
-0.027, 2.580e-8
-0.028, 2.539e-8
-0.029, 2.531e-8
-0.030, 2.513e-8
-0.031, 2.479e-8
-0.032, 2.484e-8
-0.033, 2.442e-8
-0.034, 2.438e-8
-0.035, 2.420e-8
-0.036, 2.388e-8
-0.037, 2.393e-8
-0.038, 2.355e-8
-0.039, 2.351e-8
-0.040, 2.334e-8
-0.041, 2.304e-8
-0.042, 2.311e-8
-0.043, 2.271e-8
-0.044, 2.271e-8
-0.045, 2.254e-8
-0.046, 2.225e-8
-0.047, 2.234e-8
-0.048, 2.196e-8
-0.049, 2.195e-8
-0.050, 2.183e-8
-0.051, 2.152e-8
-0.052, 2.163e-8
-0.053, 2.126e-8
-0.054, 2.125e-8
-0.055, 2.113e-8
-0.056, 2.085e-8
-0.057, 2.095e-8
-0.058, 2.060e-8
-0.059, 2.061e-8
-0.060, 2.049e-8
-0.061, 2.021e-8
-0.062, 2.034e-8
-0.063, 2.000e-8
-0.064, 2.000e-8
-0.065, 1.991e-8
-0.066, 1.963e-8
-0.067, 1.975e-8
-0.068, 1.944e-8
-0.069, 1.944e-8
-0.070, 1.934e-8
-0.071, 1.910e-8
-0.072, 1.921e-8
-0.073, 1.889e-8
-0.074, 1.893e-8
-0.075, 1.882e-8
-0.076, 1.858e-8
-0.077, 1.872e-8
-0.078, 1.839e-8
-0.079, 1.843e-8
-0.080, 1.835e-8
-0.081, 1.810e-8
-0.082, 1.825e-8
-0.083, 1.794e-8
-0.084, 1.798e-8
-0.085, 1.789e-8
-0.086, 1.766e-8
-0.087, 1.782e-8
-0.088, 1.749e-8
-0.089, 1.756e-8
-0.090, 1.748e-8
-0.091, 1.723e-8
-0.092, 1.741e-8
-0.093, 1.709e-8
-0.094, 1.714e-8
-0.095, 1.709e-8
-0.096, 1.684e-8
-0.097, 1.701e-8
-0.098, 1.672e-8
-0.099, 1.677e-8
-0.100, 1.671e-8
-0.101, 1.649e-8
-0.102, 1.665e-8
-0.103, 1.635e-8
-0.104, 1.642e-8
-0.105, 1.635e-8
-0.106, 1.612e-8
-0.107, 1.630e-8
-0.108, 1.602e-8
-0.109, 1.606e-8
-0.110, 1.602e-8
-0.111, 1.581e-8
-0.112, 1.597e-8
-0.113, 1.570e-8
-0.114, 1.577e-8
-0.115, 1.571e-8
-0.116, 1.552e-8
-0.117, 1.567e-8
-0.118, 1.539e-8
-0.119, 1.548e-8
-0.120, 1.542e-8
-0.121, 1.521e-8
-0.122, 1.541e-8
-0.123, 1.511e-8
-0.124, 1.519e-8
-0.125, 1.515e-8
-0.126, 1.494e-8
-0.127, 1.512e-8
-0.128, 1.486e-8
-0.129, 1.493e-8
-0.130, 1.489e-8
-0.131, 1.469e-8
-0.132, 1.489e-8
-0.133, 1.459e-8
-0.134, 1.469e-8
-0.135, 1.466e-8
-0.136, 1.445e-8
-0.137, 1.464e-8
-0.138, 1.437e-8
-0.139, 1.446e-8
-0.140, 1.443e-8
-0.141, 1.423e-8
-0.142, 1.442e-8
-0.143, 1.416e-8
-0.144, 1.424e-8
-0.145, 1.421e-8
-0.146, 1.403e-8
-0.147, 1.421e-8
-0.148, 1.395e-8
-0.149, 1.404e-8
-0.150, 1.401e-8
-0.151, 1.382e-8
-0.152, 1.402e-8
-0.153, 1.376e-8
-0.154, 1.385e-8
-0.155, 1.382e-8
-0.156, 1.365e-8
-0.157, 1.383e-8
-0.158, 1.357e-8
-0.159, 1.368e-8
-0.160, 1.364e-8
-0.161, 1.346e-8
-0.162, 1.367e-8
-0.163, 1.339e-8
-0.164, 1.351e-8
-0.165, 1.348e-8
-0.166, 1.330e-8
-0.167, 1.350e-8
-0.168, 1.324e-8
-0.169, 1.334e-8
-0.170, 1.333e-8
-0.171, 1.314e-8
-0.172, 1.335e-8
-0.173, 1.310e-8
-0.174, 1.321e-8
-0.175, 1.319e-8
-0.176, 1.300e-8
-0.177, 1.322e-8
-0.178, 1.296e-8
-0.179, 1.306e-8
-0.180, 1.307e-8
-0.181, 1.287e-8
-0.182, 1.308e-8
-0.183, 1.285e-8
-0.184, 1.294e-8
-0.185, 1.292e-8
-0.186, 1.276e-8
-0.187, 1.297e-8
-0.188, 1.272e-8
-0.189, 1.283e-8
-0.190, 1.281e-8
-0.191, 1.265e-8
-0.192, 1.286e-8
-0.193, 1.261e-8
-0.194, 1.273e-8
-0.195, 1.271e-8
-0.196, 1.255e-8
-0.197, 1.275e-8
-0.198, 1.252e-8
-0.199, 1.264e-8
