Mar. 16, 2023   10:16:09
Cyclic Voltammetry
File: c:/users/oliverrz/desktop/electrolab/data/2023_03_16\fcmeoh_macros_1_mm\electrode7_cv_100mvs_1_mm.bin
Data Source:  Experiment
Instrument Model:  CHI760E
Header: CV
Note: 

Init E (V) = -0.2
High E (V) = 0.3
Low E (V) = -0.2
Final E (V) = -0.2
Init P/N = P
Scan Rate (V/s) = 0.1
Segment = 3
Sample Interval (V) = 0.001
Quiet Time (sec) = 2
Sensitivity (A/V) = 1e-7

Results:

Channel 1:
Segment 1:
Ep = 0.127V
ip = -7.049e-8A
Ah = -4.518e-8C

Segment 2:
Ep = 0.061V
ip = 6.358e-8A
Ah = 4.001e-8C

Segment 3:

Potential/V, Current/A

-0.200, 3.113e-9
-0.199, 2.793e-9
-0.198, 2.625e-9
-0.197, 2.605e-9
-0.196, 2.585e-9
-0.195, 2.497e-9
-0.194, 2.548e-9
-0.193, 2.448e-9
-0.192, 2.453e-9
-0.191, 2.450e-9
-0.190, 2.360e-9
-0.189, 2.420e-9
-0.188, 2.326e-9
-0.187, 2.336e-9
-0.186, 2.334e-9
-0.185, 2.249e-9
-0.184, 2.312e-9
-0.183, 2.222e-9
-0.182, 2.232e-9
-0.181, 2.235e-9
-0.180, 2.148e-9
-0.179, 2.211e-9
-0.178, 2.124e-9
-0.177, 2.136e-9
-0.176, 2.139e-9
-0.175, 2.055e-9
-0.174, 2.121e-9
-0.173, 2.037e-9
-0.172, 2.044e-9
-0.171, 2.054e-9
-0.170, 1.973e-9
-0.169, 2.031e-9
-0.168, 1.952e-9
-0.167, 1.963e-9
-0.166, 1.967e-9
-0.165, 1.889e-9
-0.164, 1.954e-9
-0.163, 1.874e-9
-0.162, 1.886e-9
-0.161, 1.891e-9
-0.160, 1.815e-9
-0.159, 1.877e-9
-0.158, 1.797e-9
-0.157, 1.812e-9
-0.156, 1.819e-9
-0.155, 1.744e-9
-0.154, 1.807e-9
-0.153, 1.725e-9
-0.152, 1.743e-9
-0.151, 1.749e-9
-0.150, 1.674e-9
-0.149, 1.742e-9
-0.148, 1.658e-9
-0.147, 1.677e-9
-0.146, 1.684e-9
-0.145, 1.607e-9
-0.144, 1.681e-9
-0.143, 1.594e-9
-0.142, 1.610e-9
-0.141, 1.622e-9
-0.140, 1.540e-9
-0.139, 1.616e-9
-0.138, 1.536e-9
-0.137, 1.551e-9
-0.136, 1.563e-9
-0.135, 1.483e-9
-0.134, 1.555e-9
-0.133, 1.477e-9
-0.132, 1.489e-9
-0.131, 1.504e-9
-0.130, 1.427e-9
-0.129, 1.494e-9
-0.128, 1.417e-9
-0.127, 1.433e-9
-0.126, 1.445e-9
-0.125, 1.368e-9
-0.124, 1.438e-9
-0.123, 1.363e-9
-0.122, 1.377e-9
-0.121, 1.388e-9
-0.120, 1.314e-9
-0.119, 1.384e-9
-0.118, 1.304e-9
-0.117, 1.324e-9
-0.116, 1.332e-9
-0.115, 1.261e-9
-0.114, 1.328e-9
-0.113, 1.252e-9
-0.112, 1.271e-9
-0.111, 1.280e-9
-0.110, 1.207e-9
-0.109, 1.277e-9
-0.108, 1.198e-9
-0.107, 1.218e-9
-0.106, 1.228e-9
-0.105, 1.154e-9
-0.104, 1.225e-9
-0.103, 1.143e-9
-0.102, 1.156e-9
-0.101, 1.173e-9
-0.100, 1.094e-9
-0.099, 1.171e-9
-0.098, 1.090e-9
-0.097, 1.104e-9
-0.096, 1.117e-9
-0.095, 1.037e-9
-0.094, 1.111e-9
-0.093, 1.030e-9
-0.092, 1.045e-9
-0.091, 1.058e-9
-0.090, 9.797e-10
-0.089, 1.047e-9
-0.088, 9.706e-10
-0.087, 9.843e-10
-0.086, 9.965e-10
-0.085, 9.193e-10
-0.084, 9.856e-10
-0.083, 9.082e-10
-0.082, 9.208e-10
-0.081, 9.298e-10
-0.080, 8.531e-10
-0.079, 9.169e-10
-0.078, 8.368e-10
-0.077, 8.501e-10
-0.076, 8.547e-10
-0.075, 7.802e-10
-0.074, 8.464e-10
-0.073, 7.607e-10
-0.072, 7.753e-10
-0.071, 7.805e-10
-0.070, 7.036e-10
-0.069, 7.672e-10
-0.068, 6.805e-10
-0.067, 6.924e-10
-0.066, 6.986e-10
-0.065, 6.108e-10
-0.064, 6.784e-10
-0.063, 5.863e-10
-0.062, 5.964e-10
-0.061, 6.035e-10
-0.060, 5.078e-10
-0.059, 5.775e-10
-0.058, 4.844e-10
-0.057, 4.867e-10
-0.056, 4.896e-10
-0.055, 4.013e-10
-0.054, 4.580e-10
-0.053, 3.684e-10
-0.052, 3.658e-10
-0.051, 3.647e-10
-0.050, 2.713e-10
-0.049, 3.261e-10
-0.048, 2.346e-10
-0.047, 2.279e-10
-0.046, 2.232e-10
-0.045, 1.271e-10
-0.044, 1.731e-10
-0.043, 7.957e-11
-0.042, 7.002e-11
-0.041, 5.741e-11
-0.040, -4.025e-11
-0.039, -8.664e-13
-0.038, -1.039e-10
-0.037, -1.183e-10
-0.036, -1.376e-10
-0.035, -2.404e-10
-0.034, -2.060e-10
-0.033, -3.212e-10
-0.032, -3.368e-10
-0.031, -3.657e-10
-0.030, -4.788e-10
-0.029, -4.477e-10
-0.028, -5.712e-10
-0.027, -5.969e-10
-0.026, -6.356e-10
-0.025, -7.620e-10
-0.024, -7.403e-10
-0.023, -8.706e-10
-0.022, -9.119e-10
-0.021, -9.546e-10
-0.020, -1.090e-9
-0.019, -1.081e-9
-0.018, -1.218e-9
-0.017, -1.275e-9
-0.016, -1.332e-9
-0.015, -1.483e-9
-0.014, -1.486e-9
-0.013, -1.643e-9
-0.012, -1.718e-9
-0.011, -1.787e-9
-0.010, -1.953e-9
-0.009, -1.977e-9
-0.008, -2.147e-9
-0.007, -2.239e-9
-0.006, -2.326e-9
-0.005, -2.509e-9
-0.004, -2.558e-9
-0.003, -2.748e-9
-0.002, -2.859e-9
-0.001, -2.975e-9
-0.000, -3.226e-9
0.001, -3.283e-9
0.002, -3.483e-9
0.003, -3.614e-9
0.004, -3.754e-9
0.005, -3.986e-9
0.006, -4.085e-9
0.007, -4.334e-9
0.008, -4.497e-9
0.009, -4.673e-9
0.010, -4.936e-9
0.011, -5.066e-9
0.012, -5.350e-9
0.013, -5.550e-9
0.014, -5.762e-9
0.015, -6.070e-9
0.016, -6.235e-9
0.017, -6.561e-9
0.018, -6.800e-9
0.019, -7.048e-9
0.020, -7.405e-9
0.021, -7.618e-9
0.022, -7.990e-9
0.023, -8.286e-9
0.024, -8.582e-9
0.025, -8.990e-9
0.026, -9.260e-9
0.027, -9.669e-9
0.028, -1.003e-8
0.029, -1.037e-8
0.030, -1.083e-8
0.031, -1.116e-8
0.032, -1.162e-8
0.033, -1.204e-8
0.034, -1.245e-8
0.035, -1.297e-8
0.036, -1.338e-8
0.037, -1.390e-8
0.038, -1.439e-8
0.039, -1.488e-8
0.040, -1.546e-8
0.041, -1.594e-8
0.042, -1.653e-8
0.043, -1.709e-8
0.044, -1.765e-8
0.045, -1.829e-8
0.046, -1.884e-8
0.047, -1.952e-8
0.048, -2.013e-8
0.049, -2.078e-8
0.050, -2.151e-8
0.051, -2.213e-8
0.052, -2.290e-8
0.053, -2.359e-8
0.054, -2.431e-8
0.055, -2.512e-8
0.056, -2.580e-8
0.057, -2.665e-8
0.058, -2.739e-8
0.059, -2.817e-8
0.060, -2.906e-8
0.061, -2.981e-8
0.062, -3.070e-8
0.063, -3.155e-8
0.064, -3.239e-8
0.065, -3.334e-8
0.066, -3.414e-8
0.067, -3.507e-8
0.068, -3.598e-8
0.069, -3.687e-8
0.070, -3.785e-8
0.071, -3.870e-8
0.072, -3.967e-8
0.073, -4.061e-8
0.074, -4.150e-8
0.075, -4.250e-8
0.076, -4.339e-8
0.077, -4.439e-8
0.078, -4.534e-8
0.079, -4.626e-8
0.080, -4.724e-8
0.081, -4.813e-8
0.082, -4.909e-8
0.083, -5.000e-8
0.084, -5.091e-8
0.085, -5.183e-8
0.086, -5.270e-8
0.087, -5.363e-8
0.088, -5.448e-8
0.089, -5.534e-8
0.090, -5.624e-8
0.091, -5.702e-8
0.092, -5.789e-8
0.093, -5.865e-8
0.094, -5.941e-8
0.095, -6.024e-8
0.096, -6.090e-8
0.097, -6.169e-8
0.098, -6.237e-8
0.099, -6.303e-8
0.100, -6.374e-8
0.101, -6.430e-8
0.102, -6.498e-8
0.103, -6.558e-8
0.104, -6.609e-8
0.105, -6.668e-8
0.106, -6.710e-8
0.107, -6.761e-8
0.108, -6.807e-8
0.109, -6.842e-8
0.110, -6.891e-8
0.111, -6.924e-8
0.112, -6.959e-8
0.113, -6.992e-8
0.114, -7.017e-8
0.115, -7.051e-8
0.116, -7.071e-8
0.117, -7.095e-8
0.118, -7.115e-8
0.119, -7.129e-8
0.120, -7.147e-8
0.121, -7.155e-8
0.122, -7.166e-8
0.123, -7.172e-8
0.124, -7.178e-8
0.125, -7.184e-8
0.126, -7.181e-8
0.127, -7.185e-8
0.128, -7.181e-8
0.129, -7.175e-8
0.130, -7.174e-8
0.131, -7.159e-8
0.132, -7.155e-8
0.133, -7.141e-8
0.134, -7.127e-8
0.135, -7.118e-8
0.136, -7.095e-8
0.137, -7.084e-8
0.138, -7.064e-8
0.139, -7.043e-8
0.140, -7.029e-8
0.141, -7.001e-8
0.142, -6.985e-8
0.143, -6.961e-8
0.144, -6.933e-8
0.145, -6.916e-8
0.146, -6.882e-8
0.147, -6.862e-8
0.148, -6.835e-8
0.149, -6.805e-8
0.150, -6.785e-8
0.151, -6.749e-8
0.152, -6.727e-8
0.153, -6.697e-8
0.154, -6.665e-8
0.155, -6.643e-8
0.156, -6.607e-8
0.157, -6.582e-8
0.158, -6.551e-8
0.159, -6.519e-8
0.160, -6.495e-8
0.161, -6.458e-8
0.162, -6.433e-8
0.163, -6.401e-8
0.164, -6.370e-8
0.165, -6.346e-8
0.166, -6.309e-8
0.167, -6.286e-8
0.168, -6.253e-8
0.169, -6.221e-8
0.170, -6.198e-8
0.171, -6.161e-8
0.172, -6.139e-8
0.173, -6.107e-8
0.174, -6.076e-8
0.175, -6.055e-8
0.176, -6.019e-8
0.177, -5.998e-8
0.178, -5.967e-8
0.179, -5.938e-8
0.180, -5.918e-8
0.181, -5.882e-8
0.182, -5.863e-8
0.183, -5.835e-8
0.184, -5.806e-8
0.185, -5.787e-8
0.186, -5.754e-8
0.187, -5.734e-8
0.188, -5.708e-8
0.189, -5.680e-8
0.190, -5.663e-8
0.191, -5.631e-8
0.192, -5.614e-8
0.193, -5.589e-8
0.194, -5.563e-8
0.195, -5.546e-8
0.196, -5.516e-8
0.197, -5.500e-8
0.198, -5.476e-8
0.199, -5.452e-8
0.200, -5.436e-8
0.201, -5.408e-8
0.202, -5.393e-8
0.203, -5.371e-8
0.204, -5.348e-8
0.205, -5.335e-8
0.206, -5.308e-8
0.207, -5.295e-8
0.208, -5.273e-8
0.209, -5.252e-8
0.210, -5.240e-8
0.211, -5.214e-8
0.212, -5.202e-8
0.213, -5.182e-8
0.214, -5.162e-8
0.215, -5.151e-8
0.216, -5.126e-8
0.217, -5.116e-8
0.218, -5.097e-8
0.219, -5.078e-8
0.220, -5.070e-8
0.221, -5.045e-8
0.222, -5.037e-8
0.223, -5.019e-8
0.224, -5.001e-8
0.225, -4.993e-8
0.226, -4.970e-8
0.227, -4.962e-8
0.228, -4.946e-8
0.229, -4.929e-8
0.230, -4.922e-8
0.231, -4.900e-8
0.232, -4.893e-8
0.233, -4.878e-8
0.234, -4.862e-8
0.235, -4.856e-8
0.236, -4.835e-8
0.237, -4.828e-8
0.238, -4.814e-8
0.239, -4.799e-8
0.240, -4.793e-8
0.241, -4.773e-8
0.242, -4.767e-8
0.243, -4.753e-8
0.244, -4.740e-8
0.245, -4.735e-8
0.246, -4.716e-8
0.247, -4.712e-8
0.248, -4.699e-8
0.249, -4.686e-8
0.250, -4.683e-8
0.251, -4.663e-8
0.252, -4.660e-8
0.253, -4.647e-8
0.254, -4.635e-8
0.255, -4.632e-8
0.256, -4.614e-8
0.257, -4.611e-8
0.258, -4.599e-8
0.259, -4.587e-8
0.260, -4.585e-8
0.261, -4.568e-8
0.262, -4.565e-8
0.263, -4.555e-8
0.264, -4.543e-8
0.265, -4.541e-8
0.266, -4.525e-8
0.267, -4.523e-8
0.268, -4.513e-8
0.269, -4.502e-8
0.270, -4.500e-8
0.271, -4.484e-8
0.272, -4.483e-8
0.273, -4.473e-8
0.274, -4.463e-8
0.275, -4.462e-8
0.276, -4.447e-8
0.277, -4.446e-8
0.278, -4.436e-8
0.279, -4.427e-8
0.280, -4.426e-8
0.281, -4.412e-8
0.282, -4.412e-8
0.283, -4.403e-8
0.284, -4.394e-8
0.285, -4.394e-8
0.286, -4.379e-8
0.287, -4.379e-8
0.288, -4.370e-8
0.289, -4.362e-8
0.290, -4.362e-8
0.291, -4.348e-8
0.292, -4.349e-8
0.293, -4.341e-8
0.294, -4.332e-8
0.295, -4.333e-8
0.296, -4.319e-8
0.297, -4.320e-8
0.298, -4.312e-8
0.299, -4.303e-8
0.300, -4.255e-8
0.299, -4.159e-8
0.298, -4.136e-8
0.297, -4.118e-8
0.296, -4.101e-8
0.295, -4.095e-8
0.294, -4.075e-8
0.293, -4.071e-8
0.292, -4.058e-8
0.291, -4.045e-8
0.290, -4.041e-8
0.289, -4.023e-8
0.288, -4.021e-8
0.287, -4.009e-8
0.286, -3.998e-8
0.285, -3.995e-8
0.284, -3.978e-8
0.283, -3.977e-8
0.282, -3.966e-8
0.281, -3.955e-8
0.280, -3.954e-8
0.279, -3.937e-8
0.278, -3.936e-8
0.277, -3.926e-8
0.276, -3.915e-8
0.275, -3.915e-8
0.274, -3.899e-8
0.273, -3.898e-8
0.272, -3.889e-8
0.271, -3.878e-8
0.270, -3.878e-8
0.269, -3.862e-8
0.268, -3.861e-8
0.267, -3.853e-8
0.266, -3.842e-8
0.265, -3.843e-8
0.264, -3.828e-8
0.263, -3.827e-8
0.262, -3.818e-8
0.261, -3.809e-8
0.260, -3.808e-8
0.259, -3.794e-8
0.258, -3.793e-8
0.257, -3.784e-8
0.256, -3.774e-8
0.255, -3.774e-8
0.254, -3.760e-8
0.253, -3.759e-8
0.252, -3.751e-8
0.251, -3.742e-8
0.250, -3.741e-8
0.249, -3.727e-8
0.248, -3.727e-8
0.247, -3.718e-8
0.246, -3.709e-8
0.245, -3.709e-8
0.244, -3.694e-8
0.243, -3.694e-8
0.242, -3.685e-8
0.241, -3.675e-8
0.240, -3.676e-8
0.239, -3.660e-8
0.238, -3.660e-8
0.237, -3.651e-8
0.236, -3.641e-8
0.235, -3.641e-8
0.234, -3.626e-8
0.233, -3.625e-8
0.232, -3.616e-8
0.231, -3.606e-8
0.230, -3.605e-8
0.229, -3.590e-8
0.228, -3.589e-8
0.227, -3.580e-8
0.226, -3.569e-8
0.225, -3.568e-8
0.224, -3.552e-8
0.223, -3.550e-8
0.222, -3.541e-8
0.221, -3.529e-8
0.220, -3.527e-8
0.219, -3.511e-8
0.218, -3.509e-8
0.217, -3.498e-8
0.216, -3.487e-8
0.215, -3.484e-8
0.214, -3.468e-8
0.213, -3.464e-8
0.212, -3.453e-8
0.211, -3.441e-8
0.210, -3.437e-8
0.209, -3.419e-8
0.208, -3.415e-8
0.207, -3.402e-8
0.206, -3.388e-8
0.205, -3.383e-8
0.204, -3.364e-8
0.203, -3.358e-8
0.202, -3.344e-8
0.201, -3.329e-8
0.200, -3.324e-8
0.199, -3.303e-8
0.198, -3.296e-8
0.197, -3.280e-8
0.196, -3.263e-8
0.195, -3.256e-8
0.194, -3.233e-8
0.193, -3.224e-8
0.192, -3.207e-8
0.191, -3.187e-8
0.190, -3.178e-8
0.189, -3.153e-8
0.188, -3.141e-8
0.187, -3.122e-8
0.186, -3.101e-8
0.185, -3.089e-8
0.184, -3.061e-8
0.183, -3.046e-8
0.182, -3.025e-8
0.181, -3.000e-8
0.180, -2.984e-8
0.179, -2.954e-8
0.178, -2.936e-8
0.177, -2.910e-8
0.176, -2.884e-8
0.175, -2.865e-8
0.174, -2.832e-8
0.173, -2.811e-8
0.172, -2.781e-8
0.171, -2.750e-8
0.170, -2.727e-8
0.169, -2.689e-8
0.168, -2.664e-8
0.167, -2.629e-8
0.166, -2.593e-8
0.165, -2.565e-8
0.164, -2.522e-8
0.163, -2.493e-8
0.162, -2.453e-8
0.161, -2.413e-8
0.160, -2.380e-8
0.159, -2.331e-8
0.158, -2.295e-8
0.157, -2.250e-8
0.156, -2.203e-8
0.155, -2.165e-8
0.154, -2.110e-8
0.153, -2.067e-8
0.152, -2.017e-8
0.151, -1.963e-8
0.150, -1.918e-8
0.149, -1.858e-8
0.148, -1.808e-8
0.147, -1.751e-8
0.146, -1.690e-8
0.145, -1.637e-8
0.144, -1.571e-8
0.143, -1.512e-8
0.142, -1.448e-8
0.141, -1.379e-8
0.140, -1.319e-8
0.139, -1.246e-8
0.138, -1.180e-8
0.137, -1.110e-8
0.136, -1.034e-8
0.135, -9.663e-9
0.134, -8.861e-9
0.133, -8.128e-9
0.132, -7.324e-9
0.131, -6.522e-9
0.130, -5.756e-9
0.129, -4.879e-9
0.128, -4.075e-9
0.127, -3.222e-9
0.126, -2.357e-9
0.125, -1.543e-9
0.124, -6.007e-10
0.123, 2.337e-10
0.122, 1.156e-9
0.121, 2.080e-9
0.120, 2.933e-9
0.119, 3.944e-9
0.118, 4.810e-9
0.117, 5.763e-9
0.116, 6.740e-9
0.115, 7.608e-9
0.114, 8.632e-9
0.113, 9.539e-9
0.112, 1.049e-8
0.111, 1.148e-8
0.110, 1.234e-8
0.109, 1.336e-8
0.108, 1.427e-8
0.107, 1.518e-8
0.106, 1.617e-8
0.105, 1.704e-8
0.104, 1.801e-8
0.103, 1.891e-8
0.102, 1.983e-8
0.101, 2.073e-8
0.100, 2.156e-8
0.099, 2.244e-8
0.098, 2.328e-8
0.097, 2.410e-8
0.096, 2.495e-8
0.095, 2.569e-8
0.094, 2.651e-8
0.093, 2.725e-8
0.092, 2.798e-8
0.091, 2.872e-8
0.090, 2.938e-8
0.089, 3.010e-8
0.088, 3.072e-8
0.087, 3.135e-8
0.086, 3.197e-8
0.085, 3.252e-8
0.084, 3.312e-8
0.083, 3.360e-8
0.082, 3.410e-8
0.081, 3.461e-8
0.080, 3.500e-8
0.079, 3.551e-8
0.078, 3.584e-8
0.077, 3.623e-8
0.076, 3.662e-8
0.075, 3.686e-8
0.074, 3.722e-8
0.073, 3.745e-8
0.072, 3.770e-8
0.071, 3.796e-8
0.070, 3.806e-8
0.069, 3.831e-8
0.068, 3.842e-8
0.067, 3.855e-8
0.066, 3.868e-8
0.065, 3.871e-8
0.064, 3.883e-8
0.063, 3.884e-8
0.062, 3.884e-8
0.061, 3.889e-8
0.060, 3.880e-8
0.059, 3.883e-8
0.058, 3.875e-8
0.057, 3.867e-8
0.056, 3.862e-8
0.055, 3.848e-8
0.054, 3.841e-8
0.053, 3.825e-8
0.052, 3.812e-8
0.051, 3.801e-8
0.050, 3.779e-8
0.049, 3.767e-8
0.048, 3.744e-8
0.047, 3.726e-8
0.046, 3.708e-8
0.045, 3.680e-8
0.044, 3.665e-8
0.043, 3.636e-8
0.042, 3.615e-8
0.041, 3.594e-8
0.040, 3.563e-8
0.039, 3.546e-8
0.038, 3.516e-8
0.037, 3.491e-8
0.036, 3.468e-8
0.035, 3.433e-8
0.034, 3.415e-8
0.033, 3.382e-8
0.032, 3.356e-8
0.031, 3.333e-8
0.030, 3.297e-8
0.029, 3.277e-8
0.028, 3.245e-8
0.027, 3.217e-8
0.026, 3.193e-8
0.025, 3.158e-8
0.024, 3.138e-8
0.023, 3.105e-8
0.022, 3.077e-8
0.021, 3.053e-8
0.020, 3.019e-8
0.019, 2.999e-8
0.018, 2.966e-8
0.017, 2.940e-8
0.016, 2.916e-8
0.015, 2.883e-8
0.014, 2.864e-8
0.013, 2.833e-8
0.012, 2.808e-8
0.011, 2.785e-8
0.010, 2.753e-8
0.009, 2.735e-8
0.008, 2.704e-8
0.007, 2.680e-8
0.006, 2.658e-8
0.005, 2.628e-8
0.004, 2.611e-8
0.003, 2.582e-8
0.002, 2.559e-8
0.001, 2.540e-8
0.000, 2.513e-8
-0.001, 2.497e-8
-0.002, 2.468e-8
-0.003, 2.446e-8
-0.004, 2.428e-8
-0.005, 2.398e-8
-0.006, 2.384e-8
-0.007, 2.358e-8
-0.008, 2.338e-8
-0.009, 2.321e-8
-0.010, 2.293e-8
-0.011, 2.281e-8
-0.012, 2.256e-8
-0.013, 2.237e-8
-0.014, 2.222e-8
-0.015, 2.195e-8
-0.016, 2.185e-8
-0.017, 2.161e-8
-0.018, 2.144e-8
-0.019, 2.130e-8
-0.020, 2.105e-8
-0.021, 2.095e-8
-0.022, 2.073e-8
-0.023, 2.057e-8
-0.024, 2.044e-8
-0.025, 2.021e-8
-0.026, 2.013e-8
-0.027, 1.991e-8
-0.028, 1.977e-8
-0.029, 1.965e-8
-0.030, 1.943e-8
-0.031, 1.936e-8
-0.032, 1.915e-8
-0.033, 1.902e-8
-0.034, 1.891e-8
-0.035, 1.870e-8
-0.036, 1.864e-8
-0.037, 1.844e-8
-0.038, 1.833e-8
-0.039, 1.823e-8
-0.040, 1.803e-8
-0.041, 1.798e-8
-0.042, 1.779e-8
-0.043, 1.768e-8
-0.044, 1.760e-8
-0.045, 1.740e-8
-0.046, 1.736e-8
-0.047, 1.719e-8
-0.048, 1.708e-8
-0.049, 1.700e-8
-0.050, 1.681e-8
-0.051, 1.679e-8
-0.052, 1.662e-8
-0.053, 1.652e-8
-0.054, 1.645e-8
-0.055, 1.627e-8
-0.056, 1.625e-8
-0.057, 1.609e-8
-0.058, 1.600e-8
-0.059, 1.593e-8
-0.060, 1.577e-8
-0.061, 1.575e-8
-0.062, 1.560e-8
-0.063, 1.551e-8
-0.064, 1.546e-8
-0.065, 1.530e-8
-0.066, 1.529e-8
-0.067, 1.514e-8
-0.068, 1.507e-8
-0.069, 1.501e-8
-0.070, 1.486e-8
-0.071, 1.486e-8
-0.072, 1.471e-8
-0.073, 1.465e-8
-0.074, 1.460e-8
-0.075, 1.446e-8
-0.076, 1.446e-8
-0.077, 1.433e-8
-0.078, 1.426e-8
-0.079, 1.422e-8
-0.080, 1.407e-8
-0.081, 1.409e-8
-0.082, 1.396e-8
-0.083, 1.389e-8
-0.084, 1.386e-8
-0.085, 1.372e-8
-0.086, 1.373e-8
-0.087, 1.361e-8
-0.088, 1.355e-8
-0.089, 1.353e-8
-0.090, 1.339e-8
-0.091, 1.340e-8
-0.092, 1.329e-8
-0.093, 1.323e-8
-0.094, 1.321e-8
-0.095, 1.308e-8
-0.096, 1.310e-8
-0.097, 1.299e-8
-0.098, 1.293e-8
-0.099, 1.292e-8
-0.100, 1.279e-8
-0.101, 1.281e-8
-0.102, 1.270e-8
-0.103, 1.266e-8
-0.104, 1.264e-8
-0.105, 1.252e-8
-0.106, 1.254e-8
-0.107, 1.243e-8
-0.108, 1.239e-8
-0.109, 1.237e-8
-0.110, 1.226e-8
-0.111, 1.229e-8
-0.112, 1.219e-8
-0.113, 1.215e-8
-0.114, 1.214e-8
-0.115, 1.202e-8
-0.116, 1.206e-8
-0.117, 1.195e-8
-0.118, 1.192e-8
-0.119, 1.192e-8
-0.120, 1.180e-8
-0.121, 1.184e-8
-0.122, 1.174e-8
-0.123, 1.170e-8
-0.124, 1.170e-8
-0.125, 1.158e-8
-0.126, 1.162e-8
-0.127, 1.153e-8
-0.128, 1.150e-8
-0.129, 1.150e-8
-0.130, 1.138e-8
-0.131, 1.143e-8
-0.132, 1.134e-8
-0.133, 1.131e-8
-0.134, 1.131e-8
-0.135, 1.120e-8
-0.136, 1.124e-8
-0.137, 1.116e-8
-0.138, 1.113e-8
-0.139, 1.113e-8
-0.140, 1.103e-8
-0.141, 1.107e-8
-0.142, 1.098e-8
-0.143, 1.096e-8
-0.144, 1.096e-8
-0.145, 1.086e-8
-0.146, 1.091e-8
-0.147, 1.083e-8
-0.148, 1.081e-8
-0.149, 1.081e-8
-0.150, 1.071e-8
-0.151, 1.076e-8
-0.152, 1.068e-8
-0.153, 1.066e-8
-0.154, 1.067e-8
-0.155, 1.057e-8
-0.156, 1.062e-8
-0.157, 1.054e-8
-0.158, 1.052e-8
-0.159, 1.053e-8
-0.160, 1.043e-8
-0.161, 1.049e-8
-0.162, 1.041e-8
-0.163, 1.039e-8
-0.164, 1.041e-8
-0.165, 1.031e-8
-0.166, 1.037e-8
-0.167, 1.029e-8
-0.168, 1.027e-8
-0.169, 1.029e-8
-0.170, 1.019e-8
-0.171, 1.025e-8
-0.172, 1.018e-8
-0.173, 1.016e-8
-0.174, 1.019e-8
-0.175, 1.009e-8
-0.176, 1.015e-8
-0.177, 1.008e-8
-0.178, 1.006e-8
-0.179, 1.009e-8
-0.180, 9.997e-9
-0.181, 1.005e-8
-0.182, 9.987e-9
-0.183, 9.975e-9
-0.184, 9.998e-9
-0.185, 9.908e-9
-0.186, 9.967e-9
-0.187, 9.897e-9
-0.188, 9.891e-9
-0.189, 9.912e-9
-0.190, 9.827e-9
-0.191, 9.891e-9
-0.192, 9.825e-9
-0.193, 9.818e-9
-0.194, 9.842e-9
-0.195, 9.754e-9
-0.196, 9.824e-9
-0.197, 9.752e-9
-0.198, 9.748e-9
-0.199, 9.783e-9
