Mar. 16, 2023   10:17:28
Cyclic Voltammetry
File: c:/users/oliverrz/desktop/electrolab/data/2023_03_16\fcmeoh_macros_1_mm\electrode8_cv_100mvs_1_mm.bin
Data Source:  Experiment
Instrument Model:  CHI760E
Header: CV
Note: 

Init E (V) = -0.2
High E (V) = 0.3
Low E (V) = -0.2
Final E (V) = -0.2
Init P/N = P
Scan Rate (V/s) = 0.1
Segment = 3
Sample Interval (V) = 0.001
Quiet Time (sec) = 2
Sensitivity (A/V) = 1e-7

Results:

Channel 1:
Segment 1:
Ep = 0.125V
ip = -6.948e-8A
Ah = -4.318e-8C

Segment 2:
Ep = 0.061V
ip = 6.312e-8A
Ah = 3.929e-8C

Segment 3:

Potential/V, Current/A

-0.200, 5.247e-9
-0.199, 4.767e-9
-0.198, 4.523e-9
-0.197, 4.493e-9
-0.196, 4.419e-9
-0.195, 4.326e-9
-0.194, 4.346e-9
-0.193, 4.213e-9
-0.192, 4.221e-9
-0.191, 4.161e-9
-0.190, 4.074e-9
-0.189, 4.110e-9
-0.188, 3.986e-9
-0.187, 4.002e-9
-0.186, 3.951e-9
-0.185, 3.861e-9
-0.184, 3.900e-9
-0.183, 3.781e-9
-0.182, 3.799e-9
-0.181, 3.756e-9
-0.180, 3.673e-9
-0.179, 3.711e-9
-0.178, 3.599e-9
-0.177, 3.614e-9
-0.176, 3.579e-9
-0.175, 3.497e-9
-0.174, 3.543e-9
-0.173, 3.428e-9
-0.172, 3.444e-9
-0.171, 3.408e-9
-0.170, 3.332e-9
-0.169, 3.373e-9
-0.168, 3.269e-9
-0.167, 3.286e-9
-0.166, 3.248e-9
-0.165, 3.180e-9
-0.164, 3.221e-9
-0.163, 3.117e-9
-0.162, 3.140e-9
-0.161, 3.098e-9
-0.160, 3.030e-9
-0.159, 3.076e-9
-0.158, 2.972e-9
-0.157, 2.999e-9
-0.156, 2.960e-9
-0.155, 2.897e-9
-0.154, 2.941e-9
-0.153, 2.834e-9
-0.152, 2.864e-9
-0.151, 2.831e-9
-0.150, 2.761e-9
-0.149, 2.816e-9
-0.148, 2.705e-9
-0.147, 2.739e-9
-0.146, 2.706e-9
-0.145, 2.637e-9
-0.144, 2.694e-9
-0.143, 2.593e-9
-0.142, 2.618e-9
-0.141, 2.589e-9
-0.140, 2.522e-9
-0.139, 2.576e-9
-0.138, 2.476e-9
-0.137, 2.503e-9
-0.136, 2.481e-9
-0.135, 2.410e-9
-0.134, 2.467e-9
-0.133, 2.367e-9
-0.132, 2.395e-9
-0.131, 2.374e-9
-0.130, 2.308e-9
-0.129, 2.357e-9
-0.128, 2.263e-9
-0.127, 2.289e-9
-0.126, 2.267e-9
-0.125, 2.204e-9
-0.124, 2.260e-9
-0.123, 2.163e-9
-0.122, 2.195e-9
-0.121, 2.167e-9
-0.120, 2.103e-9
-0.119, 2.160e-9
-0.118, 2.060e-9
-0.117, 2.096e-9
-0.116, 2.071e-9
-0.115, 2.006e-9
-0.114, 2.066e-9
-0.113, 1.965e-9
-0.112, 2.003e-9
-0.111, 1.976e-9
-0.110, 1.911e-9
-0.109, 1.973e-9
-0.108, 1.869e-9
-0.107, 1.906e-9
-0.106, 1.886e-9
-0.105, 1.820e-9
-0.104, 1.880e-9
-0.103, 1.778e-9
-0.102, 1.809e-9
-0.101, 1.794e-9
-0.100, 1.725e-9
-0.099, 1.789e-9
-0.098, 1.694e-9
-0.097, 1.720e-9
-0.096, 1.706e-9
-0.095, 1.636e-9
-0.094, 1.695e-9
-0.093, 1.599e-9
-0.092, 1.628e-9
-0.091, 1.612e-9
-0.090, 1.541e-9
-0.089, 1.597e-9
-0.088, 1.509e-9
-0.087, 1.533e-9
-0.086, 1.517e-9
-0.085, 1.452e-9
-0.084, 1.505e-9
-0.083, 1.416e-9
-0.082, 1.441e-9
-0.081, 1.417e-9
-0.080, 1.354e-9
-0.079, 1.409e-9
-0.078, 1.314e-9
-0.077, 1.339e-9
-0.076, 1.316e-9
-0.075, 1.252e-9
-0.074, 1.306e-9
-0.073, 1.211e-9
-0.072, 1.238e-9
-0.071, 1.217e-9
-0.070, 1.146e-9
-0.069, 1.205e-9
-0.068, 1.101e-9
-0.067, 1.129e-9
-0.066, 1.105e-9
-0.065, 1.030e-9
-0.064, 1.086e-9
-0.063, 9.850e-10
-0.062, 1.005e-9
-0.061, 9.838e-10
-0.060, 9.046e-10
-0.059, 9.611e-10
-0.058, 8.568e-10
-0.057, 8.717e-10
-0.056, 8.513e-10
-0.055, 7.705e-10
-0.054, 8.185e-10
-0.053, 7.147e-10
-0.052, 7.259e-10
-0.051, 7.009e-10
-0.050, 6.141e-10
-0.049, 6.617e-10
-0.048, 5.518e-10
-0.047, 5.627e-10
-0.046, 5.279e-10
-0.045, 4.437e-10
-0.044, 4.789e-10
-0.043, 3.690e-10
-0.042, 3.774e-10
-0.041, 3.366e-10
-0.040, 2.482e-10
-0.039, 2.804e-10
-0.038, 1.615e-10
-0.037, 1.656e-10
-0.036, 1.199e-10
-0.035, 2.463e-11
-0.034, 5.456e-11
-0.033, -7.244e-11
-0.032, -7.569e-11
-0.031, -1.286e-10
-0.030, -2.347e-10
-0.029, -2.113e-10
-0.028, -3.497e-10
-0.027, -3.593e-10
-0.026, -4.225e-10
-0.025, -5.443e-10
-0.024, -5.251e-10
-0.023, -6.701e-10
-0.022, -6.997e-10
-0.021, -7.646e-10
-0.020, -8.984e-10
-0.019, -8.938e-10
-0.018, -1.048e-9
-0.017, -1.090e-9
-0.016, -1.164e-9
-0.015, -1.311e-9
-0.014, -1.324e-9
-0.013, -1.491e-9
-0.012, -1.555e-9
-0.011, -1.646e-9
-0.010, -1.807e-9
-0.009, -1.838e-9
-0.008, -2.020e-9
-0.007, -2.099e-9
-0.006, -2.214e-9
-0.005, -2.390e-9
-0.004, -2.446e-9
-0.003, -2.642e-9
-0.002, -2.749e-9
-0.001, -2.885e-9
-0.000, -3.136e-9
0.001, -3.197e-9
0.002, -3.414e-9
0.003, -3.527e-9
0.004, -3.695e-9
0.005, -3.912e-9
0.006, -4.024e-9
0.007, -4.285e-9
0.008, -4.433e-9
0.009, -4.637e-9
0.010, -4.893e-9
0.011, -5.029e-9
0.012, -5.336e-9
0.013, -5.521e-9
0.014, -5.757e-9
0.015, -6.055e-9
0.016, -6.229e-9
0.017, -6.566e-9
0.018, -6.799e-9
0.019, -7.068e-9
0.020, -7.428e-9
0.021, -7.645e-9
0.022, -8.030e-9
0.023, -8.316e-9
0.024, -8.627e-9
0.025, -9.040e-9
0.026, -9.314e-9
0.027, -9.742e-9
0.028, -1.010e-8
0.029, -1.045e-8
0.030, -1.091e-8
0.031, -1.125e-8
0.032, -1.173e-8
0.033, -1.215e-8
0.034, -1.258e-8
0.035, -1.309e-8
0.036, -1.350e-8
0.037, -1.404e-8
0.038, -1.452e-8
0.039, -1.503e-8
0.040, -1.561e-8
0.041, -1.609e-8
0.042, -1.670e-8
0.043, -1.725e-8
0.044, -1.784e-8
0.045, -1.848e-8
0.046, -1.903e-8
0.047, -1.972e-8
0.048, -2.032e-8
0.049, -2.099e-8
0.050, -2.171e-8
0.051, -2.236e-8
0.052, -2.315e-8
0.053, -2.383e-8
0.054, -2.456e-8
0.055, -2.536e-8
0.056, -2.605e-8
0.057, -2.690e-8
0.058, -2.764e-8
0.059, -2.844e-8
0.060, -2.933e-8
0.061, -3.007e-8
0.062, -3.099e-8
0.063, -3.183e-8
0.064, -3.270e-8
0.065, -3.363e-8
0.066, -3.444e-8
0.067, -3.538e-8
0.068, -3.629e-8
0.069, -3.716e-8
0.070, -3.814e-8
0.071, -3.901e-8
0.072, -3.998e-8
0.073, -4.092e-8
0.074, -4.183e-8
0.075, -4.282e-8
0.076, -4.371e-8
0.077, -4.471e-8
0.078, -4.565e-8
0.079, -4.657e-8
0.080, -4.754e-8
0.081, -4.843e-8
0.082, -4.938e-8
0.083, -5.029e-8
0.084, -5.119e-8
0.085, -5.213e-8
0.086, -5.297e-8
0.087, -5.390e-8
0.088, -5.475e-8
0.089, -5.562e-8
0.090, -5.651e-8
0.091, -5.727e-8
0.092, -5.815e-8
0.093, -5.889e-8
0.094, -5.966e-8
0.095, -6.046e-8
0.096, -6.113e-8
0.097, -6.190e-8
0.098, -6.255e-8
0.099, -6.321e-8
0.100, -6.393e-8
0.101, -6.446e-8
0.102, -6.516e-8
0.103, -6.573e-8
0.104, -6.624e-8
0.105, -6.682e-8
0.106, -6.724e-8
0.107, -6.775e-8
0.108, -6.819e-8
0.109, -6.855e-8
0.110, -6.901e-8
0.111, -6.932e-8
0.112, -6.969e-8
0.113, -7.001e-8
0.114, -7.026e-8
0.115, -7.058e-8
0.116, -7.079e-8
0.117, -7.101e-8
0.118, -7.119e-8
0.119, -7.133e-8
0.120, -7.152e-8
0.121, -7.157e-8
0.122, -7.171e-8
0.123, -7.177e-8
0.124, -7.180e-8
0.125, -7.187e-8
0.126, -7.182e-8
0.127, -7.186e-8
0.128, -7.183e-8
0.129, -7.177e-8
0.130, -7.176e-8
0.131, -7.160e-8
0.132, -7.157e-8
0.133, -7.141e-8
0.134, -7.128e-8
0.135, -7.119e-8
0.136, -7.096e-8
0.137, -7.087e-8
0.138, -7.065e-8
0.139, -7.044e-8
0.140, -7.032e-8
0.141, -7.003e-8
0.142, -6.988e-8
0.143, -6.962e-8
0.144, -6.935e-8
0.145, -6.918e-8
0.146, -6.885e-8
0.147, -6.866e-8
0.148, -6.838e-8
0.149, -6.809e-8
0.150, -6.789e-8
0.151, -6.753e-8
0.152, -6.731e-8
0.153, -6.702e-8
0.154, -6.672e-8
0.155, -6.649e-8
0.156, -6.614e-8
0.157, -6.589e-8
0.158, -6.559e-8
0.159, -6.528e-8
0.160, -6.504e-8
0.161, -6.467e-8
0.162, -6.444e-8
0.163, -6.412e-8
0.164, -6.382e-8
0.165, -6.358e-8
0.166, -6.322e-8
0.167, -6.300e-8
0.168, -6.268e-8
0.169, -6.237e-8
0.170, -6.214e-8
0.171, -6.177e-8
0.172, -6.156e-8
0.173, -6.124e-8
0.174, -6.095e-8
0.175, -6.073e-8
0.176, -6.037e-8
0.177, -6.018e-8
0.178, -5.988e-8
0.179, -5.959e-8
0.180, -5.940e-8
0.181, -5.904e-8
0.182, -5.885e-8
0.183, -5.857e-8
0.184, -5.829e-8
0.185, -5.810e-8
0.186, -5.778e-8
0.187, -5.759e-8
0.188, -5.733e-8
0.189, -5.705e-8
0.190, -5.689e-8
0.191, -5.658e-8
0.192, -5.642e-8
0.193, -5.617e-8
0.194, -5.592e-8
0.195, -5.576e-8
0.196, -5.546e-8
0.197, -5.531e-8
0.198, -5.507e-8
0.199, -5.483e-8
0.200, -5.468e-8
0.201, -5.439e-8
0.202, -5.425e-8
0.203, -5.402e-8
0.204, -5.380e-8
0.205, -5.367e-8
0.206, -5.340e-8
0.207, -5.329e-8
0.208, -5.307e-8
0.209, -5.287e-8
0.210, -5.276e-8
0.211, -5.250e-8
0.212, -5.240e-8
0.213, -5.219e-8
0.214, -5.200e-8
0.215, -5.190e-8
0.216, -5.166e-8
0.217, -5.156e-8
0.218, -5.137e-8
0.219, -5.118e-8
0.220, -5.110e-8
0.221, -5.086e-8
0.222, -5.077e-8
0.223, -5.061e-8
0.224, -5.043e-8
0.225, -5.036e-8
0.226, -5.013e-8
0.227, -5.005e-8
0.228, -4.989e-8
0.229, -4.973e-8
0.230, -4.966e-8
0.231, -4.945e-8
0.232, -4.938e-8
0.233, -4.923e-8
0.234, -4.908e-8
0.235, -4.902e-8
0.236, -4.882e-8
0.237, -4.876e-8
0.238, -4.861e-8
0.239, -4.848e-8
0.240, -4.842e-8
0.241, -4.824e-8
0.242, -4.819e-8
0.243, -4.805e-8
0.244, -4.792e-8
0.245, -4.787e-8
0.246, -4.769e-8
0.247, -4.766e-8
0.248, -4.753e-8
0.249, -4.740e-8
0.250, -4.735e-8
0.251, -4.718e-8
0.252, -4.715e-8
0.253, -4.703e-8
0.254, -4.691e-8
0.255, -4.688e-8
0.256, -4.671e-8
0.257, -4.668e-8
0.258, -4.656e-8
0.259, -4.644e-8
0.260, -4.642e-8
0.261, -4.624e-8
0.262, -4.622e-8
0.263, -4.612e-8
0.264, -4.601e-8
0.265, -4.600e-8
0.266, -4.583e-8
0.267, -4.581e-8
0.268, -4.572e-8
0.269, -4.562e-8
0.270, -4.561e-8
0.271, -4.546e-8
0.272, -4.544e-8
0.273, -4.534e-8
0.274, -4.523e-8
0.275, -4.523e-8
0.276, -4.508e-8
0.277, -4.507e-8
0.278, -4.498e-8
0.279, -4.489e-8
0.280, -4.488e-8
0.281, -4.475e-8
0.282, -4.474e-8
0.283, -4.465e-8
0.284, -4.457e-8
0.285, -4.457e-8
0.286, -4.443e-8
0.287, -4.443e-8
0.288, -4.435e-8
0.289, -4.427e-8
0.290, -4.428e-8
0.291, -4.414e-8
0.292, -4.415e-8
0.293, -4.408e-8
0.294, -4.399e-8
0.295, -4.401e-8
0.296, -4.387e-8
0.297, -4.387e-8
0.298, -4.381e-8
0.299, -4.373e-8
0.300, -4.305e-8
0.299, -4.171e-8
0.298, -4.137e-8
0.297, -4.113e-8
0.296, -4.092e-8
0.295, -4.083e-8
0.294, -4.061e-8
0.293, -4.053e-8
0.292, -4.038e-8
0.291, -4.022e-8
0.290, -4.017e-8
0.289, -3.998e-8
0.288, -3.993e-8
0.287, -3.980e-8
0.286, -3.966e-8
0.285, -3.963e-8
0.284, -3.944e-8
0.283, -3.941e-8
0.282, -3.929e-8
0.281, -3.917e-8
0.280, -3.914e-8
0.279, -3.897e-8
0.278, -3.894e-8
0.277, -3.884e-8
0.276, -3.871e-8
0.275, -3.870e-8
0.274, -3.854e-8
0.273, -3.851e-8
0.272, -3.841e-8
0.271, -3.830e-8
0.270, -3.830e-8
0.269, -3.813e-8
0.268, -3.811e-8
0.267, -3.802e-8
0.266, -3.791e-8
0.265, -3.790e-8
0.264, -3.775e-8
0.263, -3.773e-8
0.262, -3.765e-8
0.261, -3.754e-8
0.260, -3.753e-8
0.259, -3.739e-8
0.258, -3.737e-8
0.257, -3.728e-8
0.256, -3.717e-8
0.255, -3.717e-8
0.254, -3.702e-8
0.253, -3.701e-8
0.252, -3.692e-8
0.251, -3.683e-8
0.250, -3.682e-8
0.249, -3.668e-8
0.248, -3.666e-8
0.247, -3.658e-8
0.246, -3.647e-8
0.245, -3.647e-8
0.244, -3.632e-8
0.243, -3.631e-8
0.242, -3.622e-8
0.241, -3.612e-8
0.240, -3.612e-8
0.239, -3.596e-8
0.238, -3.595e-8
0.237, -3.586e-8
0.236, -3.575e-8
0.235, -3.575e-8
0.234, -3.560e-8
0.233, -3.558e-8
0.232, -3.549e-8
0.231, -3.538e-8
0.230, -3.538e-8
0.229, -3.522e-8
0.228, -3.519e-8
0.227, -3.511e-8
0.226, -3.500e-8
0.225, -3.498e-8
0.224, -3.483e-8
0.223, -3.480e-8
0.222, -3.470e-8
0.221, -3.458e-8
0.220, -3.456e-8
0.219, -3.440e-8
0.218, -3.436e-8
0.217, -3.426e-8
0.216, -3.414e-8
0.215, -3.411e-8
0.214, -3.395e-8
0.213, -3.391e-8
0.212, -3.379e-8
0.211, -3.367e-8
0.210, -3.363e-8
0.209, -3.345e-8
0.208, -3.340e-8
0.207, -3.328e-8
0.206, -3.313e-8
0.205, -3.309e-8
0.204, -3.289e-8
0.203, -3.284e-8
0.202, -3.270e-8
0.201, -3.254e-8
0.200, -3.249e-8
0.199, -3.227e-8
0.198, -3.219e-8
0.197, -3.204e-8
0.196, -3.186e-8
0.195, -3.180e-8
0.194, -3.157e-8
0.193, -3.147e-8
0.192, -3.130e-8
0.191, -3.111e-8
0.190, -3.102e-8
0.189, -3.076e-8
0.188, -3.064e-8
0.187, -3.046e-8
0.186, -3.023e-8
0.185, -3.012e-8
0.184, -2.984e-8
0.183, -2.970e-8
0.182, -2.949e-8
0.181, -2.923e-8
0.180, -2.908e-8
0.179, -2.879e-8
0.178, -2.861e-8
0.177, -2.836e-8
0.176, -2.808e-8
0.175, -2.790e-8
0.174, -2.757e-8
0.173, -2.735e-8
0.172, -2.707e-8
0.171, -2.675e-8
0.170, -2.653e-8
0.169, -2.616e-8
0.168, -2.590e-8
0.167, -2.556e-8
0.166, -2.520e-8
0.165, -2.493e-8
0.164, -2.451e-8
0.163, -2.421e-8
0.162, -2.382e-8
0.161, -2.342e-8
0.160, -2.309e-8
0.159, -2.261e-8
0.158, -2.225e-8
0.157, -2.182e-8
0.156, -2.133e-8
0.155, -2.097e-8
0.154, -2.042e-8
0.153, -1.998e-8
0.152, -1.950e-8
0.151, -1.896e-8
0.150, -1.852e-8
0.149, -1.792e-8
0.148, -1.742e-8
0.147, -1.687e-8
0.146, -1.625e-8
0.145, -1.574e-8
0.144, -1.508e-8
0.143, -1.448e-8
0.142, -1.388e-8
0.141, -1.318e-8
0.140, -1.258e-8
0.139, -1.187e-8
0.138, -1.121e-8
0.137, -1.051e-8
0.136, -9.754e-9
0.135, -9.088e-9
0.134, -8.295e-9
0.133, -7.548e-9
0.132, -6.777e-9
0.131, -5.970e-9
0.130, -5.214e-9
0.129, -4.352e-9
0.128, -3.550e-9
0.127, -2.708e-9
0.126, -1.836e-9
0.125, -1.029e-9
0.124, -9.941e-11
0.123, 7.438e-10
0.122, 1.647e-9
0.121, 2.569e-9
0.120, 3.427e-9
0.119, 4.421e-9
0.118, 5.286e-9
0.117, 6.226e-9
0.116, 7.214e-9
0.115, 8.096e-9
0.114, 9.111e-9
0.113, 1.001e-8
0.112, 1.094e-8
0.111, 1.195e-8
0.110, 1.281e-8
0.109, 1.383e-8
0.108, 1.473e-8
0.107, 1.565e-8
0.106, 1.665e-8
0.105, 1.751e-8
0.104, 1.850e-8
0.103, 1.942e-8
0.102, 2.032e-8
0.101, 2.124e-8
0.100, 2.207e-8
0.099, 2.297e-8
0.098, 2.381e-8
0.097, 2.464e-8
0.096, 2.549e-8
0.095, 2.625e-8
0.094, 2.707e-8
0.093, 2.784e-8
0.092, 2.857e-8
0.091, 2.932e-8
0.090, 3.000e-8
0.089, 3.073e-8
0.088, 3.136e-8
0.087, 3.200e-8
0.086, 3.262e-8
0.085, 3.319e-8
0.084, 3.380e-8
0.083, 3.431e-8
0.082, 3.483e-8
0.081, 3.535e-8
0.080, 3.575e-8
0.079, 3.627e-8
0.078, 3.662e-8
0.077, 3.704e-8
0.076, 3.743e-8
0.075, 3.770e-8
0.074, 3.807e-8
0.073, 3.831e-8
0.072, 3.856e-8
0.071, 3.884e-8
0.070, 3.897e-8
0.069, 3.923e-8
0.068, 3.937e-8
0.067, 3.947e-8
0.066, 3.965e-8
0.065, 3.967e-8
0.064, 3.982e-8
0.063, 3.986e-8
0.062, 3.985e-8
0.061, 3.992e-8
0.060, 3.985e-8
0.059, 3.988e-8
0.058, 3.982e-8
0.057, 3.974e-8
0.056, 3.970e-8
0.055, 3.956e-8
0.054, 3.951e-8
0.053, 3.937e-8
0.052, 3.924e-8
0.051, 3.914e-8
0.050, 3.892e-8
0.049, 3.881e-8
0.048, 3.858e-8
0.047, 3.840e-8
0.046, 3.823e-8
0.045, 3.797e-8
0.044, 3.782e-8
0.043, 3.756e-8
0.042, 3.733e-8
0.041, 3.713e-8
0.040, 3.683e-8
0.039, 3.666e-8
0.038, 3.637e-8
0.037, 3.611e-8
0.036, 3.591e-8
0.035, 3.556e-8
0.034, 3.538e-8
0.033, 3.507e-8
0.032, 3.479e-8
0.031, 3.457e-8
0.030, 3.422e-8
0.029, 3.401e-8
0.028, 3.370e-8
0.027, 3.342e-8
0.026, 3.320e-8
0.025, 3.285e-8
0.024, 3.265e-8
0.023, 3.233e-8
0.022, 3.203e-8
0.021, 3.181e-8
0.020, 3.146e-8
0.019, 3.125e-8
0.018, 3.096e-8
0.017, 3.067e-8
0.016, 3.045e-8
0.015, 3.013e-8
0.014, 2.993e-8
0.013, 2.964e-8
0.012, 2.937e-8
0.011, 2.916e-8
0.010, 2.883e-8
0.009, 2.865e-8
0.008, 2.836e-8
0.007, 2.811e-8
0.006, 2.791e-8
0.005, 2.759e-8
0.004, 2.743e-8
0.003, 2.714e-8
0.002, 2.690e-8
0.001, 2.672e-8
0.000, 2.646e-8
-0.001, 2.629e-8
-0.002, 2.601e-8
-0.003, 2.578e-8
-0.004, 2.562e-8
-0.005, 2.532e-8
-0.006, 2.519e-8
-0.007, 2.494e-8
-0.008, 2.472e-8
-0.009, 2.458e-8
-0.010, 2.429e-8
-0.011, 2.416e-8
-0.012, 2.393e-8
-0.013, 2.372e-8
-0.014, 2.359e-8
-0.015, 2.332e-8
-0.016, 2.321e-8
-0.017, 2.299e-8
-0.018, 2.279e-8
-0.019, 2.267e-8
-0.020, 2.243e-8
-0.021, 2.233e-8
-0.022, 2.213e-8
-0.023, 2.195e-8
-0.024, 2.184e-8
-0.025, 2.161e-8
-0.026, 2.152e-8
-0.027, 2.132e-8
-0.028, 2.116e-8
-0.029, 2.106e-8
-0.030, 2.083e-8
-0.031, 2.076e-8
-0.032, 2.058e-8
-0.033, 2.043e-8
-0.034, 2.034e-8
-0.035, 2.012e-8
-0.036, 2.006e-8
-0.037, 1.989e-8
-0.038, 1.975e-8
-0.039, 1.967e-8
-0.040, 1.946e-8
-0.041, 1.941e-8
-0.042, 1.925e-8
-0.043, 1.912e-8
-0.044, 1.906e-8
-0.045, 1.886e-8
-0.046, 1.882e-8
-0.047, 1.866e-8
-0.048, 1.854e-8
-0.049, 1.849e-8
-0.050, 1.830e-8
-0.051, 1.827e-8
-0.052, 1.812e-8
-0.053, 1.800e-8
-0.054, 1.796e-8
-0.055, 1.778e-8
-0.056, 1.775e-8
-0.057, 1.762e-8
-0.058, 1.751e-8
-0.059, 1.747e-8
-0.060, 1.730e-8
-0.061, 1.728e-8
-0.062, 1.716e-8
-0.063, 1.706e-8
-0.064, 1.703e-8
-0.065, 1.687e-8
-0.066, 1.685e-8
-0.067, 1.673e-8
-0.068, 1.664e-8
-0.069, 1.662e-8
-0.070, 1.646e-8
-0.071, 1.645e-8
-0.072, 1.633e-8
-0.073, 1.625e-8
-0.074, 1.622e-8
-0.075, 1.607e-8
-0.076, 1.607e-8
-0.077, 1.596e-8
-0.078, 1.588e-8
-0.079, 1.586e-8
-0.080, 1.571e-8
-0.081, 1.572e-8
-0.082, 1.562e-8
-0.083, 1.554e-8
-0.084, 1.554e-8
-0.085, 1.539e-8
-0.086, 1.540e-8
-0.087, 1.530e-8
-0.088, 1.523e-8
-0.089, 1.523e-8
-0.090, 1.510e-8
-0.091, 1.511e-8
-0.092, 1.502e-8
-0.093, 1.494e-8
-0.094, 1.495e-8
-0.095, 1.481e-8
-0.096, 1.483e-8
-0.097, 1.475e-8
-0.098, 1.468e-8
-0.099, 1.469e-8
-0.100, 1.457e-8
-0.101, 1.458e-8
-0.102, 1.451e-8
-0.103, 1.444e-8
-0.104, 1.446e-8
-0.105, 1.433e-8
-0.106, 1.435e-8
-0.107, 1.427e-8
-0.108, 1.421e-8
-0.109, 1.422e-8
-0.110, 1.411e-8
-0.111, 1.414e-8
-0.112, 1.407e-8
-0.113, 1.402e-8
-0.114, 1.403e-8
-0.115, 1.392e-8
-0.116, 1.395e-8
-0.117, 1.388e-8
-0.118, 1.383e-8
-0.119, 1.385e-8
-0.120, 1.373e-8
-0.121, 1.378e-8
-0.122, 1.370e-8
-0.123, 1.366e-8
-0.124, 1.369e-8
-0.125, 1.357e-8
-0.126, 1.361e-8
-0.127, 1.355e-8
-0.128, 1.350e-8
-0.129, 1.354e-8
-0.130, 1.342e-8
-0.131, 1.347e-8
-0.132, 1.341e-8
-0.133, 1.336e-8
-0.134, 1.339e-8
-0.135, 1.329e-8
-0.136, 1.333e-8
-0.137, 1.329e-8
-0.138, 1.324e-8
-0.139, 1.328e-8
-0.140, 1.318e-8
-0.141, 1.322e-8
-0.142, 1.317e-8
-0.143, 1.313e-8
-0.144, 1.317e-8
-0.145, 1.308e-8
-0.146, 1.312e-8
-0.147, 1.307e-8
-0.148, 1.304e-8
-0.149, 1.308e-8
-0.150, 1.298e-8
-0.151, 1.303e-8
-0.152, 1.299e-8
-0.153, 1.295e-8
-0.154, 1.299e-8
-0.155, 1.291e-8
-0.156, 1.296e-8
-0.157, 1.291e-8
-0.158, 1.288e-8
-0.159, 1.292e-8
-0.160, 1.284e-8
-0.161, 1.290e-8
-0.162, 1.284e-8
-0.163, 1.282e-8
-0.164, 1.287e-8
-0.165, 1.279e-8
-0.166, 1.285e-8
-0.167, 1.282e-8
-0.168, 1.279e-8
-0.169, 1.285e-8
-0.170, 1.275e-8
-0.171, 1.282e-8
-0.172, 1.278e-8
-0.173, 1.274e-8
-0.174, 1.281e-8
-0.175, 1.274e-8
-0.176, 1.279e-8
-0.177, 1.276e-8
-0.178, 1.273e-8
-0.179, 1.280e-8
-0.180, 1.272e-8
-0.181, 1.278e-8
-0.182, 1.276e-8
-0.183, 1.274e-8
-0.184, 1.280e-8
-0.185, 1.273e-8
-0.186, 1.279e-8
-0.187, 1.277e-8
-0.188, 1.275e-8
-0.189, 1.281e-8
-0.190, 1.273e-8
-0.191, 1.281e-8
-0.192, 1.280e-8
-0.193, 1.278e-8
-0.194, 1.285e-8
-0.195, 1.278e-8
-0.196, 1.286e-8
-0.197, 1.283e-8
-0.198, 1.282e-8
-0.199, 1.289e-8
