Mar. 16, 2023   10:14:49
Cyclic Voltammetry
File: c:/users/oliverrz/desktop/electrolab/data/2023_03_16\fcmeoh_macros_1_mm\electrode6_cv_100mvs_1_mm.bin
Data Source:  Experiment
Instrument Model:  CHI760E
Header: CV
Note: 

Init E (V) = -0.2
High E (V) = 0.3
Low E (V) = -0.2
Final E (V) = -0.2
Init P/N = P
Scan Rate (V/s) = 0.1
Segment = 3
Sample Interval (V) = 0.001
Quiet Time (sec) = 2
Sensitivity (A/V) = 1e-7

Results:

Channel 1:
Segment 1:
Ep = 0.124V
ip = -6.663e-8A
Ah = -4.200e-8C

Segment 2:
Ep = 0.058V
ip = 6.395e-8A
Ah = 4.001e-8C

Segment 3:

Potential/V, Current/A

-0.200, 1.347e-8
-0.199, 1.254e-8
-0.198, 1.224e-8
-0.197, 1.200e-8
-0.196, 1.184e-8
-0.195, 1.167e-8
-0.194, 1.149e-8
-0.193, 1.137e-8
-0.192, 1.118e-8
-0.191, 1.106e-8
-0.190, 1.091e-8
-0.189, 1.076e-8
-0.188, 1.065e-8
-0.187, 1.048e-8
-0.186, 1.037e-8
-0.185, 1.023e-8
-0.184, 1.009e-8
-0.183, 9.988e-9
-0.182, 9.830e-9
-0.181, 9.732e-9
-0.180, 9.590e-9
-0.179, 9.457e-9
-0.178, 9.370e-9
-0.177, 9.213e-9
-0.176, 9.129e-9
-0.175, 9.004e-9
-0.174, 8.869e-9
-0.173, 8.789e-9
-0.172, 8.640e-9
-0.171, 8.557e-9
-0.170, 8.433e-9
-0.169, 8.306e-9
-0.168, 8.241e-9
-0.167, 8.099e-9
-0.166, 8.016e-9
-0.165, 7.912e-9
-0.164, 7.786e-9
-0.163, 7.729e-9
-0.162, 7.586e-9
-0.161, 7.516e-9
-0.160, 7.415e-9
-0.159, 7.298e-9
-0.158, 7.235e-9
-0.157, 7.116e-9
-0.156, 7.041e-9
-0.155, 6.947e-9
-0.154, 6.834e-9
-0.153, 6.776e-9
-0.152, 6.659e-9
-0.151, 6.594e-9
-0.150, 6.505e-9
-0.149, 6.406e-9
-0.148, 6.350e-9
-0.147, 6.238e-9
-0.146, 6.181e-9
-0.145, 6.086e-9
-0.144, 5.997e-9
-0.143, 5.946e-9
-0.142, 5.837e-9
-0.141, 5.783e-9
-0.140, 5.695e-9
-0.139, 5.611e-9
-0.138, 5.568e-9
-0.137, 5.457e-9
-0.136, 5.418e-9
-0.135, 5.335e-9
-0.134, 5.244e-9
-0.133, 5.209e-9
-0.132, 5.099e-9
-0.131, 5.065e-9
-0.130, 4.988e-9
-0.129, 4.899e-9
-0.128, 4.870e-9
-0.127, 4.767e-9
-0.126, 4.729e-9
-0.125, 4.658e-9
-0.124, 4.574e-9
-0.123, 4.551e-9
-0.122, 4.452e-9
-0.121, 4.413e-9
-0.120, 4.355e-9
-0.119, 4.275e-9
-0.118, 4.249e-9
-0.117, 4.156e-9
-0.116, 4.121e-9
-0.115, 4.058e-9
-0.114, 3.987e-9
-0.113, 3.962e-9
-0.112, 3.874e-9
-0.111, 3.845e-9
-0.110, 3.782e-9
-0.109, 3.714e-9
-0.108, 3.687e-9
-0.107, 3.604e-9
-0.106, 3.581e-9
-0.105, 3.516e-9
-0.104, 3.453e-9
-0.103, 3.431e-9
-0.102, 3.343e-9
-0.101, 3.324e-9
-0.100, 3.261e-9
-0.099, 3.201e-9
-0.098, 3.186e-9
-0.097, 3.098e-9
-0.096, 3.084e-9
-0.095, 3.026e-9
-0.094, 2.961e-9
-0.093, 2.954e-9
-0.092, 2.862e-9
-0.091, 2.852e-9
-0.090, 2.794e-9
-0.089, 2.726e-9
-0.088, 2.721e-9
-0.087, 2.643e-9
-0.086, 2.622e-9
-0.085, 2.577e-9
-0.084, 2.509e-9
-0.083, 2.504e-9
-0.082, 2.423e-9
-0.081, 2.404e-9
-0.080, 2.361e-9
-0.079, 2.295e-9
-0.078, 2.287e-9
-0.077, 2.209e-9
-0.076, 2.185e-9
-0.075, 2.143e-9
-0.074, 2.084e-9
-0.073, 2.068e-9
-0.072, 1.997e-9
-0.071, 1.975e-9
-0.070, 1.926e-9
-0.069, 1.868e-9
-0.068, 1.852e-9
-0.067, 1.784e-9
-0.066, 1.765e-9
-0.065, 1.711e-9
-0.064, 1.650e-9
-0.063, 1.639e-9
-0.062, 1.559e-9
-0.061, 1.546e-9
-0.060, 1.486e-9
-0.059, 1.431e-9
-0.058, 1.418e-9
-0.057, 1.332e-9
-0.056, 1.317e-9
-0.055, 1.262e-9
-0.054, 1.200e-9
-0.053, 1.191e-9
-0.052, 1.095e-9
-0.051, 1.077e-9
-0.050, 1.022e-9
-0.049, 9.499e-10
-0.048, 9.393e-10
-0.047, 8.467e-10
-0.046, 8.213e-10
-0.045, 7.646e-10
-0.044, 6.860e-10
-0.043, 6.737e-10
-0.042, 5.776e-10
-0.041, 5.402e-10
-0.040, 4.767e-10
-0.039, 3.970e-10
-0.038, 3.683e-10
-0.037, 2.773e-10
-0.036, 2.334e-10
-0.035, 1.722e-10
-0.034, 8.242e-11
-0.033, 4.698e-11
-0.032, -5.078e-11
-0.031, -9.744e-11
-0.030, -1.759e-10
-0.029, -2.672e-10
-0.028, -3.139e-10
-0.027, -4.184e-10
-0.026, -4.841e-10
-0.025, -5.704e-10
-0.024, -6.723e-10
-0.023, -7.279e-10
-0.022, -8.505e-10
-0.021, -9.155e-10
-0.020, -1.019e-9
-0.019, -1.124e-9
-0.018, -1.190e-9
-0.017, -1.335e-9
-0.016, -1.409e-9
-0.015, -1.526e-9
-0.014, -1.657e-9
-0.013, -1.739e-9
-0.012, -1.901e-9
-0.011, -1.987e-9
-0.010, -2.124e-9
-0.009, -2.277e-9
-0.008, -2.370e-9
-0.007, -2.547e-9
-0.006, -2.669e-9
-0.005, -2.822e-9
-0.004, -2.995e-9
-0.003, -3.108e-9
-0.002, -3.313e-9
-0.001, -3.461e-9
-0.000, -3.690e-9
0.001, -3.870e-9
0.002, -4.005e-9
0.003, -4.222e-9
0.004, -4.401e-9
0.005, -4.600e-9
0.006, -4.831e-9
0.007, -5.020e-9
0.008, -5.272e-9
0.009, -5.489e-9
0.010, -5.721e-9
0.011, -5.987e-9
0.012, -6.219e-9
0.013, -6.515e-9
0.014, -6.772e-9
0.015, -7.053e-9
0.016, -7.360e-9
0.017, -7.638e-9
0.018, -7.969e-9
0.019, -8.263e-9
0.020, -8.609e-9
0.021, -8.956e-9
0.022, -9.281e-9
0.023, -9.677e-9
0.024, -1.002e-8
0.025, -1.042e-8
0.026, -1.084e-8
0.027, -1.121e-8
0.028, -1.166e-8
0.029, -1.206e-8
0.030, -1.251e-8
0.031, -1.299e-8
0.032, -1.342e-8
0.033, -1.395e-8
0.034, -1.442e-8
0.035, -1.493e-8
0.036, -1.549e-8
0.037, -1.599e-8
0.038, -1.658e-8
0.039, -1.714e-8
0.040, -1.771e-8
0.041, -1.834e-8
0.042, -1.892e-8
0.043, -1.956e-8
0.044, -2.020e-8
0.045, -2.084e-8
0.046, -2.154e-8
0.047, -2.221e-8
0.048, -2.292e-8
0.049, -2.365e-8
0.050, -2.437e-8
0.051, -2.514e-8
0.052, -2.590e-8
0.053, -2.669e-8
0.054, -2.747e-8
0.055, -2.826e-8
0.056, -2.910e-8
0.057, -2.991e-8
0.058, -3.075e-8
0.059, -3.162e-8
0.060, -3.250e-8
0.061, -3.337e-8
0.062, -3.425e-8
0.063, -3.517e-8
0.064, -3.607e-8
0.065, -3.700e-8
0.066, -3.793e-8
0.067, -3.884e-8
0.068, -3.980e-8
0.069, -4.072e-8
0.070, -4.168e-8
0.071, -4.265e-8
0.072, -4.357e-8
0.073, -4.456e-8
0.074, -4.549e-8
0.075, -4.643e-8
0.076, -4.743e-8
0.077, -4.836e-8
0.078, -4.933e-8
0.079, -5.028e-8
0.080, -5.117e-8
0.081, -5.214e-8
0.082, -5.302e-8
0.083, -5.393e-8
0.084, -5.486e-8
0.085, -5.570e-8
0.086, -5.660e-8
0.087, -5.743e-8
0.088, -5.828e-8
0.089, -5.912e-8
0.090, -5.993e-8
0.091, -6.072e-8
0.092, -6.148e-8
0.093, -6.220e-8
0.094, -6.296e-8
0.095, -6.365e-8
0.096, -6.431e-8
0.097, -6.499e-8
0.098, -6.563e-8
0.099, -6.623e-8
0.100, -6.681e-8
0.101, -6.736e-8
0.102, -6.792e-8
0.103, -6.846e-8
0.104, -6.891e-8
0.105, -6.937e-8
0.106, -6.978e-8
0.107, -7.017e-8
0.108, -7.058e-8
0.109, -7.088e-8
0.110, -7.122e-8
0.111, -7.153e-8
0.112, -7.176e-8
0.113, -7.204e-8
0.114, -7.224e-8
0.115, -7.242e-8
0.116, -7.264e-8
0.117, -7.273e-8
0.118, -7.287e-8
0.119, -7.296e-8
0.120, -7.301e-8
0.121, -7.309e-8
0.122, -7.308e-8
0.123, -7.313e-8
0.124, -7.313e-8
0.125, -7.307e-8
0.126, -7.305e-8
0.127, -7.297e-8
0.128, -7.291e-8
0.129, -7.282e-8
0.130, -7.269e-8
0.131, -7.257e-8
0.132, -7.242e-8
0.133, -7.227e-8
0.134, -7.210e-8
0.135, -7.191e-8
0.136, -7.174e-8
0.137, -7.152e-8
0.138, -7.131e-8
0.139, -7.108e-8
0.140, -7.087e-8
0.141, -7.064e-8
0.142, -7.038e-8
0.143, -7.015e-8
0.144, -6.986e-8
0.145, -6.960e-8
0.146, -6.935e-8
0.147, -6.905e-8
0.148, -6.880e-8
0.149, -6.848e-8
0.150, -6.821e-8
0.151, -6.795e-8
0.152, -6.761e-8
0.153, -6.736e-8
0.154, -6.705e-8
0.155, -6.675e-8
0.156, -6.649e-8
0.157, -6.615e-8
0.158, -6.588e-8
0.159, -6.557e-8
0.160, -6.526e-8
0.161, -6.499e-8
0.162, -6.466e-8
0.163, -6.438e-8
0.164, -6.408e-8
0.165, -6.378e-8
0.166, -6.351e-8
0.167, -6.318e-8
0.168, -6.291e-8
0.169, -6.261e-8
0.170, -6.232e-8
0.171, -6.205e-8
0.172, -6.174e-8
0.173, -6.148e-8
0.174, -6.118e-8
0.175, -6.091e-8
0.176, -6.066e-8
0.177, -6.036e-8
0.178, -6.012e-8
0.179, -5.984e-8
0.180, -5.959e-8
0.181, -5.934e-8
0.182, -5.905e-8
0.183, -5.883e-8
0.184, -5.856e-8
0.185, -5.832e-8
0.186, -5.810e-8
0.187, -5.781e-8
0.188, -5.762e-8
0.189, -5.735e-8
0.190, -5.712e-8
0.191, -5.691e-8
0.192, -5.665e-8
0.193, -5.646e-8
0.194, -5.622e-8
0.195, -5.600e-8
0.196, -5.581e-8
0.197, -5.555e-8
0.198, -5.538e-8
0.199, -5.516e-8
0.200, -5.495e-8
0.201, -5.478e-8
0.202, -5.454e-8
0.203, -5.437e-8
0.204, -5.416e-8
0.205, -5.397e-8
0.206, -5.381e-8
0.207, -5.359e-8
0.208, -5.344e-8
0.209, -5.324e-8
0.210, -5.306e-8
0.211, -5.291e-8
0.212, -5.271e-8
0.213, -5.256e-8
0.214, -5.239e-8
0.215, -5.222e-8
0.216, -5.207e-8
0.217, -5.189e-8
0.218, -5.177e-8
0.219, -5.159e-8
0.220, -5.144e-8
0.221, -5.131e-8
0.222, -5.113e-8
0.223, -5.102e-8
0.224, -5.085e-8
0.225, -5.072e-8
0.226, -5.061e-8
0.227, -5.043e-8
0.228, -5.033e-8
0.229, -5.017e-8
0.230, -5.004e-8
0.231, -4.994e-8
0.232, -4.977e-8
0.233, -4.969e-8
0.234, -4.954e-8
0.235, -4.942e-8
0.236, -4.933e-8
0.237, -4.916e-8
0.238, -4.909e-8
0.239, -4.895e-8
0.240, -4.883e-8
0.241, -4.875e-8
0.242, -4.861e-8
0.243, -4.853e-8
0.244, -4.841e-8
0.245, -4.830e-8
0.246, -4.822e-8
0.247, -4.808e-8
0.248, -4.801e-8
0.249, -4.789e-8
0.250, -4.779e-8
0.251, -4.772e-8
0.252, -4.759e-8
0.253, -4.752e-8
0.254, -4.741e-8
0.255, -4.732e-8
0.256, -4.726e-8
0.257, -4.713e-8
0.258, -4.708e-8
0.259, -4.696e-8
0.260, -4.688e-8
0.261, -4.682e-8
0.262, -4.670e-8
0.263, -4.665e-8
0.264, -4.655e-8
0.265, -4.647e-8
0.266, -4.642e-8
0.267, -4.630e-8
0.268, -4.627e-8
0.269, -4.617e-8
0.270, -4.609e-8
0.271, -4.605e-8
0.272, -4.593e-8
0.273, -4.590e-8
0.274, -4.581e-8
0.275, -4.574e-8
0.276, -4.570e-8
0.277, -4.559e-8
0.278, -4.556e-8
0.279, -4.548e-8
0.280, -4.541e-8
0.281, -4.538e-8
0.282, -4.529e-8
0.283, -4.525e-8
0.284, -4.518e-8
0.285, -4.511e-8
0.286, -4.507e-8
0.287, -4.499e-8
0.288, -4.496e-8
0.289, -4.488e-8
0.290, -4.482e-8
0.291, -4.479e-8
0.292, -4.470e-8
0.293, -4.468e-8
0.294, -4.462e-8
0.295, -4.456e-8
0.296, -4.453e-8
0.297, -4.445e-8
0.298, -4.442e-8
0.299, -4.436e-8
0.300, -4.335e-8
0.299, -4.166e-8
0.298, -4.108e-8
0.297, -4.084e-8
0.296, -4.062e-8
0.295, -4.043e-8
0.294, -4.030e-8
0.293, -4.011e-8
0.292, -4.000e-8
0.291, -3.986e-8
0.290, -3.972e-8
0.289, -3.962e-8
0.288, -3.947e-8
0.287, -3.938e-8
0.286, -3.926e-8
0.285, -3.914e-8
0.284, -3.906e-8
0.283, -3.893e-8
0.282, -3.886e-8
0.281, -3.874e-8
0.280, -3.865e-8
0.279, -3.858e-8
0.278, -3.846e-8
0.277, -3.840e-8
0.276, -3.829e-8
0.275, -3.821e-8
0.274, -3.815e-8
0.273, -3.803e-8
0.272, -3.798e-8
0.271, -3.788e-8
0.270, -3.780e-8
0.269, -3.774e-8
0.268, -3.763e-8
0.267, -3.759e-8
0.266, -3.749e-8
0.265, -3.742e-8
0.264, -3.737e-8
0.263, -3.725e-8
0.262, -3.722e-8
0.261, -3.712e-8
0.260, -3.705e-8
0.259, -3.701e-8
0.258, -3.690e-8
0.257, -3.686e-8
0.256, -3.677e-8
0.255, -3.669e-8
0.254, -3.665e-8
0.253, -3.655e-8
0.252, -3.651e-8
0.251, -3.643e-8
0.250, -3.635e-8
0.249, -3.631e-8
0.248, -3.621e-8
0.247, -3.618e-8
0.246, -3.610e-8
0.245, -3.602e-8
0.244, -3.598e-8
0.243, -3.588e-8
0.242, -3.584e-8
0.241, -3.576e-8
0.240, -3.569e-8
0.239, -3.564e-8
0.238, -3.554e-8
0.237, -3.550e-8
0.236, -3.542e-8
0.235, -3.535e-8
0.234, -3.530e-8
0.233, -3.520e-8
0.232, -3.516e-8
0.231, -3.507e-8
0.230, -3.500e-8
0.229, -3.496e-8
0.228, -3.485e-8
0.227, -3.482e-8
0.226, -3.472e-8
0.225, -3.464e-8
0.224, -3.460e-8
0.223, -3.448e-8
0.222, -3.443e-8
0.221, -3.434e-8
0.220, -3.424e-8
0.219, -3.420e-8
0.218, -3.408e-8
0.217, -3.402e-8
0.216, -3.392e-8
0.215, -3.382e-8
0.214, -3.377e-8
0.213, -3.365e-8
0.212, -3.358e-8
0.211, -3.348e-8
0.210, -3.338e-8
0.209, -3.330e-8
0.208, -3.318e-8
0.207, -3.310e-8
0.206, -3.299e-8
0.205, -3.287e-8
0.204, -3.279e-8
0.203, -3.265e-8
0.202, -3.257e-8
0.201, -3.245e-8
0.200, -3.233e-8
0.199, -3.223e-8
0.198, -3.208e-8
0.197, -3.198e-8
0.196, -3.183e-8
0.195, -3.169e-8
0.194, -3.158e-8
0.193, -3.141e-8
0.192, -3.129e-8
0.191, -3.113e-8
0.190, -3.097e-8
0.189, -3.083e-8
0.188, -3.064e-8
0.187, -3.051e-8
0.186, -3.032e-8
0.185, -3.015e-8
0.184, -3.000e-8
0.183, -2.977e-8
0.182, -2.962e-8
0.181, -2.941e-8
0.180, -2.920e-8
0.179, -2.903e-8
0.178, -2.878e-8
0.177, -2.859e-8
0.176, -2.836e-8
0.175, -2.811e-8
0.174, -2.791e-8
0.173, -2.763e-8
0.172, -2.740e-8
0.171, -2.714e-8
0.170, -2.686e-8
0.169, -2.661e-8
0.168, -2.629e-8
0.167, -2.601e-8
0.166, -2.571e-8
0.165, -2.539e-8
0.164, -2.509e-8
0.163, -2.474e-8
0.162, -2.441e-8
0.161, -2.406e-8
0.160, -2.369e-8
0.159, -2.333e-8
0.158, -2.292e-8
0.157, -2.255e-8
0.156, -2.212e-8
0.155, -2.171e-8
0.154, -2.129e-8
0.153, -2.082e-8
0.152, -2.039e-8
0.151, -1.991e-8
0.150, -1.944e-8
0.149, -1.897e-8
0.148, -1.843e-8
0.147, -1.794e-8
0.146, -1.739e-8
0.145, -1.684e-8
0.144, -1.630e-8
0.143, -1.568e-8
0.142, -1.512e-8
0.141, -1.451e-8
0.140, -1.386e-8
0.139, -1.328e-8
0.138, -1.258e-8
0.137, -1.195e-8
0.136, -1.126e-8
0.135, -1.054e-8
0.134, -9.892e-9
0.133, -9.129e-9
0.132, -8.410e-9
0.131, -7.661e-9
0.130, -6.869e-9
0.129, -6.113e-9
0.128, -5.288e-9
0.127, -4.485e-9
0.126, -3.685e-9
0.125, -2.839e-9
0.124, -2.014e-9
0.123, -1.154e-9
0.122, -2.738e-10
0.121, 5.942e-10
0.120, 1.506e-9
0.119, 2.409e-9
0.118, 3.300e-9
0.117, 4.221e-9
0.116, 5.147e-9
0.115, 6.089e-9
0.114, 7.008e-9
0.113, 7.963e-9
0.112, 8.906e-9
0.111, 9.850e-9
0.110, 1.080e-8
0.109, 1.176e-8
0.108, 1.272e-8
0.107, 1.366e-8
0.106, 1.461e-8
0.105, 1.556e-8
0.104, 1.649e-8
0.103, 1.746e-8
0.102, 1.841e-8
0.101, 1.933e-8
0.100, 2.025e-8
0.099, 2.110e-8
0.098, 2.204e-8
0.097, 2.290e-8
0.096, 2.375e-8
0.095, 2.466e-8
0.094, 2.543e-8
0.093, 2.629e-8
0.092, 2.709e-8
0.091, 2.786e-8
0.090, 2.866e-8
0.089, 2.938e-8
0.088, 3.011e-8
0.087, 3.085e-8
0.086, 3.148e-8
0.085, 3.219e-8
0.084, 3.280e-8
0.083, 3.341e-8
0.082, 3.401e-8
0.081, 3.457e-8
0.080, 3.511e-8
0.079, 3.561e-8
0.078, 3.611e-8
0.077, 3.659e-8
0.076, 3.704e-8
0.075, 3.743e-8
0.074, 3.780e-8
0.073, 3.816e-8
0.072, 3.848e-8
0.071, 3.881e-8
0.070, 3.906e-8
0.069, 3.932e-8
0.068, 3.959e-8
0.067, 3.976e-8
0.066, 3.997e-8
0.065, 4.013e-8
0.064, 4.024e-8
0.063, 4.040e-8
0.062, 4.047e-8
0.061, 4.055e-8
0.060, 4.062e-8
0.059, 4.062e-8
0.058, 4.067e-8
0.057, 4.063e-8
0.056, 4.061e-8
0.055, 4.060e-8
0.054, 4.050e-8
0.053, 4.046e-8
0.052, 4.038e-8
0.051, 4.028e-8
0.050, 4.019e-8
0.049, 4.003e-8
0.048, 3.989e-8
0.047, 3.974e-8
0.046, 3.956e-8
0.045, 3.941e-8
0.044, 3.920e-8
0.043, 3.903e-8
0.042, 3.882e-8
0.041, 3.861e-8
0.040, 3.840e-8
0.039, 3.817e-8
0.038, 3.797e-8
0.037, 3.771e-8
0.036, 3.749e-8
0.035, 3.724e-8
0.034, 3.698e-8
0.033, 3.675e-8
0.032, 3.647e-8
0.031, 3.624e-8
0.030, 3.598e-8
0.029, 3.569e-8
0.028, 3.547e-8
0.027, 3.517e-8
0.026, 3.493e-8
0.025, 3.468e-8
0.024, 3.437e-8
0.023, 3.414e-8
0.022, 3.384e-8
0.021, 3.359e-8
0.020, 3.334e-8
0.019, 3.303e-8
0.018, 3.281e-8
0.017, 3.252e-8
0.016, 3.226e-8
0.015, 3.201e-8
0.014, 3.172e-8
0.013, 3.150e-8
0.012, 3.122e-8
0.011, 3.097e-8
0.010, 3.074e-8
0.009, 3.045e-8
0.008, 3.024e-8
0.007, 2.998e-8
0.006, 2.973e-8
0.005, 2.951e-8
0.004, 2.925e-8
0.003, 2.905e-8
0.002, 2.880e-8
0.001, 2.858e-8
0.000, 2.842e-8
-0.001, 2.815e-8
-0.002, 2.795e-8
-0.003, 2.770e-8
-0.004, 2.749e-8
-0.005, 2.728e-8
-0.006, 2.705e-8
-0.007, 2.688e-8
-0.008, 2.664e-8
-0.009, 2.646e-8
-0.010, 2.627e-8
-0.011, 2.605e-8
-0.012, 2.590e-8
-0.013, 2.568e-8
-0.014, 2.551e-8
-0.015, 2.534e-8
-0.016, 2.512e-8
-0.017, 2.499e-8
-0.018, 2.478e-8
-0.019, 2.463e-8
-0.020, 2.447e-8
-0.021, 2.427e-8
-0.022, 2.414e-8
-0.023, 2.395e-8
-0.024, 2.381e-8
-0.025, 2.367e-8
-0.026, 2.349e-8
-0.027, 2.337e-8
-0.028, 2.321e-8
-0.029, 2.306e-8
-0.030, 2.294e-8
-0.031, 2.277e-8
-0.032, 2.267e-8
-0.033, 2.252e-8
-0.034, 2.239e-8
-0.035, 2.228e-8
-0.036, 2.213e-8
-0.037, 2.203e-8
-0.038, 2.189e-8
-0.039, 2.178e-8
-0.040, 2.168e-8
-0.041, 2.154e-8
-0.042, 2.146e-8
-0.043, 2.132e-8
-0.044, 2.123e-8
-0.045, 2.113e-8
-0.046, 2.100e-8
-0.047, 2.094e-8
-0.048, 2.081e-8
-0.049, 2.072e-8
-0.050, 2.064e-8
-0.051, 2.052e-8
-0.052, 2.047e-8
-0.053, 2.035e-8
-0.054, 2.027e-8
-0.055, 2.020e-8
-0.056, 2.009e-8
-0.057, 2.005e-8
-0.058, 1.994e-8
-0.059, 1.988e-8
-0.060, 1.982e-8
-0.061, 1.970e-8
-0.062, 1.967e-8
-0.063, 1.958e-8
-0.064, 1.952e-8
-0.065, 1.947e-8
-0.066, 1.937e-8
-0.067, 1.934e-8
-0.068, 1.926e-8
-0.069, 1.920e-8
-0.070, 1.916e-8
-0.071, 1.907e-8
-0.072, 1.905e-8
-0.073, 1.898e-8
-0.074, 1.893e-8
-0.075, 1.890e-8
-0.076, 1.882e-8
-0.077, 1.881e-8
-0.078, 1.873e-8
-0.079, 1.870e-8
-0.080, 1.867e-8
-0.081, 1.860e-8
-0.082, 1.859e-8
-0.083, 1.853e-8
-0.084, 1.850e-8
-0.085, 1.848e-8
-0.086, 1.842e-8
-0.087, 1.842e-8
-0.088, 1.836e-8
-0.089, 1.835e-8
-0.090, 1.833e-8
-0.091, 1.827e-8
-0.092, 1.829e-8
-0.093, 1.823e-8
-0.094, 1.822e-8
-0.095, 1.821e-8
-0.096, 1.816e-8
-0.097, 1.818e-8
-0.098, 1.813e-8
-0.099, 1.813e-8
-0.100, 1.813e-8
-0.101, 1.808e-8
-0.102, 1.812e-8
-0.103, 1.808e-8
-0.104, 1.807e-8
-0.105, 1.808e-8
-0.106, 1.804e-8
-0.107, 1.807e-8
-0.108, 1.805e-8
-0.109, 1.804e-8
-0.110, 1.806e-8
-0.111, 1.803e-8
-0.112, 1.807e-8
-0.113, 1.805e-8
-0.114, 1.805e-8
-0.115, 1.808e-8
-0.116, 1.806e-8
-0.117, 1.809e-8
-0.118, 1.808e-8
-0.119, 1.810e-8
-0.120, 1.812e-8
-0.121, 1.811e-8
-0.122, 1.815e-8
-0.123, 1.814e-8
-0.124, 1.817e-8
-0.125, 1.820e-8
-0.126, 1.819e-8
-0.127, 1.825e-8
-0.128, 1.824e-8
-0.129, 1.828e-8
-0.130, 1.831e-8
-0.131, 1.830e-8
-0.132, 1.837e-8
-0.133, 1.837e-8
-0.134, 1.841e-8
-0.135, 1.845e-8
-0.136, 1.845e-8
-0.137, 1.853e-8
-0.138, 1.853e-8
-0.139, 1.857e-8
-0.140, 1.863e-8
-0.141, 1.864e-8
-0.142, 1.872e-8
-0.143, 1.873e-8
-0.144, 1.878e-8
-0.145, 1.884e-8
-0.146, 1.885e-8
-0.147, 1.893e-8
-0.148, 1.896e-8
-0.149, 1.901e-8
-0.150, 1.908e-8
-0.151, 1.910e-8
-0.152, 1.919e-8
-0.153, 1.922e-8
-0.154, 1.928e-8
-0.155, 1.935e-8
-0.156, 1.938e-8
-0.157, 1.947e-8
-0.158, 1.951e-8
-0.159, 1.958e-8
-0.160, 1.965e-8
-0.161, 1.969e-8
-0.162, 1.979e-8
-0.163, 1.984e-8
-0.164, 1.992e-8
-0.165, 1.999e-8
-0.166, 2.004e-8
-0.167, 2.015e-8
-0.168, 2.019e-8
-0.169, 2.028e-8
-0.170, 2.036e-8
-0.171, 2.041e-8
-0.172, 2.054e-8
-0.173, 2.058e-8
-0.174, 2.068e-8
-0.175, 2.078e-8
-0.176, 2.083e-8
-0.177, 2.096e-8
-0.178, 2.102e-8
-0.179, 2.112e-8
-0.180, 2.123e-8
-0.181, 2.128e-8
-0.182, 2.142e-8
-0.183, 2.148e-8
-0.184, 2.159e-8
-0.185, 2.171e-8
-0.186, 2.177e-8
-0.187, 2.191e-8
-0.188, 2.199e-8
-0.189, 2.210e-8
-0.190, 2.222e-8
-0.191, 2.230e-8
-0.192, 2.244e-8
-0.193, 2.254e-8
-0.194, 2.264e-8
-0.195, 2.277e-8
-0.196, 2.286e-8
-0.197, 2.301e-8
-0.198, 2.311e-8
-0.199, 2.323e-8
