Mar. 16, 2023   10:15:53
Cyclic Voltammetry
File: c:/users/oliverrz/desktop/electrolab/data/2023_03_16\fcmeoh_macros_1_mm\electrode7_cv_50mvs_1_mm.bin
Data Source:  Experiment
Instrument Model:  CHI760E
Header: CV
Note: 

Init E (V) = -0.2
High E (V) = 0.3
Low E (V) = -0.2
Final E (V) = -0.2
Init P/N = P
Scan Rate (V/s) = 0.05
Segment = 3
Sample Interval (V) = 0.001
Quiet Time (sec) = 2
Sensitivity (A/V) = 1e-7

Results:

Channel 1:
Segment 1:
Ep = 0.129V
ip = -5.262e-8A
Ah = -6.894e-8C

Segment 2:
Ep = 0.058V
ip = 4.793e-8A
Ah = 6.148e-8C

Segment 3:

Potential/V, Current/A

-0.200, 2.171e-9
-0.199, 1.919e-9
-0.198, 1.859e-9
-0.197, 1.825e-9
-0.196, 1.792e-9
-0.195, 1.767e-9
-0.194, 1.746e-9
-0.193, 1.725e-9
-0.192, 1.702e-9
-0.191, 1.674e-9
-0.190, 1.653e-9
-0.189, 1.636e-9
-0.188, 1.615e-9
-0.187, 1.597e-9
-0.186, 1.573e-9
-0.185, 1.554e-9
-0.184, 1.537e-9
-0.183, 1.520e-9
-0.182, 1.505e-9
-0.181, 1.482e-9
-0.180, 1.463e-9
-0.179, 1.449e-9
-0.178, 1.434e-9
-0.177, 1.418e-9
-0.176, 1.400e-9
-0.175, 1.382e-9
-0.174, 1.370e-9
-0.173, 1.357e-9
-0.172, 1.340e-9
-0.171, 1.324e-9
-0.170, 1.307e-9
-0.169, 1.295e-9
-0.168, 1.285e-9
-0.167, 1.270e-9
-0.166, 1.254e-9
-0.165, 1.240e-9
-0.164, 1.230e-9
-0.163, 1.221e-9
-0.162, 1.207e-9
-0.161, 1.192e-9
-0.160, 1.177e-9
-0.159, 1.168e-9
-0.158, 1.159e-9
-0.157, 1.147e-9
-0.156, 1.130e-9
-0.155, 1.118e-9
-0.154, 1.106e-9
-0.153, 1.098e-9
-0.152, 1.087e-9
-0.151, 1.070e-9
-0.150, 1.058e-9
-0.149, 1.052e-9
-0.148, 1.041e-9
-0.147, 1.033e-9
-0.146, 1.017e-9
-0.145, 1.005e-9
-0.144, 9.993e-10
-0.143, 9.897e-10
-0.142, 9.807e-10
-0.141, 9.676e-10
-0.140, 9.555e-10
-0.139, 9.503e-10
-0.138, 9.418e-10
-0.137, 9.316e-10
-0.136, 9.199e-10
-0.135, 9.069e-10
-0.134, 9.020e-10
-0.133, 8.952e-10
-0.132, 8.851e-10
-0.131, 8.717e-10
-0.130, 8.601e-10
-0.129, 8.539e-10
-0.128, 8.462e-10
-0.127, 8.375e-10
-0.126, 8.254e-10
-0.125, 8.150e-10
-0.124, 8.084e-10
-0.123, 8.037e-10
-0.122, 7.937e-10
-0.121, 7.819e-10
-0.120, 7.729e-10
-0.119, 7.663e-10
-0.118, 7.624e-10
-0.117, 7.544e-10
-0.116, 7.428e-10
-0.115, 7.329e-10
-0.114, 7.272e-10
-0.113, 7.235e-10
-0.112, 7.150e-10
-0.111, 7.018e-10
-0.110, 6.951e-10
-0.109, 6.893e-10
-0.108, 6.825e-10
-0.107, 6.766e-10
-0.106, 6.613e-10
-0.105, 6.537e-10
-0.104, 6.483e-10
-0.103, 6.396e-10
-0.102, 6.310e-10
-0.101, 6.195e-10
-0.100, 6.092e-10
-0.099, 6.069e-10
-0.098, 5.977e-10
-0.097, 5.887e-10
-0.096, 5.774e-10
-0.095, 5.640e-10
-0.094, 5.597e-10
-0.093, 5.533e-10
-0.092, 5.434e-10
-0.091, 5.319e-10
-0.090, 5.195e-10
-0.089, 5.154e-10
-0.088, 5.092e-10
-0.087, 4.989e-10
-0.086, 4.885e-10
-0.085, 4.780e-10
-0.084, 4.712e-10
-0.083, 4.668e-10
-0.082, 4.568e-10
-0.081, 4.439e-10
-0.080, 4.331e-10
-0.079, 4.256e-10
-0.078, 4.203e-10
-0.077, 4.065e-10
-0.076, 3.918e-10
-0.075, 3.805e-10
-0.074, 3.726e-10
-0.073, 3.638e-10
-0.072, 3.542e-10
-0.071, 3.366e-10
-0.070, 3.244e-10
-0.069, 3.157e-10
-0.068, 3.047e-10
-0.067, 2.944e-10
-0.066, 2.767e-10
-0.065, 2.618e-10
-0.064, 2.519e-10
-0.063, 2.399e-10
-0.062, 2.277e-10
-0.061, 2.111e-10
-0.060, 1.939e-10
-0.059, 1.831e-10
-0.058, 1.684e-10
-0.057, 1.515e-10
-0.056, 1.326e-10
-0.055, 1.120e-10
-0.054, 1.001e-10
-0.053, 8.350e-11
-0.052, 6.362e-11
-0.051, 4.275e-11
-0.050, 2.128e-11
-0.049, 3.958e-12
-0.048, -1.229e-11
-0.047, -3.306e-11
-0.046, -5.738e-11
-0.045, -8.120e-11
-0.044, -1.029e-10
-0.043, -1.219e-10
-0.042, -1.476e-10
-0.041, -1.773e-10
-0.040, -2.047e-10
-0.039, -2.316e-10
-0.038, -2.569e-10
-0.037, -2.839e-10
-0.036, -3.198e-10
-0.035, -3.516e-10
-0.034, -3.805e-10
-0.033, -4.131e-10
-0.032, -4.454e-10
-0.031, -4.858e-10
-0.030, -5.241e-10
-0.029, -5.589e-10
-0.028, -5.960e-10
-0.027, -6.353e-10
-0.026, -6.841e-10
-0.025, -7.315e-10
-0.024, -7.734e-10
-0.023, -8.194e-10
-0.022, -8.657e-10
-0.021, -9.198e-10
-0.020, -9.751e-10
-0.019, -1.023e-9
-0.018, -1.081e-9
-0.017, -1.134e-9
-0.016, -1.197e-9
-0.015, -1.263e-9
-0.014, -1.322e-9
-0.013, -1.390e-9
-0.012, -1.459e-9
-0.011, -1.532e-9
-0.010, -1.611e-9
-0.009, -1.683e-9
-0.008, -1.762e-9
-0.007, -1.845e-9
-0.006, -1.934e-9
-0.005, -2.027e-9
-0.004, -2.116e-9
-0.003, -2.206e-9
-0.002, -2.308e-9
-0.001, -2.410e-9
-0.000, -2.543e-9
0.001, -2.650e-9
0.002, -2.752e-9
0.003, -2.869e-9
0.004, -2.993e-9
0.005, -3.121e-9
0.006, -3.253e-9
0.007, -3.385e-9
0.008, -3.519e-9
0.009, -3.670e-9
0.010, -3.818e-9
0.011, -3.973e-9
0.012, -4.133e-9
0.013, -4.302e-9
0.014, -4.480e-9
0.015, -4.660e-9
0.016, -4.840e-9
0.017, -5.030e-9
0.018, -5.227e-9
0.019, -5.433e-9
0.020, -5.650e-9
0.021, -5.861e-9
0.022, -6.088e-9
0.023, -6.318e-9
0.024, -6.565e-9
0.025, -6.820e-9
0.026, -7.074e-9
0.027, -7.344e-9
0.028, -7.620e-9
0.029, -7.903e-9
0.030, -8.199e-9
0.031, -8.490e-9
0.032, -8.795e-9
0.033, -9.125e-9
0.034, -9.448e-9
0.035, -9.787e-9
0.036, -1.013e-8
0.037, -1.049e-8
0.038, -1.086e-8
0.039, -1.125e-8
0.040, -1.163e-8
0.041, -1.203e-8
0.042, -1.243e-8
0.043, -1.285e-8
0.044, -1.329e-8
0.045, -1.372e-8
0.046, -1.418e-8
0.047, -1.464e-8
0.048, -1.512e-8
0.049, -1.562e-8
0.050, -1.611e-8
0.051, -1.663e-8
0.052, -1.715e-8
0.053, -1.768e-8
0.054, -1.823e-8
0.055, -1.878e-8
0.056, -1.933e-8
0.057, -1.991e-8
0.058, -2.048e-8
0.059, -2.108e-8
0.060, -2.169e-8
0.061, -2.229e-8
0.062, -2.292e-8
0.063, -2.355e-8
0.064, -2.420e-8
0.065, -2.486e-8
0.066, -2.549e-8
0.067, -2.617e-8
0.068, -2.683e-8
0.069, -2.749e-8
0.070, -2.818e-8
0.071, -2.885e-8
0.072, -2.954e-8
0.073, -3.024e-8
0.074, -3.092e-8
0.075, -3.164e-8
0.076, -3.233e-8
0.077, -3.302e-8
0.078, -3.374e-8
0.079, -3.443e-8
0.080, -3.512e-8
0.081, -3.580e-8
0.082, -3.647e-8
0.083, -3.717e-8
0.084, -3.785e-8
0.085, -3.851e-8
0.086, -3.920e-8
0.087, -3.985e-8
0.088, -4.049e-8
0.089, -4.114e-8
0.090, -4.176e-8
0.091, -4.239e-8
0.092, -4.299e-8
0.093, -4.357e-8
0.094, -4.417e-8
0.095, -4.472e-8
0.096, -4.527e-8
0.097, -4.582e-8
0.098, -4.633e-8
0.099, -4.686e-8
0.100, -4.735e-8
0.101, -4.781e-8
0.102, -4.830e-8
0.103, -4.875e-8
0.104, -4.917e-8
0.105, -4.958e-8
0.106, -4.993e-8
0.107, -5.032e-8
0.108, -5.065e-8
0.109, -5.096e-8
0.110, -5.130e-8
0.111, -5.158e-8
0.112, -5.185e-8
0.113, -5.211e-8
0.114, -5.233e-8
0.115, -5.256e-8
0.116, -5.277e-8
0.117, -5.294e-8
0.118, -5.312e-8
0.119, -5.326e-8
0.120, -5.339e-8
0.121, -5.351e-8
0.122, -5.360e-8
0.123, -5.369e-8
0.124, -5.376e-8
0.125, -5.381e-8
0.126, -5.385e-8
0.127, -5.387e-8
0.128, -5.389e-8
0.129, -5.390e-8
0.130, -5.389e-8
0.131, -5.386e-8
0.132, -5.382e-8
0.133, -5.377e-8
0.134, -5.372e-8
0.135, -5.364e-8
0.136, -5.357e-8
0.137, -5.349e-8
0.138, -5.338e-8
0.139, -5.329e-8
0.140, -5.319e-8
0.141, -5.307e-8
0.142, -5.294e-8
0.143, -5.280e-8
0.144, -5.267e-8
0.145, -5.254e-8
0.146, -5.238e-8
0.147, -5.224e-8
0.148, -5.208e-8
0.149, -5.192e-8
0.150, -5.177e-8
0.151, -5.159e-8
0.152, -5.142e-8
0.153, -5.125e-8
0.154, -5.108e-8
0.155, -5.091e-8
0.156, -5.074e-8
0.157, -5.055e-8
0.158, -5.038e-8
0.159, -5.019e-8
0.160, -5.001e-8
0.161, -4.982e-8
0.162, -4.964e-8
0.163, -4.946e-8
0.164, -4.927e-8
0.165, -4.909e-8
0.166, -4.890e-8
0.167, -4.871e-8
0.168, -4.853e-8
0.169, -4.835e-8
0.170, -4.817e-8
0.171, -4.799e-8
0.172, -4.781e-8
0.173, -4.762e-8
0.174, -4.745e-8
0.175, -4.727e-8
0.176, -4.709e-8
0.177, -4.692e-8
0.178, -4.674e-8
0.179, -4.658e-8
0.180, -4.641e-8
0.181, -4.624e-8
0.182, -4.606e-8
0.183, -4.590e-8
0.184, -4.573e-8
0.185, -4.558e-8
0.186, -4.541e-8
0.187, -4.525e-8
0.188, -4.509e-8
0.189, -4.494e-8
0.190, -4.480e-8
0.191, -4.464e-8
0.192, -4.449e-8
0.193, -4.435e-8
0.194, -4.420e-8
0.195, -4.406e-8
0.196, -4.392e-8
0.197, -4.377e-8
0.198, -4.363e-8
0.199, -4.350e-8
0.200, -4.336e-8
0.201, -4.323e-8
0.202, -4.310e-8
0.203, -4.297e-8
0.204, -4.285e-8
0.205, -4.273e-8
0.206, -4.260e-8
0.207, -4.247e-8
0.208, -4.235e-8
0.209, -4.223e-8
0.210, -4.211e-8
0.211, -4.199e-8
0.212, -4.188e-8
0.213, -4.177e-8
0.214, -4.166e-8
0.215, -4.155e-8
0.216, -4.144e-8
0.217, -4.133e-8
0.218, -4.123e-8
0.219, -4.113e-8
0.220, -4.103e-8
0.221, -4.092e-8
0.222, -4.082e-8
0.223, -4.072e-8
0.224, -4.063e-8
0.225, -4.054e-8
0.226, -4.044e-8
0.227, -4.035e-8
0.228, -4.026e-8
0.229, -4.017e-8
0.230, -4.009e-8
0.231, -4.000e-8
0.232, -3.991e-8
0.233, -3.982e-8
0.234, -3.974e-8
0.235, -3.966e-8
0.236, -3.958e-8
0.237, -3.950e-8
0.238, -3.943e-8
0.239, -3.935e-8
0.240, -3.928e-8
0.241, -3.920e-8
0.242, -3.912e-8
0.243, -3.904e-8
0.244, -3.898e-8
0.245, -3.891e-8
0.246, -3.884e-8
0.247, -3.877e-8
0.248, -3.870e-8
0.249, -3.863e-8
0.250, -3.857e-8
0.251, -3.850e-8
0.252, -3.843e-8
0.253, -3.836e-8
0.254, -3.831e-8
0.255, -3.825e-8
0.256, -3.818e-8
0.257, -3.812e-8
0.258, -3.806e-8
0.259, -3.801e-8
0.260, -3.796e-8
0.261, -3.789e-8
0.262, -3.784e-8
0.263, -3.778e-8
0.264, -3.772e-8
0.265, -3.767e-8
0.266, -3.762e-8
0.267, -3.756e-8
0.268, -3.752e-8
0.269, -3.747e-8
0.270, -3.742e-8
0.271, -3.736e-8
0.272, -3.731e-8
0.273, -3.726e-8
0.274, -3.722e-8
0.275, -3.718e-8
0.276, -3.713e-8
0.277, -3.708e-8
0.278, -3.704e-8
0.279, -3.700e-8
0.280, -3.695e-8
0.281, -3.691e-8
0.282, -3.686e-8
0.283, -3.682e-8
0.284, -3.678e-8
0.285, -3.674e-8
0.286, -3.669e-8
0.287, -3.665e-8
0.288, -3.661e-8
0.289, -3.658e-8
0.290, -3.654e-8
0.291, -3.650e-8
0.292, -3.646e-8
0.293, -3.642e-8
0.294, -3.639e-8
0.295, -3.635e-8
0.296, -3.631e-8
0.297, -3.627e-8
0.298, -3.624e-8
0.299, -3.621e-8
0.300, -3.599e-8
0.299, -3.544e-8
0.298, -3.526e-8
0.297, -3.516e-8
0.296, -3.507e-8
0.295, -3.499e-8
0.294, -3.491e-8
0.293, -3.483e-8
0.292, -3.475e-8
0.291, -3.469e-8
0.290, -3.462e-8
0.289, -3.455e-8
0.288, -3.449e-8
0.287, -3.442e-8
0.286, -3.436e-8
0.285, -3.430e-8
0.284, -3.424e-8
0.283, -3.418e-8
0.282, -3.412e-8
0.281, -3.407e-8
0.280, -3.401e-8
0.279, -3.395e-8
0.278, -3.390e-8
0.277, -3.385e-8
0.276, -3.380e-8
0.275, -3.375e-8
0.274, -3.370e-8
0.273, -3.365e-8
0.272, -3.361e-8
0.271, -3.356e-8
0.270, -3.351e-8
0.269, -3.346e-8
0.268, -3.341e-8
0.267, -3.337e-8
0.266, -3.333e-8
0.265, -3.328e-8
0.264, -3.324e-8
0.263, -3.318e-8
0.262, -3.314e-8
0.261, -3.310e-8
0.260, -3.306e-8
0.259, -3.302e-8
0.258, -3.297e-8
0.257, -3.292e-8
0.256, -3.287e-8
0.255, -3.283e-8
0.254, -3.279e-8
0.253, -3.274e-8
0.252, -3.270e-8
0.251, -3.266e-8
0.250, -3.261e-8
0.249, -3.256e-8
0.248, -3.252e-8
0.247, -3.247e-8
0.246, -3.244e-8
0.245, -3.239e-8
0.244, -3.235e-8
0.243, -3.230e-8
0.242, -3.225e-8
0.241, -3.221e-8
0.240, -3.217e-8
0.239, -3.212e-8
0.238, -3.207e-8
0.237, -3.202e-8
0.236, -3.198e-8
0.235, -3.194e-8
0.234, -3.189e-8
0.233, -3.184e-8
0.232, -3.179e-8
0.231, -3.174e-8
0.230, -3.169e-8
0.229, -3.164e-8
0.228, -3.159e-8
0.227, -3.154e-8
0.226, -3.149e-8
0.225, -3.145e-8
0.224, -3.139e-8
0.223, -3.133e-8
0.222, -3.128e-8
0.221, -3.123e-8
0.220, -3.117e-8
0.219, -3.111e-8
0.218, -3.105e-8
0.217, -3.099e-8
0.216, -3.093e-8
0.215, -3.087e-8
0.214, -3.081e-8
0.213, -3.074e-8
0.212, -3.067e-8
0.211, -3.061e-8
0.210, -3.054e-8
0.209, -3.047e-8
0.208, -3.040e-8
0.207, -3.032e-8
0.206, -3.025e-8
0.205, -3.017e-8
0.204, -3.009e-8
0.203, -3.001e-8
0.202, -2.993e-8
0.201, -2.984e-8
0.200, -2.976e-8
0.199, -2.967e-8
0.198, -2.958e-8
0.197, -2.949e-8
0.196, -2.939e-8
0.195, -2.929e-8
0.194, -2.919e-8
0.193, -2.908e-8
0.192, -2.897e-8
0.191, -2.887e-8
0.190, -2.876e-8
0.189, -2.864e-8
0.188, -2.852e-8
0.187, -2.840e-8
0.186, -2.827e-8
0.185, -2.815e-8
0.184, -2.800e-8
0.183, -2.786e-8
0.182, -2.772e-8
0.181, -2.756e-8
0.180, -2.741e-8
0.179, -2.726e-8
0.178, -2.709e-8
0.177, -2.693e-8
0.176, -2.675e-8
0.175, -2.658e-8
0.174, -2.640e-8
0.173, -2.621e-8
0.172, -2.602e-8
0.171, -2.582e-8
0.170, -2.562e-8
0.169, -2.541e-8
0.168, -2.518e-8
0.167, -2.495e-8
0.166, -2.472e-8
0.165, -2.448e-8
0.164, -2.424e-8
0.163, -2.399e-8
0.162, -2.372e-8
0.161, -2.346e-8
0.160, -2.318e-8
0.159, -2.289e-8
0.158, -2.259e-8
0.157, -2.228e-8
0.156, -2.198e-8
0.155, -2.166e-8
0.154, -2.132e-8
0.153, -2.098e-8
0.152, -2.063e-8
0.151, -2.027e-8
0.150, -1.991e-8
0.149, -1.953e-8
0.148, -1.914e-8
0.147, -1.875e-8
0.146, -1.834e-8
0.145, -1.793e-8
0.144, -1.749e-8
0.143, -1.704e-8
0.142, -1.660e-8
0.141, -1.613e-8
0.140, -1.566e-8
0.139, -1.518e-8
0.138, -1.467e-8
0.137, -1.418e-8
0.136, -1.365e-8
0.135, -1.313e-8
0.134, -1.259e-8
0.133, -1.203e-8
0.132, -1.147e-8
0.131, -1.091e-8
0.130, -1.033e-8
0.129, -9.739e-9
0.128, -9.119e-9
0.127, -8.504e-9
0.126, -7.905e-9
0.125, -7.265e-9
0.124, -6.636e-9
0.123, -5.984e-9
0.122, -5.323e-9
0.121, -4.691e-9
0.120, -4.019e-9
0.119, -3.357e-9
0.118, -2.690e-9
0.117, -2.003e-9
0.116, -1.316e-9
0.115, -6.246e-10
0.114, 8.941e-11
0.113, 7.742e-10
0.112, 1.473e-9
0.111, 2.176e-9
0.110, 2.858e-9
0.109, 3.580e-9
0.108, 4.263e-9
0.107, 4.951e-9
0.106, 5.659e-9
0.105, 6.322e-9
0.104, 7.032e-9
0.103, 7.707e-9
0.102, 8.402e-9
0.101, 9.071e-9
0.100, 9.704e-9
0.099, 1.036e-8
0.098, 1.101e-8
0.097, 1.163e-8
0.096, 1.225e-8
0.095, 1.285e-8
0.094, 1.343e-8
0.093, 1.403e-8
0.092, 1.458e-8
0.091, 1.514e-8
0.090, 1.569e-8
0.089, 1.621e-8
0.088, 1.673e-8
0.087, 1.723e-8
0.086, 1.768e-8
0.085, 1.815e-8
0.084, 1.858e-8
0.083, 1.901e-8
0.082, 1.943e-8
0.081, 1.979e-8
0.080, 2.017e-8
0.079, 2.053e-8
0.078, 2.085e-8
0.077, 2.119e-8
0.076, 2.148e-8
0.075, 2.176e-8
0.074, 2.202e-8
0.073, 2.225e-8
0.072, 2.248e-8
0.071, 2.268e-8
0.070, 2.286e-8
0.069, 2.304e-8
0.068, 2.320e-8
0.067, 2.334e-8
0.066, 2.347e-8
0.065, 2.357e-8
0.064, 2.367e-8
0.063, 2.376e-8
0.062, 2.380e-8
0.061, 2.386e-8
0.060, 2.388e-8
0.059, 2.392e-8
0.058, 2.393e-8
0.057, 2.391e-8
0.056, 2.391e-8
0.055, 2.388e-8
0.054, 2.384e-8
0.053, 2.381e-8
0.052, 2.375e-8
0.051, 2.369e-8
0.050, 2.362e-8
0.049, 2.352e-8
0.048, 2.344e-8
0.047, 2.334e-8
0.046, 2.323e-8
0.045, 2.313e-8
0.044, 2.301e-8
0.043, 2.288e-8
0.042, 2.276e-8
0.041, 2.262e-8
0.040, 2.248e-8
0.039, 2.235e-8
0.038, 2.220e-8
0.037, 2.205e-8
0.036, 2.189e-8
0.035, 2.173e-8
0.034, 2.158e-8
0.033, 2.142e-8
0.032, 2.125e-8
0.031, 2.109e-8
0.030, 2.091e-8
0.029, 2.075e-8
0.028, 2.059e-8
0.027, 2.042e-8
0.026, 2.024e-8
0.025, 2.008e-8
0.024, 1.991e-8
0.023, 1.973e-8
0.022, 1.956e-8
0.021, 1.939e-8
0.020, 1.921e-8
0.019, 1.904e-8
0.018, 1.888e-8
0.017, 1.870e-8
0.016, 1.853e-8
0.015, 1.837e-8
0.014, 1.820e-8
0.013, 1.804e-8
0.012, 1.787e-8
0.011, 1.771e-8
0.010, 1.754e-8
0.009, 1.738e-8
0.008, 1.722e-8
0.007, 1.707e-8
0.006, 1.690e-8
0.005, 1.675e-8
0.004, 1.660e-8
0.003, 1.644e-8
0.002, 1.629e-8
0.001, 1.613e-8
0.000, 1.600e-8
-0.001, 1.586e-8
-0.002, 1.570e-8
-0.003, 1.556e-8
-0.004, 1.542e-8
-0.005, 1.527e-8
-0.006, 1.513e-8
-0.007, 1.500e-8
-0.008, 1.487e-8
-0.009, 1.473e-8
-0.010, 1.460e-8
-0.011, 1.447e-8
-0.012, 1.435e-8
-0.013, 1.422e-8
-0.014, 1.410e-8
-0.015, 1.397e-8
-0.016, 1.385e-8
-0.017, 1.373e-8
-0.018, 1.361e-8
-0.019, 1.350e-8
-0.020, 1.338e-8
-0.021, 1.327e-8
-0.022, 1.316e-8
-0.023, 1.305e-8
-0.024, 1.294e-8
-0.025, 1.283e-8
-0.026, 1.273e-8
-0.027, 1.263e-8
-0.028, 1.253e-8
-0.029, 1.242e-8
-0.030, 1.232e-8
-0.031, 1.223e-8
-0.032, 1.214e-8
-0.033, 1.205e-8
-0.034, 1.195e-8
-0.035, 1.186e-8
-0.036, 1.177e-8
-0.037, 1.168e-8
-0.038, 1.160e-8
-0.039, 1.151e-8
-0.040, 1.142e-8
-0.041, 1.134e-8
-0.042, 1.125e-8
-0.043, 1.117e-8
-0.044, 1.109e-8
-0.045, 1.101e-8
-0.046, 1.093e-8
-0.047, 1.086e-8
-0.048, 1.078e-8
-0.049, 1.071e-8
-0.050, 1.063e-8
-0.051, 1.056e-8
-0.052, 1.049e-8
-0.053, 1.042e-8
-0.054, 1.035e-8
-0.055, 1.028e-8
-0.056, 1.021e-8
-0.057, 1.015e-8
-0.058, 1.008e-8
-0.059, 1.002e-8
-0.060, 9.950e-9
-0.061, 9.889e-9
-0.062, 9.831e-9
-0.063, 9.769e-9
-0.064, 9.706e-9
-0.065, 9.644e-9
-0.066, 9.588e-9
-0.067, 9.537e-9
-0.068, 9.481e-9
-0.069, 9.420e-9
-0.070, 9.363e-9
-0.071, 9.308e-9
-0.072, 9.259e-9
-0.073, 9.206e-9
-0.074, 9.148e-9
-0.075, 9.095e-9
-0.076, 9.047e-9
-0.077, 9.002e-9
-0.078, 8.954e-9
-0.079, 8.900e-9
-0.080, 8.849e-9
-0.081, 8.805e-9
-0.082, 8.758e-9
-0.083, 8.716e-9
-0.084, 8.667e-9
-0.085, 8.616e-9
-0.086, 8.576e-9
-0.087, 8.532e-9
-0.088, 8.488e-9
-0.089, 8.441e-9
-0.090, 8.395e-9
-0.091, 8.355e-9
-0.092, 8.317e-9
-0.093, 8.277e-9
-0.094, 8.240e-9
-0.095, 8.198e-9
-0.096, 8.161e-9
-0.097, 8.126e-9
-0.098, 8.089e-9
-0.099, 8.050e-9
-0.100, 8.009e-9
-0.101, 7.976e-9
-0.102, 7.945e-9
-0.103, 7.910e-9
-0.104, 7.872e-9
-0.105, 7.835e-9
-0.106, 7.801e-9
-0.107, 7.773e-9
-0.108, 7.741e-9
-0.109, 7.705e-9
-0.110, 7.671e-9
-0.111, 7.641e-9
-0.112, 7.614e-9
-0.113, 7.585e-9
-0.114, 7.551e-9
-0.115, 7.519e-9
-0.116, 7.490e-9
-0.117, 7.464e-9
-0.118, 7.436e-9
-0.119, 7.404e-9
-0.120, 7.376e-9
-0.121, 7.351e-9
-0.122, 7.324e-9
-0.123, 7.300e-9
-0.124, 7.271e-9
-0.125, 7.241e-9
-0.126, 7.219e-9
-0.127, 7.197e-9
-0.128, 7.175e-9
-0.129, 7.148e-9
-0.130, 7.120e-9
-0.131, 7.099e-9
-0.132, 7.079e-9
-0.133, 7.055e-9
-0.134, 7.031e-9
-0.135, 7.004e-9
-0.136, 6.983e-9
-0.137, 6.966e-9
-0.138, 6.943e-9
-0.139, 6.921e-9
-0.140, 6.898e-9
-0.141, 6.879e-9
-0.142, 6.863e-9
-0.143, 6.843e-9
-0.144, 6.821e-9
-0.145, 6.800e-9
-0.146, 6.782e-9
-0.147, 6.766e-9
-0.148, 6.749e-9
-0.149, 6.727e-9
-0.150, 6.708e-9
-0.151, 6.691e-9
-0.152, 6.679e-9
-0.153, 6.663e-9
-0.154, 6.644e-9
-0.155, 6.627e-9
-0.156, 6.612e-9
-0.157, 6.599e-9
-0.158, 6.585e-9
-0.159, 6.566e-9
-0.160, 6.546e-9
-0.161, 6.536e-9
-0.162, 6.523e-9
-0.163, 6.511e-9
-0.164, 6.495e-9
-0.165, 6.479e-9
-0.166, 6.470e-9
-0.167, 6.459e-9
-0.168, 6.449e-9
-0.169, 6.435e-9
-0.170, 6.418e-9
-0.171, 6.410e-9
-0.172, 6.401e-9
-0.173, 6.390e-9
-0.174, 6.378e-9
-0.175, 6.363e-9
-0.176, 6.357e-9
-0.177, 6.350e-9
-0.178, 6.339e-9
-0.179, 6.327e-9
-0.180, 6.316e-9
-0.181, 6.308e-9
-0.182, 6.302e-9
-0.183, 6.293e-9
-0.184, 6.282e-9
-0.185, 6.274e-9
-0.186, 6.266e-9
-0.187, 6.263e-9
-0.188, 6.257e-9
-0.189, 6.245e-9
-0.190, 6.239e-9
-0.191, 6.234e-9
-0.192, 6.232e-9
-0.193, 6.227e-9
-0.194, 6.218e-9
-0.195, 6.210e-9
-0.196, 6.208e-9
-0.197, 6.205e-9
-0.198, 6.202e-9
-0.199, 6.195e-9
