Mar. 16, 2023   10:12:10
Cyclic Voltammetry
File: c:/users/oliverrz/desktop/electrolab/data/2023_03_16\fcmeoh_macros_1_mm\electrode4_cv_100mvs_1_mm.bin
Data Source:  Experiment
Instrument Model:  CHI760E
Header: CV
Note: 

Init E (V) = -0.2
High E (V) = 0.3
Low E (V) = -0.2
Final E (V) = -0.2
Init P/N = P
Scan Rate (V/s) = 0.1
Segment = 3
Sample Interval (V) = 0.001
Quiet Time (sec) = 2
Sensitivity (A/V) = 1e-7

Results:

Channel 1:
Segment 1:
Ep = 0.122V
ip = -6.660e-8A
Ah = -4.099e-8C

Segment 2:
Ep = 0.057V
ip = 6.388e-8A
Ah = 4.010e-8C

Segment 3:

Potential/V, Current/A

-0.200, 1.296e-8
-0.199, 1.205e-8
-0.198, 1.167e-8
-0.197, 1.148e-8
-0.196, 1.126e-8
-0.195, 1.112e-8
-0.194, 1.095e-8
-0.193, 1.077e-8
-0.192, 1.066e-8
-0.191, 1.049e-8
-0.190, 1.036e-8
-0.189, 1.023e-8
-0.188, 1.006e-8
-0.187, 9.969e-9
-0.186, 9.809e-9
-0.185, 9.683e-9
-0.184, 9.572e-9
-0.183, 9.417e-9
-0.182, 9.332e-9
-0.181, 9.186e-9
-0.180, 9.067e-9
-0.179, 8.958e-9
-0.178, 8.815e-9
-0.177, 8.732e-9
-0.176, 8.596e-9
-0.175, 8.484e-9
-0.174, 8.381e-9
-0.173, 8.254e-9
-0.172, 8.170e-9
-0.171, 8.043e-9
-0.170, 7.948e-9
-0.169, 7.847e-9
-0.168, 7.724e-9
-0.167, 7.650e-9
-0.166, 7.521e-9
-0.165, 7.437e-9
-0.164, 7.341e-9
-0.163, 7.230e-9
-0.162, 7.164e-9
-0.161, 7.036e-9
-0.160, 6.961e-9
-0.159, 6.873e-9
-0.158, 6.757e-9
-0.157, 6.703e-9
-0.156, 6.580e-9
-0.155, 6.509e-9
-0.154, 6.429e-9
-0.153, 6.314e-9
-0.152, 6.265e-9
-0.151, 6.153e-9
-0.150, 6.081e-9
-0.149, 6.007e-9
-0.148, 5.898e-9
-0.147, 5.857e-9
-0.146, 5.748e-9
-0.145, 5.676e-9
-0.144, 5.617e-9
-0.143, 5.506e-9
-0.142, 5.466e-9
-0.141, 5.366e-9
-0.140, 5.293e-9
-0.139, 5.235e-9
-0.138, 5.139e-9
-0.137, 5.092e-9
-0.136, 4.999e-9
-0.135, 4.940e-9
-0.134, 4.881e-9
-0.133, 4.789e-9
-0.132, 4.744e-9
-0.131, 4.658e-9
-0.130, 4.599e-9
-0.129, 4.537e-9
-0.128, 4.449e-9
-0.127, 4.415e-9
-0.126, 4.333e-9
-0.125, 4.281e-9
-0.124, 4.223e-9
-0.123, 4.140e-9
-0.122, 4.113e-9
-0.121, 4.022e-9
-0.120, 3.979e-9
-0.119, 3.922e-9
-0.118, 3.839e-9
-0.117, 3.817e-9
-0.116, 3.724e-9
-0.115, 3.682e-9
-0.114, 3.638e-9
-0.113, 3.552e-9
-0.112, 3.538e-9
-0.111, 3.450e-9
-0.110, 3.409e-9
-0.109, 3.365e-9
-0.108, 3.280e-9
-0.107, 3.266e-9
-0.106, 3.186e-9
-0.105, 3.142e-9
-0.104, 3.102e-9
-0.103, 3.019e-9
-0.102, 3.001e-9
-0.101, 2.929e-9
-0.100, 2.883e-9
-0.099, 2.849e-9
-0.098, 2.771e-9
-0.097, 2.751e-9
-0.096, 2.687e-9
-0.095, 2.643e-9
-0.094, 2.608e-9
-0.093, 2.535e-9
-0.092, 2.516e-9
-0.091, 2.449e-9
-0.090, 2.407e-9
-0.089, 2.368e-9
-0.088, 2.301e-9
-0.087, 2.288e-9
-0.086, 2.217e-9
-0.085, 2.186e-9
-0.084, 2.144e-9
-0.083, 2.075e-9
-0.082, 2.060e-9
-0.081, 1.987e-9
-0.080, 1.963e-9
-0.079, 1.919e-9
-0.078, 1.846e-9
-0.077, 1.835e-9
-0.076, 1.761e-9
-0.075, 1.735e-9
-0.074, 1.701e-9
-0.073, 1.622e-9
-0.072, 1.617e-9
-0.071, 1.538e-9
-0.070, 1.508e-9
-0.069, 1.472e-9
-0.068, 1.399e-9
-0.067, 1.392e-9
-0.066, 1.316e-9
-0.065, 1.280e-9
-0.064, 1.246e-9
-0.063, 1.172e-9
-0.062, 1.161e-9
-0.061, 1.089e-9
-0.060, 1.047e-9
-0.059, 1.017e-9
-0.058, 9.416e-10
-0.057, 9.220e-10
-0.056, 8.505e-10
-0.055, 8.070e-10
-0.054, 7.690e-10
-0.053, 6.942e-10
-0.052, 6.716e-10
-0.051, 5.919e-10
-0.050, 5.478e-10
-0.049, 5.018e-10
-0.048, 4.304e-10
-0.047, 4.049e-10
-0.046, 3.214e-10
-0.045, 2.805e-10
-0.044, 2.265e-10
-0.043, 1.472e-10
-0.042, 1.227e-10
-0.041, 3.133e-11
-0.040, -1.278e-11
-0.039, -6.899e-11
-0.038, -1.624e-10
-0.037, -1.851e-10
-0.036, -2.874e-10
-0.035, -3.362e-10
-0.034, -4.005e-10
-0.033, -4.961e-10
-0.032, -5.301e-10
-0.031, -6.348e-10
-0.030, -6.989e-10
-0.029, -7.654e-10
-0.028, -8.794e-10
-0.027, -9.164e-10
-0.026, -1.032e-9
-0.025, -1.114e-9
-0.024, -1.181e-9
-0.023, -1.302e-9
-0.022, -1.360e-9
-0.021, -1.478e-9
-0.020, -1.574e-9
-0.019, -1.657e-9
-0.018, -1.792e-9
-0.017, -1.866e-9
-0.016, -1.995e-9
-0.015, -2.105e-9
-0.014, -2.209e-9
-0.013, -2.356e-9
-0.012, -2.449e-9
-0.011, -2.594e-9
-0.010, -2.718e-9
-0.009, -2.845e-9
-0.008, -3.002e-9
-0.007, -3.128e-9
-0.006, -3.299e-9
-0.005, -3.437e-9
-0.004, -3.577e-9
-0.003, -3.762e-9
-0.002, -3.905e-9
-0.001, -4.101e-9
-0.000, -4.332e-9
0.001, -4.490e-9
0.002, -4.687e-9
0.003, -4.846e-9
0.004, -5.078e-9
0.005, -5.269e-9
0.006, -5.481e-9
0.007, -5.731e-9
0.008, -5.922e-9
0.009, -6.186e-9
0.010, -6.423e-9
0.011, -6.666e-9
0.012, -6.959e-9
0.013, -7.197e-9
0.014, -7.508e-9
0.015, -7.790e-9
0.016, -8.065e-9
0.017, -8.414e-9
0.018, -8.694e-9
0.019, -9.034e-9
0.020, -9.370e-9
0.021, -9.698e-9
0.022, -1.009e-8
0.023, -1.043e-8
0.024, -1.082e-8
0.025, -1.122e-8
0.026, -1.162e-8
0.027, -1.205e-8
0.028, -1.246e-8
0.029, -1.290e-8
0.030, -1.336e-8
0.031, -1.381e-8
0.032, -1.431e-8
0.033, -1.478e-8
0.034, -1.531e-8
0.035, -1.583e-8
0.036, -1.636e-8
0.037, -1.692e-8
0.038, -1.747e-8
0.039, -1.807e-8
0.040, -1.865e-8
0.041, -1.925e-8
0.042, -1.989e-8
0.043, -2.049e-8
0.044, -2.117e-8
0.045, -2.182e-8
0.046, -2.251e-8
0.047, -2.323e-8
0.048, -2.391e-8
0.049, -2.467e-8
0.050, -2.540e-8
0.051, -2.616e-8
0.052, -2.697e-8
0.053, -2.771e-8
0.054, -2.853e-8
0.055, -2.934e-8
0.056, -3.014e-8
0.057, -3.103e-8
0.058, -3.184e-8
0.059, -3.273e-8
0.060, -3.361e-8
0.061, -3.448e-8
0.062, -3.539e-8
0.063, -3.629e-8
0.064, -3.721e-8
0.065, -3.815e-8
0.066, -3.905e-8
0.067, -4.002e-8
0.068, -4.095e-8
0.069, -4.188e-8
0.070, -4.285e-8
0.071, -4.380e-8
0.072, -4.475e-8
0.073, -4.572e-8
0.074, -4.667e-8
0.075, -4.763e-8
0.076, -4.859e-8
0.077, -4.956e-8
0.078, -5.049e-8
0.079, -5.143e-8
0.080, -5.235e-8
0.081, -5.328e-8
0.082, -5.420e-8
0.083, -5.509e-8
0.084, -5.600e-8
0.085, -5.684e-8
0.086, -5.771e-8
0.087, -5.858e-8
0.088, -5.938e-8
0.089, -6.024e-8
0.090, -6.103e-8
0.091, -6.180e-8
0.092, -6.259e-8
0.093, -6.328e-8
0.094, -6.402e-8
0.095, -6.472e-8
0.096, -6.534e-8
0.097, -6.605e-8
0.098, -6.663e-8
0.099, -6.722e-8
0.100, -6.781e-8
0.101, -6.832e-8
0.102, -6.890e-8
0.103, -6.939e-8
0.104, -6.985e-8
0.105, -7.031e-8
0.106, -7.068e-8
0.107, -7.107e-8
0.108, -7.143e-8
0.109, -7.174e-8
0.110, -7.208e-8
0.111, -7.234e-8
0.112, -7.259e-8
0.113, -7.283e-8
0.114, -7.303e-8
0.115, -7.322e-8
0.116, -7.338e-8
0.117, -7.350e-8
0.118, -7.359e-8
0.119, -7.368e-8
0.120, -7.374e-8
0.121, -7.378e-8
0.122, -7.381e-8
0.123, -7.380e-8
0.124, -7.380e-8
0.125, -7.373e-8
0.126, -7.368e-8
0.127, -7.364e-8
0.128, -7.351e-8
0.129, -7.344e-8
0.130, -7.331e-8
0.131, -7.316e-8
0.132, -7.304e-8
0.133, -7.284e-8
0.134, -7.268e-8
0.135, -7.250e-8
0.136, -7.228e-8
0.137, -7.211e-8
0.138, -7.186e-8
0.139, -7.165e-8
0.140, -7.141e-8
0.141, -7.116e-8
0.142, -7.095e-8
0.143, -7.066e-8
0.144, -7.040e-8
0.145, -7.014e-8
0.146, -6.986e-8
0.147, -6.960e-8
0.148, -6.929e-8
0.149, -6.902e-8
0.150, -6.873e-8
0.151, -6.844e-8
0.152, -6.816e-8
0.153, -6.785e-8
0.154, -6.758e-8
0.155, -6.727e-8
0.156, -6.697e-8
0.157, -6.668e-8
0.158, -6.636e-8
0.159, -6.609e-8
0.160, -6.577e-8
0.161, -6.547e-8
0.162, -6.519e-8
0.163, -6.486e-8
0.164, -6.459e-8
0.165, -6.427e-8
0.166, -6.398e-8
0.167, -6.372e-8
0.168, -6.339e-8
0.169, -6.313e-8
0.170, -6.284e-8
0.171, -6.254e-8
0.172, -6.228e-8
0.173, -6.196e-8
0.174, -6.171e-8
0.175, -6.143e-8
0.176, -6.114e-8
0.177, -6.091e-8
0.178, -6.060e-8
0.179, -6.037e-8
0.180, -6.010e-8
0.181, -5.983e-8
0.182, -5.960e-8
0.183, -5.932e-8
0.184, -5.909e-8
0.185, -5.884e-8
0.186, -5.858e-8
0.187, -5.837e-8
0.188, -5.811e-8
0.189, -5.789e-8
0.190, -5.765e-8
0.191, -5.742e-8
0.192, -5.722e-8
0.193, -5.696e-8
0.194, -5.676e-8
0.195, -5.654e-8
0.196, -5.632e-8
0.197, -5.613e-8
0.198, -5.589e-8
0.199, -5.571e-8
0.200, -5.549e-8
0.201, -5.528e-8
0.202, -5.511e-8
0.203, -5.488e-8
0.204, -5.472e-8
0.205, -5.452e-8
0.206, -5.432e-8
0.207, -5.417e-8
0.208, -5.395e-8
0.209, -5.380e-8
0.210, -5.362e-8
0.211, -5.343e-8
0.212, -5.330e-8
0.213, -5.310e-8
0.214, -5.296e-8
0.215, -5.279e-8
0.216, -5.262e-8
0.217, -5.249e-8
0.218, -5.230e-8
0.219, -5.217e-8
0.220, -5.201e-8
0.221, -5.185e-8
0.222, -5.174e-8
0.223, -5.156e-8
0.224, -5.144e-8
0.225, -5.129e-8
0.226, -5.115e-8
0.227, -5.103e-8
0.228, -5.087e-8
0.229, -5.076e-8
0.230, -5.063e-8
0.231, -5.050e-8
0.232, -5.039e-8
0.233, -5.023e-8
0.234, -5.014e-8
0.235, -5.000e-8
0.236, -4.988e-8
0.237, -4.978e-8
0.238, -4.964e-8
0.239, -4.955e-8
0.240, -4.942e-8
0.241, -4.931e-8
0.242, -4.922e-8
0.243, -4.908e-8
0.244, -4.901e-8
0.245, -4.888e-8
0.246, -4.877e-8
0.247, -4.870e-8
0.248, -4.856e-8
0.249, -4.850e-8
0.250, -4.839e-8
0.251, -4.828e-8
0.252, -4.822e-8
0.253, -4.808e-8
0.254, -4.803e-8
0.255, -4.793e-8
0.256, -4.783e-8
0.257, -4.777e-8
0.258, -4.765e-8
0.259, -4.759e-8
0.260, -4.750e-8
0.261, -4.740e-8
0.262, -4.734e-8
0.263, -4.724e-8
0.264, -4.717e-8
0.265, -4.709e-8
0.266, -4.700e-8
0.267, -4.695e-8
0.268, -4.685e-8
0.269, -4.680e-8
0.270, -4.672e-8
0.271, -4.664e-8
0.272, -4.659e-8
0.273, -4.649e-8
0.274, -4.645e-8
0.275, -4.637e-8
0.276, -4.630e-8
0.277, -4.626e-8
0.278, -4.616e-8
0.279, -4.613e-8
0.280, -4.605e-8
0.281, -4.598e-8
0.282, -4.595e-8
0.283, -4.586e-8
0.284, -4.583e-8
0.285, -4.576e-8
0.286, -4.570e-8
0.287, -4.568e-8
0.288, -4.558e-8
0.289, -4.556e-8
0.290, -4.549e-8
0.291, -4.543e-8
0.292, -4.541e-8
0.293, -4.532e-8
0.294, -4.531e-8
0.295, -4.525e-8
0.296, -4.519e-8
0.297, -4.518e-8
0.298, -4.510e-8
0.299, -4.508e-8
0.300, -4.412e-8
0.299, -4.250e-8
0.298, -4.200e-8
0.297, -4.169e-8
0.296, -4.150e-8
0.295, -4.130e-8
0.294, -4.113e-8
0.293, -4.099e-8
0.292, -4.081e-8
0.291, -4.071e-8
0.290, -4.056e-8
0.289, -4.043e-8
0.288, -4.033e-8
0.287, -4.017e-8
0.286, -4.009e-8
0.285, -3.996e-8
0.284, -3.985e-8
0.283, -3.977e-8
0.282, -3.963e-8
0.281, -3.956e-8
0.280, -3.945e-8
0.279, -3.934e-8
0.278, -3.928e-8
0.277, -3.915e-8
0.276, -3.908e-8
0.275, -3.898e-8
0.274, -3.888e-8
0.273, -3.882e-8
0.272, -3.870e-8
0.271, -3.863e-8
0.270, -3.855e-8
0.269, -3.845e-8
0.268, -3.839e-8
0.267, -3.829e-8
0.266, -3.824e-8
0.265, -3.814e-8
0.264, -3.806e-8
0.263, -3.800e-8
0.262, -3.789e-8
0.261, -3.784e-8
0.260, -3.774e-8
0.259, -3.767e-8
0.258, -3.761e-8
0.257, -3.751e-8
0.256, -3.746e-8
0.255, -3.737e-8
0.254, -3.730e-8
0.253, -3.725e-8
0.252, -3.714e-8
0.251, -3.710e-8
0.250, -3.702e-8
0.249, -3.694e-8
0.248, -3.689e-8
0.247, -3.679e-8
0.246, -3.675e-8
0.245, -3.666e-8
0.244, -3.659e-8
0.243, -3.654e-8
0.242, -3.644e-8
0.241, -3.640e-8
0.240, -3.632e-8
0.239, -3.623e-8
0.238, -3.620e-8
0.237, -3.608e-8
0.236, -3.604e-8
0.235, -3.596e-8
0.234, -3.588e-8
0.233, -3.583e-8
0.232, -3.572e-8
0.231, -3.567e-8
0.230, -3.558e-8
0.229, -3.551e-8
0.228, -3.545e-8
0.227, -3.535e-8
0.226, -3.530e-8
0.225, -3.521e-8
0.224, -3.513e-8
0.223, -3.506e-8
0.222, -3.496e-8
0.221, -3.491e-8
0.220, -3.481e-8
0.219, -3.472e-8
0.218, -3.466e-8
0.217, -3.453e-8
0.216, -3.448e-8
0.215, -3.437e-8
0.214, -3.428e-8
0.213, -3.421e-8
0.212, -3.408e-8
0.211, -3.402e-8
0.210, -3.390e-8
0.209, -3.380e-8
0.208, -3.373e-8
0.207, -3.360e-8
0.206, -3.352e-8
0.205, -3.339e-8
0.204, -3.327e-8
0.203, -3.320e-8
0.202, -3.305e-8
0.201, -3.297e-8
0.200, -3.284e-8
0.199, -3.271e-8
0.198, -3.261e-8
0.197, -3.246e-8
0.196, -3.235e-8
0.195, -3.221e-8
0.194, -3.207e-8
0.193, -3.196e-8
0.192, -3.178e-8
0.191, -3.165e-8
0.190, -3.149e-8
0.189, -3.133e-8
0.188, -3.119e-8
0.187, -3.100e-8
0.186, -3.085e-8
0.185, -3.067e-8
0.184, -3.048e-8
0.183, -3.032e-8
0.182, -3.011e-8
0.181, -2.994e-8
0.180, -2.973e-8
0.179, -2.952e-8
0.178, -2.933e-8
0.177, -2.908e-8
0.176, -2.889e-8
0.175, -2.865e-8
0.174, -2.841e-8
0.173, -2.820e-8
0.172, -2.791e-8
0.171, -2.768e-8
0.170, -2.740e-8
0.169, -2.712e-8
0.168, -2.687e-8
0.167, -2.654e-8
0.166, -2.627e-8
0.165, -2.595e-8
0.164, -2.563e-8
0.163, -2.533e-8
0.162, -2.496e-8
0.161, -2.463e-8
0.160, -2.428e-8
0.159, -2.389e-8
0.158, -2.354e-8
0.157, -2.312e-8
0.156, -2.273e-8
0.155, -2.232e-8
0.154, -2.187e-8
0.153, -2.146e-8
0.152, -2.100e-8
0.151, -2.054e-8
0.150, -2.009e-8
0.149, -1.959e-8
0.148, -1.911e-8
0.147, -1.858e-8
0.146, -1.808e-8
0.145, -1.753e-8
0.144, -1.697e-8
0.143, -1.641e-8
0.142, -1.582e-8
0.141, -1.523e-8
0.140, -1.460e-8
0.139, -1.398e-8
0.138, -1.336e-8
0.137, -1.268e-8
0.136, -1.202e-8
0.135, -1.132e-8
0.134, -1.064e-8
0.133, -9.931e-9
0.132, -9.169e-9
0.131, -8.458e-9
0.130, -7.690e-9
0.129, -6.902e-9
0.128, -6.130e-9
0.127, -5.289e-9
0.126, -4.516e-9
0.125, -3.692e-9
0.124, -2.833e-9
0.123, -2.015e-9
0.122, -1.111e-9
0.121, -2.649e-10
0.120, 6.275e-10
0.119, 1.561e-9
0.118, 2.410e-9
0.117, 3.360e-9
0.116, 4.277e-9
0.115, 5.214e-9
0.114, 6.173e-9
0.113, 7.074e-9
0.112, 8.032e-9
0.111, 9.006e-9
0.110, 9.926e-9
0.109, 1.089e-8
0.108, 1.185e-8
0.107, 1.280e-8
0.106, 1.377e-8
0.105, 1.470e-8
0.104, 1.565e-8
0.103, 1.662e-8
0.102, 1.761e-8
0.101, 1.853e-8
0.100, 1.945e-8
0.099, 2.034e-8
0.098, 2.126e-8
0.097, 2.214e-8
0.096, 2.301e-8
0.095, 2.389e-8
0.094, 2.475e-8
0.093, 2.558e-8
0.092, 2.643e-8
0.091, 2.720e-8
0.090, 2.802e-8
0.089, 2.879e-8
0.088, 2.951e-8
0.087, 3.027e-8
0.086, 3.095e-8
0.085, 3.164e-8
0.084, 3.231e-8
0.083, 3.290e-8
0.082, 3.355e-8
0.081, 3.413e-8
0.080, 3.469e-8
0.079, 3.525e-8
0.078, 3.571e-8
0.077, 3.624e-8
0.076, 3.672e-8
0.075, 3.712e-8
0.074, 3.755e-8
0.073, 3.790e-8
0.072, 3.826e-8
0.071, 3.860e-8
0.070, 3.887e-8
0.069, 3.917e-8
0.068, 3.943e-8
0.067, 3.965e-8
0.066, 3.986e-8
0.065, 4.004e-8
0.064, 4.023e-8
0.063, 4.036e-8
0.062, 4.046e-8
0.061, 4.055e-8
0.060, 4.063e-8
0.059, 4.068e-8
0.058, 4.069e-8
0.057, 4.072e-8
0.056, 4.071e-8
0.055, 4.070e-8
0.054, 4.065e-8
0.053, 4.059e-8
0.052, 4.054e-8
0.051, 4.044e-8
0.050, 4.034e-8
0.049, 4.022e-8
0.048, 4.008e-8
0.047, 3.997e-8
0.046, 3.978e-8
0.045, 3.963e-8
0.044, 3.947e-8
0.043, 3.926e-8
0.042, 3.911e-8
0.041, 3.888e-8
0.040, 3.868e-8
0.039, 3.850e-8
0.038, 3.824e-8
0.037, 3.804e-8
0.036, 3.780e-8
0.035, 3.755e-8
0.034, 3.733e-8
0.033, 3.706e-8
0.032, 3.683e-8
0.031, 3.657e-8
0.030, 3.632e-8
0.029, 3.607e-8
0.028, 3.580e-8
0.027, 3.556e-8
0.026, 3.528e-8
0.025, 3.503e-8
0.024, 3.477e-8
0.023, 3.449e-8
0.022, 3.424e-8
0.021, 3.396e-8
0.020, 3.372e-8
0.019, 3.345e-8
0.018, 3.317e-8
0.017, 3.294e-8
0.016, 3.264e-8
0.015, 3.241e-8
0.014, 3.215e-8
0.013, 3.187e-8
0.012, 3.165e-8
0.011, 3.136e-8
0.010, 3.113e-8
0.009, 3.088e-8
0.008, 3.062e-8
0.007, 3.041e-8
0.006, 3.014e-8
0.005, 2.992e-8
0.004, 2.969e-8
0.003, 2.943e-8
0.002, 2.923e-8
0.001, 2.898e-8
0.000, 2.883e-8
-0.001, 2.859e-8
-0.002, 2.833e-8
-0.003, 2.814e-8
-0.004, 2.791e-8
-0.005, 2.770e-8
-0.006, 2.750e-8
-0.007, 2.728e-8
-0.008, 2.711e-8
-0.009, 2.688e-8
-0.010, 2.670e-8
-0.011, 2.652e-8
-0.012, 2.631e-8
-0.013, 2.615e-8
-0.014, 2.594e-8
-0.015, 2.578e-8
-0.016, 2.560e-8
-0.017, 2.540e-8
-0.018, 2.526e-8
-0.019, 2.507e-8
-0.020, 2.493e-8
-0.021, 2.476e-8
-0.022, 2.458e-8
-0.023, 2.445e-8
-0.024, 2.427e-8
-0.025, 2.413e-8
-0.026, 2.399e-8
-0.027, 2.382e-8
-0.028, 2.371e-8
-0.029, 2.353e-8
-0.030, 2.342e-8
-0.031, 2.328e-8
-0.032, 2.312e-8
-0.033, 2.303e-8
-0.034, 2.287e-8
-0.035, 2.276e-8
-0.036, 2.265e-8
-0.037, 2.250e-8
-0.038, 2.242e-8
-0.039, 2.228e-8
-0.040, 2.218e-8
-0.041, 2.208e-8
-0.042, 2.193e-8
-0.043, 2.187e-8
-0.044, 2.174e-8
-0.045, 2.164e-8
-0.046, 2.155e-8
-0.047, 2.143e-8
-0.048, 2.137e-8
-0.049, 2.125e-8
-0.050, 2.117e-8
-0.051, 2.109e-8
-0.052, 2.098e-8
-0.053, 2.092e-8
-0.054, 2.081e-8
-0.055, 2.075e-8
-0.056, 2.067e-8
-0.057, 2.057e-8
-0.058, 2.053e-8
-0.059, 2.043e-8
-0.060, 2.038e-8
-0.061, 2.030e-8
-0.062, 2.021e-8
-0.063, 2.018e-8
-0.064, 2.009e-8
-0.065, 2.005e-8
-0.066, 1.999e-8
-0.067, 1.991e-8
-0.068, 1.988e-8
-0.069, 1.979e-8
-0.070, 1.976e-8
-0.071, 1.971e-8
-0.072, 1.964e-8
-0.073, 1.962e-8
-0.074, 1.954e-8
-0.075, 1.952e-8
-0.076, 1.948e-8
-0.077, 1.941e-8
-0.078, 1.941e-8
-0.079, 1.933e-8
-0.080, 1.931e-8
-0.081, 1.928e-8
-0.082, 1.922e-8
-0.083, 1.922e-8
-0.084, 1.916e-8
-0.085, 1.914e-8
-0.086, 1.912e-8
-0.087, 1.907e-8
-0.088, 1.907e-8
-0.089, 1.902e-8
-0.090, 1.901e-8
-0.091, 1.900e-8
-0.092, 1.896e-8
-0.093, 1.896e-8
-0.094, 1.892e-8
-0.095, 1.892e-8
-0.096, 1.890e-8
-0.097, 1.887e-8
-0.098, 1.889e-8
-0.099, 1.885e-8
-0.100, 1.886e-8
-0.101, 1.885e-8
-0.102, 1.882e-8
-0.103, 1.886e-8
-0.104, 1.881e-8
-0.105, 1.884e-8
-0.106, 1.882e-8
-0.107, 1.880e-8
-0.108, 1.885e-8
-0.109, 1.880e-8
-0.110, 1.883e-8
-0.111, 1.884e-8
-0.112, 1.882e-8
-0.113, 1.887e-8
-0.114, 1.884e-8
-0.115, 1.887e-8
-0.116, 1.889e-8
-0.117, 1.887e-8
-0.118, 1.893e-8
-0.119, 1.891e-8
-0.120, 1.894e-8
-0.121, 1.896e-8
-0.122, 1.896e-8
-0.123, 1.901e-8
-0.124, 1.900e-8
-0.125, 1.904e-8
-0.126, 1.907e-8
-0.127, 1.907e-8
-0.128, 1.913e-8
-0.129, 1.913e-8
-0.130, 1.918e-8
-0.131, 1.921e-8
-0.132, 1.922e-8
-0.133, 1.928e-8
-0.134, 1.929e-8
-0.135, 1.934e-8
-0.136, 1.938e-8
-0.137, 1.940e-8
-0.138, 1.947e-8
-0.139, 1.948e-8
-0.140, 1.954e-8
-0.141, 1.959e-8
-0.142, 1.961e-8
-0.143, 1.969e-8
-0.144, 1.970e-8
-0.145, 1.978e-8
-0.146, 1.982e-8
-0.147, 1.986e-8
-0.148, 1.995e-8
-0.149, 1.996e-8
-0.150, 2.004e-8
-0.151, 2.009e-8
-0.152, 2.013e-8
-0.153, 2.022e-8
-0.154, 2.025e-8
-0.155, 2.033e-8
-0.156, 2.040e-8
-0.157, 2.044e-8
-0.158, 2.054e-8
-0.159, 2.058e-8
-0.160, 2.066e-8
-0.161, 2.074e-8
-0.162, 2.079e-8
-0.163, 2.089e-8
-0.164, 2.094e-8
-0.165, 2.103e-8
-0.166, 2.111e-8
-0.167, 2.117e-8
-0.168, 2.129e-8
-0.169, 2.134e-8
-0.170, 2.143e-8
-0.171, 2.152e-8
-0.172, 2.159e-8
-0.173, 2.170e-8
-0.174, 2.177e-8
-0.175, 2.187e-8
-0.176, 2.197e-8
-0.177, 2.205e-8
-0.178, 2.217e-8
-0.179, 2.224e-8
-0.180, 2.236e-8
-0.181, 2.245e-8
-0.182, 2.253e-8
-0.183, 2.267e-8
-0.184, 2.274e-8
-0.185, 2.287e-8
-0.186, 2.297e-8
-0.187, 2.306e-8
-0.188, 2.321e-8
-0.189, 2.328e-8
-0.190, 2.342e-8
-0.191, 2.353e-8
-0.192, 2.363e-8
-0.193, 2.378e-8
-0.194, 2.386e-8
-0.195, 2.400e-8
-0.196, 2.413e-8
-0.197, 2.423e-8
-0.198, 2.440e-8
-0.199, 2.450e-8
