Mar. 16, 2023   10:11:23
Cyclic Voltammetry
File: c:/users/oliverrz/desktop/electrolab/data/2023_03_16\fcmeoh_macros_1_mm\electrode3_cv_250mvs_1_mm.bin
Data Source:  Experiment
Instrument Model:  CHI760E
Header: CV
Note: 

Init E (V) = -0.2
High E (V) = 0.3
Low E (V) = -0.2
Final E (V) = -0.2
Init P/N = P
Scan Rate (V/s) = 0.25
Segment = 3
Sample Interval (V) = 0.001
Quiet Time (sec) = 2
Sensitivity (A/V) = 1e-7

Results:

Channel 1:
Segment 1:
Ep = 0.121V
ip = -9.339e-8A
Ah = -2.281e-8C

Segment 2:
Ep = 0.060V
ip = 9.031e-8A
Ah = 2.236e-8C

Segment 3:

Potential/V, Current/A

-0.200, 2.650e-8
-0.199, 2.342e-8
-0.198, 2.277e-8
-0.197, 2.250e-8
-0.196, 2.191e-8
-0.195, 2.139e-8
-0.194, 2.102e-8
-0.193, 2.080e-8
-0.192, 2.050e-8
-0.191, 1.994e-8
-0.190, 1.963e-8
-0.189, 1.954e-8
-0.188, 1.917e-8
-0.187, 1.877e-8
-0.186, 1.840e-8
-0.185, 1.828e-8
-0.184, 1.807e-8
-0.183, 1.764e-8
-0.182, 1.727e-8
-0.181, 1.717e-8
-0.180, 1.696e-8
-0.179, 1.659e-8
-0.178, 1.619e-8
-0.177, 1.607e-8
-0.176, 1.597e-8
-0.175, 1.557e-8
-0.174, 1.520e-8
-0.173, 1.505e-8
-0.172, 1.496e-8
-0.171, 1.465e-8
-0.170, 1.428e-8
-0.169, 1.407e-8
-0.168, 1.404e-8
-0.167, 1.373e-8
-0.166, 1.336e-8
-0.165, 1.314e-8
-0.164, 1.311e-8
-0.163, 1.287e-8
-0.162, 1.253e-8
-0.161, 1.222e-8
-0.160, 1.228e-8
-0.159, 1.204e-8
-0.158, 1.167e-8
-0.157, 1.142e-8
-0.156, 1.133e-8
-0.155, 1.127e-8
-0.154, 1.093e-8
-0.153, 1.056e-8
-0.152, 1.053e-8
-0.151, 1.041e-8
-0.150, 1.016e-8
-0.149, 9.852e-9
-0.148, 9.667e-9
-0.147, 9.698e-9
-0.146, 9.421e-9
-0.145, 9.021e-9
-0.144, 8.959e-9
-0.143, 8.898e-9
-0.142, 8.683e-9
-0.141, 8.344e-9
-0.140, 8.129e-9
-0.139, 8.190e-9
-0.138, 7.975e-9
-0.137, 7.637e-9
-0.136, 7.452e-9
-0.135, 7.452e-9
-0.134, 7.298e-9
-0.133, 7.021e-9
-0.132, 6.744e-9
-0.131, 6.744e-9
-0.130, 6.683e-9
-0.129, 6.344e-9
-0.128, 6.068e-9
-0.127, 6.037e-9
-0.126, 5.975e-9
-0.125, 5.760e-9
-0.124, 5.421e-9
-0.123, 5.360e-9
-0.122, 5.391e-9
-0.121, 5.114e-9
-0.120, 4.837e-9
-0.119, 4.714e-9
-0.118, 4.745e-9
-0.117, 4.560e-9
-0.116, 4.222e-9
-0.115, 4.129e-9
-0.114, 4.129e-9
-0.113, 3.976e-9
-0.112, 3.699e-9
-0.111, 3.483e-9
-0.110, 3.545e-9
-0.109, 3.453e-9
-0.108, 3.114e-9
-0.107, 2.960e-9
-0.106, 2.960e-9
-0.105, 2.868e-9
-0.104, 2.653e-9
-0.103, 2.345e-9
-0.102, 2.345e-9
-0.101, 2.345e-9
-0.100, 2.099e-9
-0.099, 1.853e-9
-0.098, 1.791e-9
-0.097, 1.791e-9
-0.096, 1.637e-9
-0.095, 1.299e-9
-0.094, 1.237e-9
-0.093, 1.330e-9
-0.092, 1.084e-9
-0.091, 8.375e-10
-0.090, 7.144e-10
-0.089, 7.452e-10
-0.088, 6.529e-10
-0.087, 3.145e-10
-0.086, 1.299e-10
-0.085, 2.529e-10
-0.084, 9.911e-11
-0.083, -1.162e-10
-0.082, -3.316e-10
-0.081, -3.008e-10
-0.080, -3.008e-10
-0.079, -6.085e-10
-0.078, -8.238e-10
-0.077, -8.238e-10
-0.076, -8.546e-10
-0.075, -1.039e-9
-0.074, -1.316e-9
-0.073, -1.347e-9
-0.072, -1.285e-9
-0.071, -1.562e-9
-0.070, -1.808e-9
-0.069, -1.870e-9
-0.068, -1.839e-9
-0.067, -1.962e-9
-0.066, -2.270e-9
-0.065, -2.393e-9
-0.064, -2.301e-9
-0.063, -2.454e-9
-0.062, -2.731e-9
-0.061, -2.885e-9
-0.060, -2.824e-9
-0.059, -2.916e-9
-0.058, -3.193e-9
-0.057, -3.377e-9
-0.056, -3.347e-9
-0.055, -3.408e-9
-0.054, -3.654e-9
-0.053, -3.870e-9
-0.052, -3.900e-9
-0.051, -3.900e-9
-0.050, -4.116e-9
-0.049, -4.423e-9
-0.048, -4.423e-9
-0.047, -4.393e-9
-0.046, -4.639e-9
-0.045, -4.885e-9
-0.044, -5.039e-9
-0.043, -4.946e-9
-0.042, -5.131e-9
-0.041, -5.500e-9
-0.040, -5.531e-9
-0.039, -5.562e-9
-0.038, -5.685e-9
-0.037, -5.962e-9
-0.036, -6.208e-9
-0.035, -6.085e-9
-0.034, -6.239e-9
-0.033, -6.577e-9
-0.032, -6.762e-9
-0.031, -6.823e-9
-0.030, -6.854e-9
-0.029, -7.161e-9
-0.028, -7.469e-9
-0.027, -7.469e-9
-0.026, -7.561e-9
-0.025, -7.808e-9
-0.024, -8.115e-9
-0.023, -8.238e-9
-0.022, -8.238e-9
-0.021, -8.546e-9
-0.020, -8.884e-9
-0.019, -9.007e-9
-0.018, -9.007e-9
-0.017, -9.315e-9
-0.016, -9.653e-9
-0.015, -9.869e-9
-0.014, -9.900e-9
-0.013, -1.015e-8
-0.012, -1.055e-8
-0.011, -1.079e-8
-0.010, -1.079e-8
-0.009, -1.110e-8
-0.008, -1.144e-8
-0.007, -1.181e-8
-0.006, -1.193e-8
-0.005, -1.205e-8
-0.004, -1.251e-8
-0.003, -1.288e-8
-0.002, -1.304e-8
-0.001, -1.328e-8
-0.000, -1.387e-8
0.001, -1.421e-8
0.002, -1.439e-8
0.003, -1.451e-8
0.004, -1.504e-8
0.005, -1.550e-8
0.006, -1.578e-8
0.007, -1.602e-8
0.008, -1.642e-8
0.009, -1.701e-8
0.010, -1.734e-8
0.011, -1.756e-8
0.012, -1.808e-8
0.013, -1.864e-8
0.014, -1.913e-8
0.015, -1.944e-8
0.016, -1.987e-8
0.017, -2.051e-8
0.018, -2.107e-8
0.019, -2.141e-8
0.020, -2.196e-8
0.021, -2.257e-8
0.022, -2.322e-8
0.023, -2.371e-8
0.024, -2.417e-8
0.025, -2.494e-8
0.026, -2.574e-8
0.027, -2.624e-8
0.028, -2.679e-8
0.029, -2.756e-8
0.030, -2.839e-8
0.031, -2.910e-8
0.032, -2.956e-8
0.033, -3.045e-8
0.034, -3.144e-8
0.035, -3.217e-8
0.036, -3.285e-8
0.037, -3.368e-8
0.038, -3.470e-8
0.039, -3.565e-8
0.040, -3.633e-8
0.041, -3.728e-8
0.042, -3.836e-8
0.043, -3.934e-8
0.044, -4.026e-8
0.045, -4.116e-8
0.046, -4.236e-8
0.047, -4.350e-8
0.048, -4.439e-8
0.049, -4.549e-8
0.050, -4.669e-8
0.051, -4.796e-8
0.052, -4.913e-8
0.053, -5.008e-8
0.054, -5.146e-8
0.055, -5.276e-8
0.056, -5.389e-8
0.057, -5.509e-8
0.058, -5.642e-8
0.059, -5.777e-8
0.060, -5.919e-8
0.061, -6.026e-8
0.062, -6.171e-8
0.063, -6.322e-8
0.064, -6.457e-8
0.065, -6.583e-8
0.066, -6.718e-8
0.067, -6.869e-8
0.068, -7.023e-8
0.069, -7.146e-8
0.070, -7.291e-8
0.071, -7.438e-8
0.072, -7.586e-8
0.073, -7.728e-8
0.074, -7.860e-8
0.075, -8.014e-8
0.076, -8.167e-8
0.077, -8.300e-8
0.078, -8.429e-8
0.079, -8.589e-8
0.080, -8.721e-8
0.081, -8.866e-8
0.082, -8.980e-8
0.083, -9.130e-8
0.084, -9.272e-8
0.085, -9.398e-8
0.086, -9.512e-8
0.087, -9.650e-8
0.088, -9.773e-8
0.089, -9.909e-8
0.090, -1.000e-7
0.091, -1.013e-7
0.092, -1.025e-7
0.093, -1.036e-7
0.094, -1.046e-7
0.095, -1.056e-7
0.096, -1.066e-7
0.097, -1.077e-7
0.098, -1.084e-7
0.099, -1.092e-7
0.100, -1.103e-7
0.101, -1.110e-7
0.102, -1.118e-7
0.103, -1.125e-7
0.104, -1.131e-7
0.105, -1.140e-7
0.106, -1.144e-7
0.107, -1.148e-7
0.108, -1.155e-7
0.109, -1.159e-7
0.110, -1.164e-7
0.111, -1.167e-7
0.112, -1.170e-7
0.113, -1.175e-7
0.114, -1.177e-7
0.115, -1.177e-7
0.116, -1.180e-7
0.117, -1.182e-7
0.118, -1.184e-7
0.119, -1.183e-7
0.120, -1.183e-7
0.121, -1.185e-7
0.122, -1.184e-7
0.123, -1.182e-7
0.124, -1.181e-7
0.125, -1.180e-7
0.126, -1.180e-7
0.127, -1.178e-7
0.128, -1.174e-7
0.129, -1.173e-7
0.130, -1.171e-7
0.131, -1.168e-7
0.132, -1.163e-7
0.133, -1.161e-7
0.134, -1.159e-7
0.135, -1.155e-7
0.136, -1.149e-7
0.137, -1.146e-7
0.138, -1.143e-7
0.139, -1.138e-7
0.140, -1.133e-7
0.141, -1.128e-7
0.142, -1.125e-7
0.143, -1.121e-7
0.144, -1.114e-7
0.145, -1.109e-7
0.146, -1.105e-7
0.147, -1.100e-7
0.148, -1.095e-7
0.149, -1.088e-7
0.150, -1.084e-7
0.151, -1.081e-7
0.152, -1.073e-7
0.153, -1.067e-7
0.154, -1.063e-7
0.155, -1.059e-7
0.156, -1.053e-7
0.157, -1.045e-7
0.158, -1.041e-7
0.159, -1.038e-7
0.160, -1.031e-7
0.161, -1.025e-7
0.162, -1.019e-7
0.163, -1.015e-7
0.164, -1.011e-7
0.165, -1.003e-7
0.166, -9.980e-8
0.167, -9.940e-8
0.168, -9.890e-8
0.169, -9.826e-8
0.170, -9.767e-8
0.171, -9.727e-8
0.172, -9.690e-8
0.173, -9.623e-8
0.174, -9.564e-8
0.175, -9.527e-8
0.176, -9.490e-8
0.177, -9.432e-8
0.178, -9.367e-8
0.179, -9.330e-8
0.180, -9.303e-8
0.181, -9.247e-8
0.182, -9.183e-8
0.183, -9.149e-8
0.184, -9.115e-8
0.185, -9.069e-8
0.186, -9.007e-8
0.187, -8.964e-8
0.188, -8.943e-8
0.189, -8.897e-8
0.190, -8.838e-8
0.191, -8.804e-8
0.192, -8.770e-8
0.193, -8.740e-8
0.194, -8.681e-8
0.195, -8.635e-8
0.196, -8.620e-8
0.197, -8.580e-8
0.198, -8.534e-8
0.199, -8.484e-8
0.200, -8.457e-8
0.201, -8.441e-8
0.202, -8.392e-8
0.203, -8.340e-8
0.204, -8.321e-8
0.205, -8.300e-8
0.206, -8.260e-8
0.207, -8.211e-8
0.208, -8.183e-8
0.209, -8.171e-8
0.210, -8.134e-8
0.211, -8.081e-8
0.212, -8.060e-8
0.213, -8.044e-8
0.214, -8.014e-8
0.215, -7.967e-8
0.216, -7.937e-8
0.217, -7.927e-8
0.218, -7.903e-8
0.219, -7.857e-8
0.220, -7.826e-8
0.221, -7.814e-8
0.222, -7.792e-8
0.223, -7.755e-8
0.224, -7.718e-8
0.225, -7.703e-8
0.226, -7.697e-8
0.227, -7.654e-8
0.228, -7.620e-8
0.229, -7.604e-8
0.230, -7.595e-8
0.231, -7.571e-8
0.232, -7.524e-8
0.233, -7.515e-8
0.234, -7.506e-8
0.235, -7.478e-8
0.236, -7.444e-8
0.237, -7.423e-8
0.238, -7.420e-8
0.239, -7.401e-8
0.240, -7.358e-8
0.241, -7.346e-8
0.242, -7.337e-8
0.243, -7.324e-8
0.244, -7.291e-8
0.245, -7.266e-8
0.246, -7.260e-8
0.247, -7.254e-8
0.248, -7.220e-8
0.249, -7.192e-8
0.250, -7.186e-8
0.251, -7.186e-8
0.252, -7.158e-8
0.253, -7.128e-8
0.254, -7.118e-8
0.255, -7.121e-8
0.256, -7.097e-8
0.257, -7.066e-8
0.258, -7.060e-8
0.259, -7.060e-8
0.260, -7.045e-8
0.261, -7.008e-8
0.262, -6.998e-8
0.263, -7.005e-8
0.264, -6.989e-8
0.265, -6.955e-8
0.266, -6.946e-8
0.267, -6.946e-8
0.268, -6.943e-8
0.269, -6.909e-8
0.270, -6.894e-8
0.271, -6.900e-8
0.272, -6.891e-8
0.273, -6.869e-8
0.274, -6.848e-8
0.275, -6.845e-8
0.276, -6.857e-8
0.277, -6.829e-8
0.278, -6.808e-8
0.279, -6.808e-8
0.280, -6.811e-8
0.281, -6.798e-8
0.282, -6.768e-8
0.283, -6.768e-8
0.284, -6.777e-8
0.285, -6.761e-8
0.286, -6.737e-8
0.287, -6.734e-8
0.288, -6.740e-8
0.289, -6.737e-8
0.290, -6.706e-8
0.291, -6.700e-8
0.292, -6.712e-8
0.293, -6.709e-8
0.294, -6.685e-8
0.295, -6.675e-8
0.296, -6.681e-8
0.297, -6.688e-8
0.298, -6.666e-8
0.299, -6.651e-8
0.300, -6.331e-8
0.299, -5.906e-8
0.298, -5.808e-8
0.297, -5.737e-8
0.296, -5.697e-8
0.295, -5.663e-8
0.294, -5.617e-8
0.293, -5.562e-8
0.292, -5.534e-8
0.291, -5.522e-8
0.290, -5.479e-8
0.289, -5.429e-8
0.288, -5.411e-8
0.287, -5.396e-8
0.286, -5.371e-8
0.285, -5.325e-8
0.284, -5.300e-8
0.283, -5.294e-8
0.282, -5.272e-8
0.281, -5.229e-8
0.280, -5.208e-8
0.279, -5.196e-8
0.278, -5.189e-8
0.277, -5.149e-8
0.276, -5.119e-8
0.275, -5.116e-8
0.274, -5.106e-8
0.273, -5.072e-8
0.272, -5.045e-8
0.271, -5.036e-8
0.270, -5.032e-8
0.269, -5.005e-8
0.268, -4.968e-8
0.267, -4.965e-8
0.266, -4.962e-8
0.265, -4.937e-8
0.264, -4.906e-8
0.263, -4.888e-8
0.262, -4.894e-8
0.261, -4.876e-8
0.260, -4.839e-8
0.259, -4.829e-8
0.258, -4.826e-8
0.257, -4.817e-8
0.256, -4.780e-8
0.255, -4.759e-8
0.254, -4.765e-8
0.253, -4.756e-8
0.252, -4.722e-8
0.251, -4.703e-8
0.250, -4.697e-8
0.249, -4.697e-8
0.248, -4.669e-8
0.247, -4.639e-8
0.246, -4.639e-8
0.245, -4.636e-8
0.244, -4.614e-8
0.243, -4.583e-8
0.242, -4.577e-8
0.241, -4.580e-8
0.240, -4.559e-8
0.239, -4.525e-8
0.238, -4.519e-8
0.237, -4.522e-8
0.236, -4.503e-8
0.235, -4.469e-8
0.234, -4.460e-8
0.233, -4.460e-8
0.232, -4.451e-8
0.231, -4.414e-8
0.230, -4.399e-8
0.229, -4.399e-8
0.228, -4.389e-8
0.227, -4.362e-8
0.226, -4.337e-8
0.225, -4.334e-8
0.224, -4.334e-8
0.223, -4.300e-8
0.222, -4.279e-8
0.221, -4.273e-8
0.220, -4.270e-8
0.219, -4.245e-8
0.218, -4.211e-8
0.217, -4.205e-8
0.216, -4.208e-8
0.215, -4.180e-8
0.214, -4.150e-8
0.213, -4.137e-8
0.212, -4.134e-8
0.211, -4.119e-8
0.210, -4.079e-8
0.209, -4.066e-8
0.208, -4.063e-8
0.207, -4.045e-8
0.206, -4.008e-8
0.205, -3.983e-8
0.204, -3.980e-8
0.203, -3.971e-8
0.202, -3.931e-8
0.201, -3.903e-8
0.200, -3.897e-8
0.199, -3.885e-8
0.198, -3.851e-8
0.197, -3.814e-8
0.196, -3.802e-8
0.195, -3.796e-8
0.194, -3.759e-8
0.193, -3.719e-8
0.192, -3.707e-8
0.191, -3.691e-8
0.190, -3.663e-8
0.189, -3.617e-8
0.188, -3.593e-8
0.187, -3.587e-8
0.186, -3.553e-8
0.185, -3.500e-8
0.184, -3.479e-8
0.183, -3.457e-8
0.182, -3.433e-8
0.181, -3.377e-8
0.180, -3.340e-8
0.179, -3.325e-8
0.178, -3.291e-8
0.177, -3.239e-8
0.176, -3.199e-8
0.175, -3.165e-8
0.174, -3.144e-8
0.173, -3.088e-8
0.172, -3.030e-8
0.171, -3.005e-8
0.170, -2.968e-8
0.169, -2.916e-8
0.168, -2.854e-8
0.167, -2.811e-8
0.166, -2.780e-8
0.165, -2.722e-8
0.164, -2.651e-8
0.163, -2.611e-8
0.162, -2.562e-8
0.161, -2.507e-8
0.160, -2.433e-8
0.159, -2.371e-8
0.158, -2.328e-8
0.157, -2.267e-8
0.156, -2.177e-8
0.155, -2.116e-8
0.154, -2.058e-8
0.153, -1.993e-8
0.152, -1.910e-8
0.151, -1.824e-8
0.150, -1.765e-8
0.149, -1.698e-8
0.148, -1.599e-8
0.147, -1.513e-8
0.146, -1.436e-8
0.145, -1.362e-8
0.144, -1.270e-8
0.143, -1.156e-8
0.142, -1.079e-8
0.141, -9.961e-9
0.140, -8.915e-9
0.139, -7.808e-9
0.138, -6.854e-9
0.137, -5.931e-9
0.136, -4.916e-9
0.135, -3.593e-9
0.134, -2.608e-9
0.133, -1.593e-9
0.132, -4.239e-10
0.131, 8.067e-10
0.130, 2.068e-9
0.129, 3.145e-9
0.128, 4.283e-9
0.127, 5.791e-9
0.126, 6.929e-9
0.125, 8.129e-9
0.124, 9.390e-9
0.123, 1.071e-8
0.122, 1.219e-8
0.121, 1.342e-8
0.120, 1.462e-8
0.119, 1.619e-8
0.118, 1.754e-8
0.117, 1.887e-8
0.116, 2.019e-8
0.115, 2.160e-8
0.114, 2.327e-8
0.113, 2.450e-8
0.112, 2.582e-8
0.111, 2.736e-8
0.110, 2.883e-8
0.109, 3.016e-8
0.108, 3.157e-8
0.107, 3.289e-8
0.106, 3.456e-8
0.105, 3.585e-8
0.104, 3.714e-8
0.103, 3.859e-8
0.102, 4.006e-8
0.101, 4.145e-8
0.100, 4.268e-8
0.099, 4.388e-8
0.098, 4.532e-8
0.097, 4.668e-8
0.096, 4.782e-8
0.095, 4.905e-8
0.094, 5.025e-8
0.093, 5.160e-8
0.092, 5.262e-8
0.091, 5.366e-8
0.090, 5.489e-8
0.089, 5.609e-8
0.088, 5.695e-8
0.087, 5.794e-8
0.086, 5.883e-8
0.085, 5.997e-8
0.084, 6.080e-8
0.083, 6.148e-8
0.082, 6.243e-8
0.081, 6.335e-8
0.080, 6.397e-8
0.079, 6.474e-8
0.078, 6.523e-8
0.077, 6.612e-8
0.076, 6.667e-8
0.075, 6.707e-8
0.074, 6.760e-8
0.073, 6.812e-8
0.072, 6.864e-8
0.071, 6.901e-8
0.070, 6.917e-8
0.069, 6.963e-8
0.068, 7.003e-8
0.067, 7.009e-8
0.066, 7.031e-8
0.065, 7.049e-8
0.064, 7.086e-8
0.063, 7.089e-8
0.062, 7.077e-8
0.061, 7.089e-8
0.060, 7.110e-8
0.059, 7.098e-8
0.058, 7.086e-8
0.057, 7.077e-8
0.056, 7.089e-8
0.055, 7.080e-8
0.054, 7.046e-8
0.053, 7.027e-8
0.052, 7.031e-8
0.051, 7.012e-8
0.050, 6.981e-8
0.049, 6.944e-8
0.048, 6.935e-8
0.047, 6.917e-8
0.046, 6.877e-8
0.045, 6.834e-8
0.044, 6.815e-8
0.043, 6.794e-8
0.042, 6.751e-8
0.041, 6.707e-8
0.040, 6.677e-8
0.039, 6.661e-8
0.038, 6.609e-8
0.037, 6.560e-8
0.036, 6.529e-8
0.035, 6.501e-8
0.034, 6.461e-8
0.033, 6.406e-8
0.032, 6.360e-8
0.031, 6.348e-8
0.030, 6.295e-8
0.029, 6.243e-8
0.028, 6.200e-8
0.027, 6.172e-8
0.026, 6.141e-8
0.025, 6.086e-8
0.024, 6.034e-8
0.023, 6.012e-8
0.022, 5.972e-8
0.021, 5.926e-8
0.020, 5.874e-8
0.019, 5.840e-8
0.018, 5.815e-8
0.017, 5.766e-8
0.016, 5.711e-8
0.015, 5.686e-8
0.014, 5.658e-8
0.013, 5.612e-8
0.012, 5.560e-8
0.011, 5.523e-8
0.010, 5.508e-8
0.009, 5.468e-8
0.008, 5.412e-8
0.007, 5.381e-8
0.006, 5.360e-8
0.005, 5.326e-8
0.004, 5.280e-8
0.003, 5.237e-8
0.002, 5.225e-8
0.001, 5.197e-8
0.000, 5.169e-8
-0.001, 5.117e-8
-0.002, 5.095e-8
-0.003, 5.071e-8
-0.004, 5.034e-8
-0.005, 4.985e-8
-0.006, 4.972e-8
-0.007, 4.957e-8
-0.008, 4.917e-8
-0.009, 4.880e-8
-0.010, 4.855e-8
-0.011, 4.849e-8
-0.012, 4.818e-8
-0.013, 4.772e-8
-0.014, 4.757e-8
-0.015, 4.748e-8
-0.016, 4.717e-8
-0.017, 4.683e-8
-0.018, 4.655e-8
-0.019, 4.655e-8
-0.020, 4.634e-8
-0.021, 4.594e-8
-0.022, 4.572e-8
-0.023, 4.569e-8
-0.024, 4.554e-8
-0.025, 4.523e-8
-0.026, 4.495e-8
-0.027, 4.489e-8
-0.028, 4.483e-8
-0.029, 4.455e-8
-0.030, 4.425e-8
-0.031, 4.425e-8
-0.032, 4.415e-8
-0.033, 4.394e-8
-0.034, 4.363e-8
-0.035, 4.357e-8
-0.036, 4.363e-8
-0.037, 4.339e-8
-0.038, 4.311e-8
-0.039, 4.305e-8
-0.040, 4.308e-8
-0.041, 4.292e-8
-0.042, 4.265e-8
-0.043, 4.252e-8
-0.044, 4.265e-8
-0.045, 4.249e-8
-0.046, 4.228e-8
-0.047, 4.215e-8
-0.048, 4.222e-8
-0.049, 4.222e-8
-0.050, 4.197e-8
-0.051, 4.179e-8
-0.052, 4.191e-8
-0.053, 4.188e-8
-0.054, 4.172e-8
-0.055, 4.151e-8
-0.056, 4.157e-8
-0.057, 4.169e-8
-0.058, 4.148e-8
-0.059, 4.132e-8
-0.060, 4.136e-8
-0.061, 4.145e-8
-0.062, 4.136e-8
-0.063, 4.117e-8
-0.064, 4.117e-8
-0.065, 4.136e-8
-0.066, 4.126e-8
-0.067, 4.108e-8
-0.068, 4.108e-8
-0.069, 4.123e-8
-0.070, 4.120e-8
-0.071, 4.108e-8
-0.072, 4.102e-8
-0.073, 4.120e-8
-0.074, 4.123e-8
-0.075, 4.108e-8
-0.076, 4.105e-8
-0.077, 4.117e-8
-0.078, 4.129e-8
-0.079, 4.120e-8
-0.080, 4.105e-8
-0.081, 4.126e-8
-0.082, 4.139e-8
-0.083, 4.126e-8
-0.084, 4.123e-8
-0.085, 4.129e-8
-0.086, 4.154e-8
-0.087, 4.145e-8
-0.088, 4.136e-8
-0.089, 4.151e-8
-0.090, 4.166e-8
-0.091, 4.169e-8
-0.092, 4.160e-8
-0.093, 4.160e-8
-0.094, 4.194e-8
-0.095, 4.194e-8
-0.096, 4.188e-8
-0.097, 4.194e-8
-0.098, 4.212e-8
-0.099, 4.228e-8
-0.100, 4.219e-8
-0.101, 4.222e-8
-0.102, 4.246e-8
-0.103, 4.262e-8
-0.104, 4.259e-8
-0.105, 4.255e-8
-0.106, 4.277e-8
-0.107, 4.299e-8
-0.108, 4.299e-8
-0.109, 4.295e-8
-0.110, 4.317e-8
-0.111, 4.345e-8
-0.112, 4.342e-8
-0.113, 4.342e-8
-0.114, 4.357e-8
-0.115, 4.388e-8
-0.116, 4.397e-8
-0.117, 4.388e-8
-0.118, 4.403e-8
-0.119, 4.440e-8
-0.120, 4.446e-8
-0.121, 4.449e-8
-0.122, 4.452e-8
-0.123, 4.486e-8
-0.124, 4.511e-8
-0.125, 4.505e-8
-0.126, 4.514e-8
-0.127, 4.548e-8
-0.128, 4.569e-8
-0.129, 4.572e-8
-0.130, 4.575e-8
-0.131, 4.606e-8
-0.132, 4.637e-8
-0.133, 4.637e-8
-0.134, 4.643e-8
-0.135, 4.668e-8
-0.136, 4.705e-8
-0.137, 4.714e-8
-0.138, 4.711e-8
-0.139, 4.739e-8
-0.140, 4.779e-8
-0.141, 4.788e-8
-0.142, 4.794e-8
-0.143, 4.812e-8
-0.144, 4.852e-8
-0.145, 4.871e-8
-0.146, 4.874e-8
-0.147, 4.892e-8
-0.148, 4.932e-8
-0.149, 4.954e-8
-0.150, 4.960e-8
-0.151, 4.975e-8
-0.152, 5.009e-8
-0.153, 5.043e-8
-0.154, 5.052e-8
-0.155, 5.062e-8
-0.156, 5.102e-8
-0.157, 5.129e-8
-0.158, 5.145e-8
-0.159, 5.154e-8
-0.160, 5.185e-8
-0.161, 5.231e-8
-0.162, 5.240e-8
-0.163, 5.246e-8
-0.164, 5.283e-8
-0.165, 5.317e-8
-0.166, 5.345e-8
-0.167, 5.354e-8
-0.168, 5.372e-8
-0.169, 5.425e-8
-0.170, 5.443e-8
-0.171, 5.455e-8
-0.172, 5.480e-8
-0.173, 5.517e-8
-0.174, 5.554e-8
-0.175, 5.563e-8
-0.176, 5.581e-8
-0.177, 5.631e-8
-0.178, 5.658e-8
-0.179, 5.677e-8
-0.180, 5.692e-8
-0.181, 5.732e-8
-0.182, 5.772e-8
-0.183, 5.788e-8
-0.184, 5.800e-8
-0.185, 5.843e-8
-0.186, 5.886e-8
-0.187, 5.901e-8
-0.188, 5.920e-8
-0.189, 5.951e-8
-0.190, 5.997e-8
-0.191, 6.021e-8
-0.192, 6.034e-8
-0.193, 6.068e-8
-0.194, 6.114e-8
-0.195, 6.138e-8
-0.196, 6.157e-8
-0.197, 6.181e-8
-0.198, 6.231e-8
-0.199, 6.261e-8
