Mar. 16, 2023   10:16:32
Cyclic Voltammetry
File: c:/users/oliverrz/desktop/electrolab/data/2023_03_16\fcmeoh_macros_1_mm\electrode7_cv_200mvs_1_mm.bin
Data Source:  Experiment
Instrument Model:  CHI760E
Header: CV
Note: 

Init E (V) = -0.2
High E (V) = 0.3
Low E (V) = -0.2
Final E (V) = -0.2
Init P/N = P
Scan Rate (V/s) = 0.2
Segment = 3
Sample Interval (V) = 0.001
Quiet Time (sec) = 2
Sensitivity (A/V) = 1e-7

Results:

Channel 1:
Segment 1:
Ep = 0.125V
ip = -9.720e-8A
Ah = -3.066e-8C

Segment 2:
Ep = 0.063V
ip = 8.708e-8A
Ah = 2.694e-8C

Segment 3:

Potential/V, Current/A

-0.200, 3.248e-9
-0.199, 2.654e-9
-0.198, 2.363e-9
-0.197, 2.516e-9
-0.196, 2.526e-9
-0.195, 2.284e-9
-0.194, 2.291e-9
-0.193, 2.457e-9
-0.192, 2.241e-9
-0.191, 2.143e-9
-0.190, 2.323e-9
-0.189, 2.261e-9
-0.188, 2.015e-9
-0.187, 2.194e-9
-0.186, 2.236e-9
-0.185, 1.984e-9
-0.184, 2.020e-9
-0.183, 2.209e-9
-0.182, 1.982e-9
-0.181, 1.889e-9
-0.180, 2.093e-9
-0.179, 2.021e-9
-0.178, 1.791e-9
-0.177, 1.960e-9
-0.176, 2.017e-9
-0.175, 1.780e-9
-0.174, 1.803e-9
-0.173, 2.000e-9
-0.172, 1.774e-9
-0.171, 1.692e-9
-0.170, 1.902e-9
-0.169, 1.815e-9
-0.168, 1.602e-9
-0.167, 1.781e-9
-0.166, 1.816e-9
-0.165, 1.599e-9
-0.164, 1.615e-9
-0.163, 1.815e-9
-0.162, 1.613e-9
-0.161, 1.502e-9
-0.160, 1.729e-9
-0.159, 1.657e-9
-0.158, 1.421e-9
-0.157, 1.619e-9
-0.156, 1.660e-9
-0.155, 1.432e-9
-0.154, 1.459e-9
-0.153, 1.648e-9
-0.152, 1.446e-9
-0.151, 1.356e-9
-0.150, 1.562e-9
-0.149, 1.502e-9
-0.148, 1.278e-9
-0.147, 1.460e-9
-0.146, 1.515e-9
-0.145, 1.271e-9
-0.144, 1.316e-9
-0.143, 1.515e-9
-0.142, 1.294e-9
-0.141, 1.217e-9
-0.140, 1.419e-9
-0.139, 1.358e-9
-0.138, 1.141e-9
-0.137, 1.315e-9
-0.136, 1.373e-9
-0.135, 1.147e-9
-0.134, 1.174e-9
-0.133, 1.376e-9
-0.132, 1.163e-9
-0.131, 1.082e-9
-0.130, 1.296e-9
-0.129, 1.224e-9
-0.128, 1.003e-9
-0.127, 1.197e-9
-0.126, 1.236e-9
-0.125, 1.015e-9
-0.124, 1.049e-9
-0.123, 1.244e-9
-0.122, 1.042e-9
-0.121, 9.427e-10
-0.120, 1.173e-9
-0.119, 1.106e-9
-0.118, 8.707e-10
-0.117, 1.069e-9
-0.116, 1.116e-9
-0.115, 8.813e-10
-0.114, 9.302e-10
-0.113, 1.110e-9
-0.112, 9.146e-10
-0.111, 8.216e-10
-0.110, 1.037e-9
-0.109, 9.796e-10
-0.108, 7.430e-10
-0.107, 9.391e-10
-0.106, 9.994e-10
-0.105, 7.488e-10
-0.104, 7.981e-10
-0.103, 9.829e-10
-0.102, 7.690e-10
-0.101, 6.969e-10
-0.100, 9.040e-10
-0.099, 8.387e-10
-0.098, 6.237e-10
-0.097, 7.942e-10
-0.096, 8.557e-10
-0.095, 6.200e-10
-0.094, 6.511e-10
-0.093, 8.532e-10
-0.092, 6.395e-10
-0.091, 5.502e-10
-0.090, 7.717e-10
-0.089, 6.904e-10
-0.088, 4.736e-10
-0.087, 6.595e-10
-0.086, 7.031e-10
-0.085, 4.728e-10
-0.084, 5.048e-10
-0.083, 6.925e-10
-0.082, 4.848e-10
-0.081, 3.802e-10
-0.080, 6.122e-10
-0.079, 5.332e-10
-0.078, 3.013e-10
-0.077, 4.819e-10
-0.076, 5.236e-10
-0.075, 2.860e-10
-0.074, 3.305e-10
-0.073, 5.006e-10
-0.072, 3.002e-10
-0.071, 2.018e-10
-0.070, 4.044e-10
-0.069, 3.374e-10
-0.068, 9.857e-11
-0.067, 2.818e-10
-0.066, 3.260e-10
-0.065, 6.815e-11
-0.064, 1.066e-10
-0.063, 2.830e-10
-0.062, 6.312e-11
-0.061, -3.276e-11
-0.060, 1.612e-10
-0.059, 7.986e-11
-0.058, -1.421e-10
-0.057, 7.305e-12
-0.056, 5.929e-11
-0.055, -1.975e-10
-0.054, -1.772e-10
-0.053, -1.032e-11
-0.052, -2.388e-10
-0.051, -3.504e-10
-0.050, -1.406e-10
-0.049, -2.568e-10
-0.048, -4.871e-10
-0.047, -3.320e-10
-0.046, -3.116e-10
-0.045, -5.659e-10
-0.044, -5.588e-10
-0.043, -4.113e-10
-0.042, -6.320e-10
-0.041, -7.713e-10
-0.040, -5.743e-10
-0.039, -7.051e-10
-0.038, -9.512e-10
-0.037, -8.083e-10
-0.036, -8.050e-10
-0.035, -1.082e-9
-0.034, -1.073e-9
-0.033, -9.595e-10
-0.032, -1.189e-9
-0.031, -1.346e-9
-0.030, -1.182e-9
-0.029, -1.311e-9
-0.028, -1.593e-9
-0.027, -1.476e-9
-0.026, -1.484e-9
-0.025, -1.806e-9
-0.024, -1.816e-9
-0.023, -1.718e-9
-0.022, -1.991e-9
-0.021, -2.169e-9
-0.020, -2.029e-9
-0.019, -2.204e-9
-0.018, -2.489e-9
-0.017, -2.432e-9
-0.016, -2.451e-9
-0.015, -2.805e-9
-0.014, -2.866e-9
-0.013, -2.807e-9
-0.012, -3.117e-9
-0.011, -3.332e-9
-0.010, -3.234e-9
-0.009, -3.463e-9
-0.008, -3.781e-9
-0.007, -3.766e-9
-0.006, -3.848e-9
-0.005, -4.238e-9
-0.004, -4.354e-9
-0.003, -4.348e-9
-0.002, -4.712e-9
-0.001, -4.995e-9
-0.000, -5.033e-9
0.001, -5.270e-9
0.002, -5.662e-9
0.003, -5.677e-9
0.004, -5.868e-9
0.005, -6.317e-9
0.006, -6.488e-9
0.007, -6.588e-9
0.008, -7.013e-9
0.009, -7.388e-9
0.010, -7.422e-9
0.011, -7.803e-9
0.012, -8.296e-9
0.013, -8.424e-9
0.014, -8.681e-9
0.015, -9.256e-9
0.016, -9.513e-9
0.017, -9.719e-9
0.018, -1.026e-8
0.019, -1.072e-8
0.020, -1.089e-8
0.021, -1.138e-8
0.022, -1.197e-8
0.023, -1.227e-8
0.024, -1.262e-8
0.025, -1.332e-8
0.026, -1.375e-8
0.027, -1.407e-8
0.028, -1.479e-8
0.029, -1.537e-8
0.030, -1.569e-8
0.031, -1.638e-8
0.032, -1.706e-8
0.033, -1.754e-8
0.034, -1.810e-8
0.035, -1.892e-8
0.036, -1.951e-8
0.037, -2.002e-8
0.038, -2.089e-8
0.039, -2.169e-8
0.040, -2.218e-8
0.041, -2.303e-8
0.042, -2.395e-8
0.043, -2.458e-8
0.044, -2.536e-8
0.045, -2.637e-8
0.046, -2.716e-8
0.047, -2.791e-8
0.048, -2.892e-8
0.049, -2.995e-8
0.050, -3.066e-8
0.051, -3.173e-8
0.052, -3.287e-8
0.053, -3.370e-8
0.054, -3.465e-8
0.055, -3.591e-8
0.056, -3.685e-8
0.057, -3.783e-8
0.058, -3.907e-8
0.059, -4.026e-8
0.060, -4.122e-8
0.061, -4.242e-8
0.062, -4.372e-8
0.063, -4.482e-8
0.064, -4.593e-8
0.065, -4.735e-8
0.066, -4.854e-8
0.067, -4.962e-8
0.068, -5.105e-8
0.069, -5.229e-8
0.070, -5.340e-8
0.071, -5.483e-8
0.072, -5.616e-8
0.073, -5.739e-8
0.074, -5.860e-8
0.075, -6.005e-8
0.076, -6.137e-8
0.077, -6.251e-8
0.078, -6.397e-8
0.079, -6.535e-8
0.080, -6.636e-8
0.081, -6.782e-8
0.082, -6.917e-8
0.083, -7.030e-8
0.084, -7.159e-8
0.085, -7.295e-8
0.086, -7.409e-8
0.087, -7.523e-8
0.088, -7.653e-8
0.089, -7.781e-8
0.090, -7.879e-8
0.091, -7.999e-8
0.092, -8.128e-8
0.093, -8.213e-8
0.094, -8.317e-8
0.095, -8.444e-8
0.096, -8.529e-8
0.097, -8.618e-8
0.098, -8.726e-8
0.099, -8.819e-8
0.100, -8.894e-8
0.101, -8.982e-8
0.102, -9.079e-8
0.103, -9.144e-8
0.104, -9.212e-8
0.105, -9.298e-8
0.106, -9.355e-8
0.107, -9.405e-8
0.108, -9.485e-8
0.109, -9.538e-8
0.110, -9.570e-8
0.111, -9.629e-8
0.112, -9.679e-8
0.113, -9.709e-8
0.114, -9.742e-8
0.115, -9.788e-8
0.116, -9.815e-8
0.117, -9.821e-8
0.118, -9.859e-8
0.119, -9.885e-8
0.120, -9.873e-8
0.121, -9.900e-8
0.122, -9.919e-8
0.123, -9.906e-8
0.124, -9.911e-8
0.125, -9.923e-8
0.126, -9.910e-8
0.127, -9.894e-8
0.128, -9.898e-8
0.129, -9.894e-8
0.130, -9.859e-8
0.131, -9.848e-8
0.132, -9.845e-8
0.133, -9.806e-8
0.134, -9.778e-8
0.135, -9.774e-8
0.136, -9.739e-8
0.137, -9.695e-8
0.138, -9.680e-8
0.139, -9.653e-8
0.140, -9.601e-8
0.141, -9.575e-8
0.142, -9.551e-8
0.143, -9.501e-8
0.144, -9.454e-8
0.145, -9.434e-8
0.146, -9.387e-8
0.147, -9.328e-8
0.148, -9.306e-8
0.149, -9.266e-8
0.150, -9.202e-8
0.151, -9.168e-8
0.152, -9.136e-8
0.153, -9.078e-8
0.154, -9.026e-8
0.155, -9.000e-8
0.156, -8.951e-8
0.157, -8.885e-8
0.158, -8.857e-8
0.159, -8.818e-8
0.160, -8.748e-8
0.161, -8.710e-8
0.162, -8.682e-8
0.163, -8.614e-8
0.164, -8.566e-8
0.165, -8.537e-8
0.166, -8.487e-8
0.167, -8.425e-8
0.168, -8.395e-8
0.169, -8.357e-8
0.170, -8.289e-8
0.171, -8.253e-8
0.172, -8.226e-8
0.173, -8.163e-8
0.174, -8.114e-8
0.175, -8.093e-8
0.176, -8.042e-8
0.177, -7.983e-8
0.178, -7.959e-8
0.179, -7.923e-8
0.180, -7.861e-8
0.181, -7.825e-8
0.182, -7.803e-8
0.183, -7.745e-8
0.184, -7.697e-8
0.185, -7.680e-8
0.186, -7.635e-8
0.187, -7.578e-8
0.188, -7.560e-8
0.189, -7.527e-8
0.190, -7.468e-8
0.191, -7.440e-8
0.192, -7.422e-8
0.193, -7.367e-8
0.194, -7.328e-8
0.195, -7.313e-8
0.196, -7.273e-8
0.197, -7.220e-8
0.198, -7.206e-8
0.199, -7.180e-8
0.200, -7.124e-8
0.201, -7.099e-8
0.202, -7.088e-8
0.203, -7.035e-8
0.204, -7.001e-8
0.205, -6.992e-8
0.206, -6.955e-8
0.207, -6.907e-8
0.208, -6.896e-8
0.209, -6.875e-8
0.210, -6.825e-8
0.211, -6.802e-8
0.212, -6.796e-8
0.213, -6.748e-8
0.214, -6.716e-8
0.215, -6.712e-8
0.216, -6.679e-8
0.217, -6.636e-8
0.218, -6.631e-8
0.219, -6.610e-8
0.220, -6.565e-8
0.221, -6.546e-8
0.222, -6.542e-8
0.223, -6.500e-8
0.224, -6.470e-8
0.225, -6.469e-8
0.226, -6.441e-8
0.227, -6.399e-8
0.228, -6.398e-8
0.229, -6.381e-8
0.230, -6.339e-8
0.231, -6.325e-8
0.232, -6.323e-8
0.233, -6.282e-8
0.234, -6.259e-8
0.235, -6.259e-8
0.236, -6.234e-8
0.237, -6.194e-8
0.238, -6.195e-8
0.239, -6.184e-8
0.240, -6.143e-8
0.241, -6.130e-8
0.242, -6.133e-8
0.243, -6.094e-8
0.244, -6.072e-8
0.245, -6.076e-8
0.246, -6.053e-8
0.247, -6.018e-8
0.248, -6.021e-8
0.249, -6.011e-8
0.250, -5.973e-8
0.251, -5.963e-8
0.252, -5.968e-8
0.253, -5.931e-8
0.254, -5.911e-8
0.255, -5.919e-8
0.256, -5.897e-8
0.257, -5.864e-8
0.258, -5.869e-8
0.259, -5.861e-8
0.260, -5.825e-8
0.261, -5.817e-8
0.262, -5.824e-8
0.263, -5.790e-8
0.264, -5.772e-8
0.265, -5.779e-8
0.266, -5.762e-8
0.267, -5.728e-8
0.268, -5.736e-8
0.269, -5.729e-8
0.270, -5.694e-8
0.271, -5.690e-8
0.272, -5.697e-8
0.273, -5.664e-8
0.274, -5.649e-8
0.275, -5.657e-8
0.276, -5.641e-8
0.277, -5.610e-8
0.278, -5.618e-8
0.279, -5.615e-8
0.280, -5.580e-8
0.281, -5.577e-8
0.282, -5.587e-8
0.283, -5.554e-8
0.284, -5.540e-8
0.285, -5.551e-8
0.286, -5.535e-8
0.287, -5.506e-8
0.288, -5.515e-8
0.289, -5.512e-8
0.290, -5.481e-8
0.291, -5.477e-8
0.292, -5.489e-8
0.293, -5.458e-8
0.294, -5.443e-8
0.295, -5.458e-8
0.296, -5.441e-8
0.297, -5.412e-8
0.298, -5.425e-8
0.299, -5.421e-8
0.300, -5.228e-8
0.299, -5.109e-8
0.298, -5.100e-8
0.297, -5.057e-8
0.296, -5.032e-8
0.295, -5.035e-8
0.294, -5.011e-8
0.293, -4.976e-8
0.292, -4.978e-8
0.291, -4.970e-8
0.290, -4.933e-8
0.289, -4.924e-8
0.288, -4.932e-8
0.287, -4.897e-8
0.286, -4.879e-8
0.285, -4.888e-8
0.284, -4.867e-8
0.283, -4.837e-8
0.282, -4.844e-8
0.281, -4.837e-8
0.280, -4.804e-8
0.279, -4.798e-8
0.278, -4.807e-8
0.277, -4.774e-8
0.276, -4.757e-8
0.275, -4.769e-8
0.274, -4.750e-8
0.273, -4.719e-8
0.272, -4.729e-8
0.271, -4.723e-8
0.270, -4.690e-8
0.269, -4.686e-8
0.268, -4.695e-8
0.267, -4.665e-8
0.266, -4.648e-8
0.265, -4.660e-8
0.264, -4.644e-8
0.263, -4.613e-8
0.262, -4.623e-8
0.261, -4.619e-8
0.260, -4.585e-8
0.259, -4.583e-8
0.258, -4.593e-8
0.257, -4.562e-8
0.256, -4.547e-8
0.255, -4.559e-8
0.254, -4.543e-8
0.253, -4.513e-8
0.252, -4.522e-8
0.251, -4.520e-8
0.250, -4.487e-8
0.249, -4.484e-8
0.248, -4.494e-8
0.247, -4.463e-8
0.246, -4.449e-8
0.245, -4.462e-8
0.244, -4.443e-8
0.243, -4.416e-8
0.242, -4.426e-8
0.241, -4.421e-8
0.240, -4.389e-8
0.239, -4.385e-8
0.238, -4.396e-8
0.237, -4.365e-8
0.236, -4.349e-8
0.235, -4.361e-8
0.234, -4.344e-8
0.233, -4.314e-8
0.232, -4.323e-8
0.231, -4.318e-8
0.230, -4.285e-8
0.229, -4.282e-8
0.228, -4.289e-8
0.227, -4.259e-8
0.226, -4.242e-8
0.225, -4.251e-8
0.224, -4.234e-8
0.223, -4.202e-8
0.222, -4.211e-8
0.221, -4.205e-8
0.220, -4.168e-8
0.219, -4.164e-8
0.218, -4.170e-8
0.217, -4.136e-8
0.216, -4.120e-8
0.215, -4.127e-8
0.214, -4.108e-8
0.213, -4.075e-8
0.212, -4.079e-8
0.211, -4.072e-8
0.210, -4.035e-8
0.209, -4.026e-8
0.208, -4.031e-8
0.207, -3.994e-8
0.206, -3.974e-8
0.205, -3.978e-8
0.204, -3.954e-8
0.203, -3.920e-8
0.202, -3.922e-8
0.201, -3.908e-8
0.200, -3.869e-8
0.199, -3.856e-8
0.198, -3.856e-8
0.197, -3.816e-8
0.196, -3.790e-8
0.195, -3.792e-8
0.194, -3.764e-8
0.193, -3.722e-8
0.192, -3.720e-8
0.191, -3.703e-8
0.190, -3.657e-8
0.189, -3.640e-8
0.188, -3.632e-8
0.187, -3.589e-8
0.186, -3.557e-8
0.185, -3.550e-8
0.184, -3.516e-8
0.183, -3.469e-8
0.182, -3.459e-8
0.181, -3.434e-8
0.180, -3.378e-8
0.179, -3.355e-8
0.178, -3.340e-8
0.177, -3.284e-8
0.176, -3.248e-8
0.175, -3.230e-8
0.174, -3.187e-8
0.173, -3.131e-8
0.172, -3.108e-8
0.171, -3.074e-8
0.170, -3.008e-8
0.169, -2.972e-8
0.168, -2.946e-8
0.167, -2.879e-8
0.166, -2.828e-8
0.165, -2.800e-8
0.164, -2.741e-8
0.163, -2.676e-8
0.162, -2.640e-8
0.161, -2.588e-8
0.160, -2.513e-8
0.159, -2.460e-8
0.158, -2.420e-8
0.157, -2.340e-8
0.156, -2.271e-8
0.155, -2.227e-8
0.154, -2.152e-8
0.153, -2.065e-8
0.152, -2.016e-8
0.151, -1.946e-8
0.150, -1.854e-8
0.149, -1.787e-8
0.148, -1.722e-8
0.147, -1.629e-8
0.146, -1.541e-8
0.145, -1.475e-8
0.144, -1.385e-8
0.143, -1.278e-8
0.142, -1.209e-8
0.141, -1.119e-8
0.140, -1.001e-8
0.139, -9.191e-9
0.138, -8.357e-9
0.137, -7.144e-9
0.136, -6.146e-9
0.135, -5.219e-9
0.134, -4.138e-9
0.133, -2.926e-9
0.132, -1.945e-9
0.131, -9.101e-10
0.130, 4.508e-10
0.129, 1.540e-9
0.128, 2.546e-9
0.127, 3.943e-9
0.126, 5.122e-9
0.125, 6.180e-9
0.124, 7.515e-9
0.123, 8.858e-9
0.122, 9.970e-9
0.121, 1.119e-8
0.120, 1.267e-8
0.119, 1.388e-8
0.118, 1.500e-8
0.117, 1.649e-8
0.116, 1.785e-8
0.115, 1.899e-8
0.114, 2.037e-8
0.113, 2.183e-8
0.112, 2.292e-8
0.111, 2.429e-8
0.110, 2.579e-8
0.109, 2.695e-8
0.108, 2.821e-8
0.107, 2.960e-8
0.106, 3.092e-8
0.105, 3.206e-8
0.104, 3.338e-8
0.103, 3.479e-8
0.102, 3.587e-8
0.101, 3.704e-8
0.100, 3.844e-8
0.099, 3.944e-8
0.098, 4.055e-8
0.097, 4.183e-8
0.096, 4.287e-8
0.095, 4.392e-8
0.094, 4.496e-8
0.093, 4.613e-8
0.092, 4.696e-8
0.091, 4.788e-8
0.090, 4.903e-8
0.089, 4.984e-8
0.088, 5.056e-8
0.087, 5.161e-8
0.086, 5.232e-8
0.085, 5.298e-8
0.084, 5.380e-8
0.083, 5.456e-8
0.082, 5.509e-8
0.081, 5.567e-8
0.080, 5.639e-8
0.079, 5.690e-8
0.078, 5.724e-8
0.077, 5.789e-8
0.076, 5.836e-8
0.075, 5.855e-8
0.074, 5.900e-8
0.073, 5.944e-8
0.072, 5.950e-8
0.071, 5.979e-8
0.070, 6.015e-8
0.069, 6.023e-8
0.068, 6.031e-8
0.067, 6.053e-8
0.066, 6.067e-8
0.065, 6.054e-8
0.064, 6.064e-8
0.063, 6.083e-8
0.062, 6.054e-8
0.061, 6.046e-8
0.060, 6.063e-8
0.059, 6.037e-8
0.058, 6.010e-8
0.057, 6.015e-8
0.056, 5.995e-8
0.055, 5.962e-8
0.054, 5.945e-8
0.053, 5.937e-8
0.052, 5.898e-8
0.051, 5.864e-8
0.050, 5.857e-8
0.049, 5.817e-8
0.048, 5.768e-8
0.047, 5.757e-8
0.046, 5.724e-8
0.045, 5.668e-8
0.044, 5.643e-8
0.043, 5.618e-8
0.042, 5.563e-8
0.041, 5.520e-8
0.040, 5.500e-8
0.039, 5.455e-8
0.038, 5.396e-8
0.037, 5.374e-8
0.036, 5.336e-8
0.035, 5.271e-8
0.034, 5.239e-8
0.033, 5.213e-8
0.032, 5.147e-8
0.031, 5.104e-8
0.030, 5.080e-8
0.029, 5.027e-8
0.028, 4.970e-8
0.027, 4.944e-8
0.026, 4.906e-8
0.025, 4.841e-8
0.024, 4.805e-8
0.023, 4.780e-8
0.022, 4.716e-8
0.021, 4.668e-8
0.020, 4.650e-8
0.019, 4.595e-8
0.018, 4.538e-8
0.017, 4.517e-8
0.016, 4.477e-8
0.015, 4.418e-8
0.014, 4.383e-8
0.013, 4.360e-8
0.012, 4.303e-8
0.011, 4.257e-8
0.010, 4.239e-8
0.009, 4.192e-8
0.008, 4.135e-8
0.007, 4.118e-8
0.006, 4.084e-8
0.005, 4.024e-8
0.004, 3.997e-8
0.003, 3.975e-8
0.002, 3.922e-8
0.001, 3.881e-8
0.000, 3.876e-8
-0.001, 3.827e-8
-0.002, 3.775e-8
-0.003, 3.760e-8
-0.004, 3.731e-8
-0.005, 3.675e-8
-0.006, 3.651e-8
-0.007, 3.637e-8
-0.008, 3.585e-8
-0.009, 3.551e-8
-0.010, 3.540e-8
-0.011, 3.502e-8
-0.012, 3.455e-8
-0.013, 3.445e-8
-0.014, 3.420e-8
-0.015, 3.371e-8
-0.016, 3.349e-8
-0.017, 3.340e-8
-0.018, 3.293e-8
-0.019, 3.260e-8
-0.020, 3.257e-8
-0.021, 3.221e-8
-0.022, 3.176e-8
-0.023, 3.173e-8
-0.024, 3.150e-8
-0.025, 3.105e-8
-0.026, 3.088e-8
-0.027, 3.081e-8
-0.028, 3.039e-8
-0.029, 3.009e-8
-0.030, 3.010e-8
-0.031, 2.980e-8
-0.032, 2.937e-8
-0.033, 2.938e-8
-0.034, 2.920e-8
-0.035, 2.876e-8
-0.036, 2.865e-8
-0.037, 2.861e-8
-0.038, 2.820e-8
-0.039, 2.796e-8
-0.040, 2.798e-8
-0.041, 2.772e-8
-0.042, 2.733e-8
-0.043, 2.735e-8
-0.044, 2.722e-8
-0.045, 2.679e-8
-0.046, 2.670e-8
-0.047, 2.671e-8
-0.048, 2.633e-8
-0.049, 2.610e-8
-0.050, 2.617e-8
-0.051, 2.591e-8
-0.052, 2.557e-8
-0.053, 2.560e-8
-0.054, 2.548e-8
-0.055, 2.512e-8
-0.056, 2.503e-8
-0.057, 2.506e-8
-0.058, 2.471e-8
-0.059, 2.450e-8
-0.060, 2.459e-8
-0.061, 2.435e-8
-0.062, 2.402e-8
-0.063, 2.409e-8
-0.064, 2.399e-8
-0.065, 2.364e-8
-0.066, 2.358e-8
-0.067, 2.362e-8
-0.068, 2.330e-8
-0.069, 2.311e-8
-0.070, 2.321e-8
-0.071, 2.301e-8
-0.072, 2.268e-8
-0.073, 2.278e-8
-0.074, 2.270e-8
-0.075, 2.236e-8
-0.076, 2.233e-8
-0.077, 2.238e-8
-0.078, 2.206e-8
-0.079, 2.191e-8
-0.080, 2.202e-8
-0.081, 2.183e-8
-0.082, 2.154e-8
-0.083, 2.163e-8
-0.084, 2.158e-8
-0.085, 2.123e-8
-0.086, 2.122e-8
-0.087, 2.131e-8
-0.088, 2.099e-8
-0.089, 2.085e-8
-0.090, 2.098e-8
-0.091, 2.080e-8
-0.092, 2.053e-8
-0.093, 2.063e-8
-0.094, 2.057e-8
-0.095, 2.027e-8
-0.096, 2.025e-8
-0.097, 2.035e-8
-0.098, 2.006e-8
-0.099, 1.991e-8
-0.100, 2.007e-8
-0.101, 1.989e-8
-0.102, 1.962e-8
-0.103, 1.976e-8
-0.104, 1.970e-8
-0.105, 1.941e-8
-0.106, 1.941e-8
-0.107, 1.950e-8
-0.108, 1.923e-8
-0.109, 1.909e-8
-0.110, 1.926e-8
-0.111, 1.910e-8
-0.112, 1.882e-8
-0.113, 1.897e-8
-0.114, 1.894e-8
-0.115, 1.864e-8
-0.116, 1.867e-8
-0.117, 1.876e-8
-0.118, 1.848e-8
-0.119, 1.839e-8
-0.120, 1.853e-8
-0.121, 1.838e-8
-0.122, 1.813e-8
-0.123, 1.828e-8
-0.124, 1.826e-8
-0.125, 1.796e-8
-0.126, 1.799e-8
-0.127, 1.811e-8
-0.128, 1.784e-8
-0.129, 1.774e-8
-0.130, 1.791e-8
-0.131, 1.775e-8
-0.132, 1.752e-8
-0.133, 1.766e-8
-0.134, 1.765e-8
-0.135, 1.738e-8
-0.136, 1.739e-8
-0.137, 1.753e-8
-0.138, 1.726e-8
-0.139, 1.716e-8
-0.140, 1.736e-8
-0.141, 1.719e-8
-0.142, 1.696e-8
-0.143, 1.712e-8
-0.144, 1.710e-8
-0.145, 1.684e-8
-0.146, 1.687e-8
-0.147, 1.699e-8
-0.148, 1.676e-8
-0.149, 1.665e-8
-0.150, 1.684e-8
-0.151, 1.670e-8
-0.152, 1.647e-8
-0.153, 1.665e-8
-0.154, 1.663e-8
-0.155, 1.636e-8
-0.156, 1.642e-8
-0.157, 1.654e-8
-0.158, 1.629e-8
-0.159, 1.621e-8
-0.160, 1.638e-8
-0.161, 1.626e-8
-0.162, 1.603e-8
-0.163, 1.619e-8
-0.164, 1.622e-8
-0.165, 1.593e-8
-0.166, 1.599e-8
-0.167, 1.613e-8
-0.168, 1.588e-8
-0.169, 1.580e-8
-0.170, 1.600e-8
-0.171, 1.586e-8
-0.172, 1.566e-8
-0.173, 1.582e-8
-0.174, 1.584e-8
-0.175, 1.557e-8
-0.176, 1.563e-8
-0.177, 1.577e-8
-0.178, 1.554e-8
-0.179, 1.546e-8
-0.180, 1.567e-8
-0.181, 1.552e-8
-0.182, 1.531e-8
-0.183, 1.550e-8
-0.184, 1.551e-8
-0.185, 1.526e-8
-0.186, 1.532e-8
-0.187, 1.546e-8
-0.188, 1.524e-8
-0.189, 1.514e-8
-0.190, 1.536e-8
-0.191, 1.525e-8
-0.192, 1.504e-8
-0.193, 1.522e-8
-0.194, 1.524e-8
-0.195, 1.498e-8
-0.196, 1.506e-8
-0.197, 1.519e-8
-0.198, 1.497e-8
-0.199, 1.491e-8
