Mar. 16, 2023   10:10:03
Cyclic Voltammetry
File: c:/users/oliverrz/desktop/electrolab/data/2023_03_16\fcmeoh_macros_1_mm\electrode2_cv_250mvs_1_mm.bin
Data Source:  Experiment
Instrument Model:  CHI760E
Header: CV
Note: 

Init E (V) = -0.2
High E (V) = 0.3
Low E (V) = -0.2
Final E (V) = -0.2
Init P/N = P
Scan Rate (V/s) = 0.25
Segment = 3
Sample Interval (V) = 0.001
Quiet Time (sec) = 2
Sensitivity (A/V) = 1e-7

Results:

Channel 1:
Segment 1:
Ep = 0.126V
ip = -1.061e-7A
Ah = -2.630e-8C

Segment 2:
Ep = 0.064V
ip = 9.513e-8A
Ah = 2.363e-8C

Segment 3:

Potential/V, Current/A

-0.200, 6.498e-9
-0.199, 4.775e-9
-0.198, 4.622e-9
-0.197, 4.622e-9
-0.196, 4.314e-9
-0.195, 4.068e-9
-0.194, 4.037e-9
-0.193, 4.099e-9
-0.192, 3.914e-9
-0.191, 3.637e-9
-0.190, 3.606e-9
-0.189, 3.791e-9
-0.188, 3.606e-9
-0.187, 3.360e-9
-0.186, 3.299e-9
-0.185, 3.422e-9
-0.184, 3.391e-9
-0.183, 3.114e-9
-0.182, 3.022e-9
-0.181, 3.176e-9
-0.180, 3.114e-9
-0.179, 2.929e-9
-0.178, 2.745e-9
-0.177, 2.868e-9
-0.176, 2.929e-9
-0.175, 2.714e-9
-0.174, 2.560e-9
-0.173, 2.622e-9
-0.172, 2.714e-9
-0.171, 2.560e-9
-0.170, 2.345e-9
-0.169, 2.406e-9
-0.168, 2.530e-9
-0.167, 2.376e-9
-0.166, 2.160e-9
-0.165, 2.160e-9
-0.164, 2.283e-9
-0.163, 2.222e-9
-0.162, 2.007e-9
-0.161, 1.945e-9
-0.160, 2.130e-9
-0.159, 2.037e-9
-0.158, 1.822e-9
-0.157, 1.760e-9
-0.156, 1.883e-9
-0.155, 1.914e-9
-0.154, 1.699e-9
-0.153, 1.545e-9
-0.152, 1.699e-9
-0.151, 1.760e-9
-0.150, 1.545e-9
-0.149, 1.422e-9
-0.148, 1.453e-9
-0.147, 1.637e-9
-0.146, 1.422e-9
-0.145, 1.207e-9
-0.144, 1.299e-9
-0.143, 1.422e-9
-0.142, 1.299e-9
-0.141, 1.114e-9
-0.140, 1.084e-9
-0.139, 1.299e-9
-0.138, 1.176e-9
-0.137, 9.605e-10
-0.136, 9.605e-10
-0.135, 1.084e-9
-0.134, 1.053e-9
-0.133, 8.682e-10
-0.132, 7.452e-10
-0.131, 9.298e-10
-0.130, 9.298e-10
-0.129, 7.452e-10
-0.128, 6.221e-10
-0.127, 7.759e-10
-0.126, 8.067e-10
-0.125, 6.221e-10
-0.124, 4.683e-10
-0.123, 5.913e-10
-0.122, 6.836e-10
-0.121, 5.298e-10
-0.120, 3.452e-10
-0.119, 4.068e-10
-0.118, 5.298e-10
-0.117, 4.375e-10
-0.116, 1.914e-10
-0.115, 2.222e-10
-0.114, 4.375e-10
-0.113, 3.145e-10
-0.112, 1.299e-10
-0.111, 6.834e-11
-0.110, 2.529e-10
-0.109, 2.529e-10
-0.108, 6.813e-12
-0.107, -2.395e-11
-0.106, 9.911e-11
-0.105, 9.911e-11
-0.104, -5.472e-11
-0.103, -2.085e-10
-0.102, -5.472e-11
-0.101, 6.813e-12
-0.100, -2.085e-10
-0.099, -3.008e-10
-0.098, -2.085e-10
-0.097, -8.548e-11
-0.096, -2.393e-10
-0.095, -4.547e-10
-0.094, -3.624e-10
-0.093, -2.085e-10
-0.092, -3.624e-10
-0.091, -5.470e-10
-0.090, -5.470e-10
-0.089, -3.624e-10
-0.088, -4.239e-10
-0.087, -6.393e-10
-0.086, -6.700e-10
-0.085, -4.854e-10
-0.084, -5.470e-10
-0.083, -7.315e-10
-0.082, -7.931e-10
-0.081, -6.700e-10
-0.080, -6.393e-10
-0.079, -8.546e-10
-0.078, -9.777e-10
-0.077, -7.931e-10
-0.076, -7.931e-10
-0.075, -9.469e-10
-0.074, -1.070e-9
-0.073, -1.008e-9
-0.072, -8.546e-10
-0.071, -1.039e-9
-0.070, -1.255e-9
-0.069, -1.131e-9
-0.068, -1.039e-9
-0.067, -1.131e-9
-0.066, -1.347e-9
-0.065, -1.347e-9
-0.064, -1.162e-9
-0.063, -1.285e-9
-0.062, -1.470e-9
-0.061, -1.501e-9
-0.060, -1.378e-9
-0.059, -1.378e-9
-0.058, -1.624e-9
-0.057, -1.685e-9
-0.056, -1.501e-9
-0.055, -1.593e-9
-0.054, -1.747e-9
-0.053, -1.901e-9
-0.052, -1.778e-9
-0.051, -1.747e-9
-0.050, -1.931e-9
-0.049, -2.085e-9
-0.048, -1.993e-9
-0.047, -1.931e-9
-0.046, -2.085e-9
-0.045, -2.301e-9
-0.044, -2.239e-9
-0.043, -2.147e-9
-0.042, -2.270e-9
-0.041, -2.516e-9
-0.040, -2.516e-9
-0.039, -2.393e-9
-0.038, -2.516e-9
-0.037, -2.762e-9
-0.036, -2.824e-9
-0.035, -2.701e-9
-0.034, -2.762e-9
-0.033, -3.039e-9
-0.032, -3.100e-9
-0.031, -3.008e-9
-0.030, -3.070e-9
-0.029, -3.285e-9
-0.028, -3.500e-9
-0.027, -3.377e-9
-0.026, -3.377e-9
-0.025, -3.654e-9
-0.024, -3.839e-9
-0.023, -3.839e-9
-0.022, -3.777e-9
-0.021, -4.023e-9
-0.020, -4.300e-9
-0.019, -4.270e-9
-0.018, -4.239e-9
-0.017, -4.485e-9
-0.016, -4.731e-9
-0.015, -4.854e-9
-0.014, -4.762e-9
-0.013, -4.977e-9
-0.012, -5.316e-9
-0.011, -5.408e-9
-0.010, -5.408e-9
-0.009, -5.562e-9
-0.008, -5.900e-9
-0.007, -6.115e-9
-0.006, -6.085e-9
-0.005, -6.269e-9
-0.004, -6.608e-9
-0.003, -6.854e-9
-0.002, -6.885e-9
-0.001, -7.038e-9
-0.000, -7.561e-9
0.001, -7.777e-9
0.002, -7.869e-9
0.003, -7.961e-9
0.004, -8.361e-9
0.005, -8.761e-9
0.006, -8.884e-9
0.007, -9.038e-9
0.008, -9.407e-9
0.009, -9.869e-9
0.010, -1.015e-8
0.011, -1.021e-8
0.012, -1.067e-8
0.013, -1.113e-8
0.014, -1.147e-8
0.015, -1.168e-8
0.016, -1.199e-8
0.017, -1.264e-8
0.018, -1.301e-8
0.019, -1.322e-8
0.020, -1.368e-8
0.021, -1.424e-8
0.022, -1.479e-8
0.023, -1.507e-8
0.024, -1.547e-8
0.025, -1.618e-8
0.026, -1.679e-8
0.027, -1.716e-8
0.028, -1.762e-8
0.029, -1.824e-8
0.030, -1.907e-8
0.031, -1.953e-8
0.032, -1.999e-8
0.033, -2.076e-8
0.034, -2.153e-8
0.035, -2.217e-8
0.036, -2.270e-8
0.037, -2.347e-8
0.038, -2.439e-8
0.039, -2.513e-8
0.040, -2.571e-8
0.041, -2.664e-8
0.042, -2.756e-8
0.043, -2.839e-8
0.044, -2.913e-8
0.045, -2.999e-8
0.046, -3.110e-8
0.047, -3.211e-8
0.048, -3.285e-8
0.049, -3.387e-8
0.050, -3.500e-8
0.051, -3.608e-8
0.052, -3.707e-8
0.053, -3.799e-8
0.054, -3.922e-8
0.055, -4.054e-8
0.056, -4.146e-8
0.057, -4.263e-8
0.058, -4.386e-8
0.059, -4.516e-8
0.060, -4.645e-8
0.061, -4.743e-8
0.062, -4.888e-8
0.063, -5.026e-8
0.064, -5.152e-8
0.065, -5.279e-8
0.066, -5.414e-8
0.067, -5.562e-8
0.068, -5.703e-8
0.069, -5.820e-8
0.070, -5.968e-8
0.071, -6.118e-8
0.072, -6.260e-8
0.073, -6.398e-8
0.074, -6.534e-8
0.075, -6.691e-8
0.076, -6.848e-8
0.077, -6.980e-8
0.078, -7.118e-8
0.079, -7.278e-8
0.080, -7.423e-8
0.081, -7.564e-8
0.082, -7.697e-8
0.083, -7.851e-8
0.084, -8.001e-8
0.085, -8.137e-8
0.086, -8.263e-8
0.087, -8.414e-8
0.088, -8.549e-8
0.089, -8.700e-8
0.090, -8.807e-8
0.091, -8.949e-8
0.092, -9.087e-8
0.093, -9.204e-8
0.094, -9.318e-8
0.095, -9.447e-8
0.096, -9.558e-8
0.097, -9.693e-8
0.098, -9.783e-8
0.099, -9.884e-8
0.100, -1.001e-7
0.101, -1.010e-7
0.102, -1.020e-7
0.103, -1.029e-7
0.104, -1.038e-7
0.105, -1.048e-7
0.106, -1.054e-7
0.107, -1.061e-7
0.108, -1.070e-7
0.109, -1.076e-7
0.110, -1.083e-7
0.111, -1.087e-7
0.112, -1.094e-7
0.113, -1.101e-7
0.114, -1.104e-7
0.115, -1.107e-7
0.116, -1.112e-7
0.117, -1.116e-7
0.118, -1.119e-7
0.119, -1.121e-7
0.120, -1.123e-7
0.121, -1.126e-7
0.122, -1.127e-7
0.123, -1.127e-7
0.124, -1.128e-7
0.125, -1.129e-7
0.126, -1.130e-7
0.127, -1.129e-7
0.128, -1.127e-7
0.129, -1.128e-7
0.130, -1.128e-7
0.131, -1.125e-7
0.132, -1.123e-7
0.133, -1.121e-7
0.134, -1.120e-7
0.135, -1.117e-7
0.136, -1.112e-7
0.137, -1.111e-7
0.138, -1.109e-7
0.139, -1.105e-7
0.140, -1.100e-7
0.141, -1.097e-7
0.142, -1.094e-7
0.143, -1.090e-7
0.144, -1.084e-7
0.145, -1.080e-7
0.146, -1.077e-7
0.147, -1.073e-7
0.148, -1.067e-7
0.149, -1.061e-7
0.150, -1.059e-7
0.151, -1.054e-7
0.152, -1.047e-7
0.153, -1.042e-7
0.154, -1.038e-7
0.155, -1.034e-7
0.156, -1.028e-7
0.157, -1.021e-7
0.158, -1.017e-7
0.159, -1.014e-7
0.160, -1.007e-7
0.161, -1.001e-7
0.162, -9.961e-8
0.163, -9.921e-8
0.164, -9.866e-8
0.165, -9.795e-8
0.166, -9.749e-8
0.167, -9.718e-8
0.168, -9.660e-8
0.169, -9.592e-8
0.170, -9.543e-8
0.171, -9.503e-8
0.172, -9.463e-8
0.173, -9.386e-8
0.174, -9.333e-8
0.175, -9.303e-8
0.176, -9.253e-8
0.177, -9.198e-8
0.178, -9.137e-8
0.179, -9.100e-8
0.180, -9.069e-8
0.181, -9.007e-8
0.182, -8.946e-8
0.183, -8.915e-8
0.184, -8.878e-8
0.185, -8.829e-8
0.186, -8.767e-8
0.187, -8.730e-8
0.188, -8.703e-8
0.189, -8.650e-8
0.190, -8.592e-8
0.191, -8.558e-8
0.192, -8.527e-8
0.193, -8.490e-8
0.194, -8.429e-8
0.195, -8.389e-8
0.196, -8.367e-8
0.197, -8.331e-8
0.198, -8.275e-8
0.199, -8.235e-8
0.200, -8.207e-8
0.201, -8.183e-8
0.202, -8.131e-8
0.203, -8.084e-8
0.204, -8.063e-8
0.205, -8.044e-8
0.206, -7.995e-8
0.207, -7.949e-8
0.208, -7.921e-8
0.209, -7.906e-8
0.210, -7.866e-8
0.211, -7.811e-8
0.212, -7.795e-8
0.213, -7.774e-8
0.214, -7.740e-8
0.215, -7.694e-8
0.216, -7.666e-8
0.217, -7.657e-8
0.218, -7.626e-8
0.219, -7.577e-8
0.220, -7.552e-8
0.221, -7.537e-8
0.222, -7.518e-8
0.223, -7.469e-8
0.224, -7.435e-8
0.225, -7.429e-8
0.226, -7.414e-8
0.227, -7.368e-8
0.228, -7.337e-8
0.229, -7.321e-8
0.230, -7.312e-8
0.231, -7.278e-8
0.232, -7.238e-8
0.233, -7.226e-8
0.234, -7.220e-8
0.235, -7.186e-8
0.236, -7.149e-8
0.237, -7.134e-8
0.238, -7.131e-8
0.239, -7.103e-8
0.240, -7.060e-8
0.241, -7.048e-8
0.242, -7.045e-8
0.243, -7.023e-8
0.244, -6.983e-8
0.245, -6.961e-8
0.246, -6.958e-8
0.247, -6.949e-8
0.248, -6.906e-8
0.249, -6.885e-8
0.250, -6.885e-8
0.251, -6.872e-8
0.252, -6.841e-8
0.253, -6.811e-8
0.254, -6.808e-8
0.255, -6.808e-8
0.256, -6.777e-8
0.257, -6.746e-8
0.258, -6.740e-8
0.259, -6.737e-8
0.260, -6.718e-8
0.261, -6.678e-8
0.262, -6.672e-8
0.263, -6.678e-8
0.264, -6.654e-8
0.265, -6.623e-8
0.266, -6.614e-8
0.267, -6.617e-8
0.268, -6.602e-8
0.269, -6.565e-8
0.270, -6.555e-8
0.271, -6.558e-8
0.272, -6.546e-8
0.273, -6.518e-8
0.274, -6.500e-8
0.275, -6.500e-8
0.276, -6.500e-8
0.277, -6.469e-8
0.278, -6.445e-8
0.279, -6.448e-8
0.280, -6.448e-8
0.281, -6.426e-8
0.282, -6.398e-8
0.283, -6.395e-8
0.284, -6.405e-8
0.285, -6.383e-8
0.286, -6.355e-8
0.287, -6.352e-8
0.288, -6.355e-8
0.289, -6.343e-8
0.290, -6.312e-8
0.291, -6.303e-8
0.292, -6.315e-8
0.293, -6.303e-8
0.294, -6.272e-8
0.295, -6.266e-8
0.296, -6.269e-8
0.297, -6.266e-8
0.298, -6.235e-8
0.299, -6.220e-8
0.300, -5.971e-8
0.299, -5.635e-8
0.298, -5.555e-8
0.297, -5.497e-8
0.296, -5.476e-8
0.295, -5.451e-8
0.294, -5.405e-8
0.293, -5.365e-8
0.292, -5.349e-8
0.291, -5.337e-8
0.290, -5.303e-8
0.289, -5.263e-8
0.288, -5.251e-8
0.287, -5.242e-8
0.286, -5.220e-8
0.285, -5.180e-8
0.284, -5.165e-8
0.283, -5.165e-8
0.282, -5.143e-8
0.281, -5.106e-8
0.280, -5.091e-8
0.279, -5.088e-8
0.278, -5.076e-8
0.277, -5.042e-8
0.276, -5.017e-8
0.275, -5.020e-8
0.274, -5.014e-8
0.273, -4.980e-8
0.272, -4.959e-8
0.271, -4.952e-8
0.270, -4.952e-8
0.269, -4.925e-8
0.268, -4.897e-8
0.267, -4.897e-8
0.266, -4.894e-8
0.265, -4.873e-8
0.264, -4.842e-8
0.263, -4.836e-8
0.262, -4.839e-8
0.261, -4.823e-8
0.260, -4.786e-8
0.259, -4.780e-8
0.258, -4.783e-8
0.257, -4.771e-8
0.256, -4.737e-8
0.255, -4.725e-8
0.254, -4.731e-8
0.253, -4.722e-8
0.252, -4.688e-8
0.251, -4.676e-8
0.250, -4.676e-8
0.249, -4.673e-8
0.248, -4.645e-8
0.247, -4.620e-8
0.246, -4.623e-8
0.245, -4.623e-8
0.244, -4.596e-8
0.243, -4.571e-8
0.242, -4.568e-8
0.241, -4.571e-8
0.240, -4.553e-8
0.239, -4.516e-8
0.238, -4.516e-8
0.237, -4.522e-8
0.236, -4.500e-8
0.235, -4.469e-8
0.234, -4.460e-8
0.233, -4.466e-8
0.232, -4.454e-8
0.231, -4.417e-8
0.230, -4.408e-8
0.229, -4.411e-8
0.228, -4.399e-8
0.227, -4.368e-8
0.226, -4.350e-8
0.225, -4.353e-8
0.224, -4.346e-8
0.223, -4.313e-8
0.222, -4.291e-8
0.221, -4.291e-8
0.220, -4.288e-8
0.219, -4.260e-8
0.218, -4.230e-8
0.217, -4.226e-8
0.216, -4.226e-8
0.215, -4.199e-8
0.214, -4.168e-8
0.213, -4.162e-8
0.212, -4.156e-8
0.211, -4.137e-8
0.210, -4.100e-8
0.209, -4.088e-8
0.208, -4.088e-8
0.207, -4.063e-8
0.206, -4.026e-8
0.205, -4.011e-8
0.204, -4.002e-8
0.203, -3.993e-8
0.202, -3.950e-8
0.201, -3.925e-8
0.200, -3.919e-8
0.199, -3.903e-8
0.198, -3.866e-8
0.197, -3.833e-8
0.196, -3.820e-8
0.195, -3.814e-8
0.194, -3.771e-8
0.193, -3.731e-8
0.192, -3.716e-8
0.191, -3.700e-8
0.190, -3.667e-8
0.189, -3.623e-8
0.188, -3.599e-8
0.187, -3.590e-8
0.186, -3.547e-8
0.185, -3.500e-8
0.184, -3.473e-8
0.183, -3.451e-8
0.182, -3.417e-8
0.181, -3.362e-8
0.180, -3.328e-8
0.179, -3.307e-8
0.178, -3.267e-8
0.177, -3.208e-8
0.176, -3.168e-8
0.175, -3.137e-8
0.174, -3.100e-8
0.173, -3.039e-8
0.172, -2.984e-8
0.171, -2.953e-8
0.170, -2.910e-8
0.169, -2.848e-8
0.168, -2.784e-8
0.167, -2.737e-8
0.166, -2.700e-8
0.165, -2.633e-8
0.164, -2.556e-8
0.163, -2.510e-8
0.162, -2.457e-8
0.161, -2.390e-8
0.160, -2.310e-8
0.159, -2.242e-8
0.158, -2.193e-8
0.157, -2.119e-8
0.156, -2.027e-8
0.155, -1.959e-8
0.154, -1.888e-8
0.153, -1.814e-8
0.152, -1.716e-8
0.151, -1.627e-8
0.150, -1.562e-8
0.149, -1.476e-8
0.148, -1.368e-8
0.147, -1.276e-8
0.146, -1.187e-8
0.145, -1.104e-8
0.144, -9.930e-9
0.143, -8.761e-9
0.142, -7.900e-9
0.141, -6.915e-9
0.140, -5.715e-9
0.139, -4.516e-9
0.138, -3.470e-9
0.137, -2.424e-9
0.136, -1.255e-9
0.135, 1.606e-10
0.134, 1.207e-9
0.133, 2.406e-9
0.132, 3.668e-9
0.131, 5.083e-9
0.130, 6.344e-9
0.129, 7.544e-9
0.128, 8.898e-9
0.127, 1.047e-8
0.126, 1.173e-8
0.125, 1.302e-8
0.124, 1.437e-8
0.123, 1.588e-8
0.122, 1.742e-8
0.121, 1.868e-8
0.120, 2.003e-8
0.119, 2.167e-8
0.118, 2.314e-8
0.117, 2.456e-8
0.116, 2.597e-8
0.115, 2.739e-8
0.114, 2.914e-8
0.113, 3.043e-8
0.112, 3.179e-8
0.111, 3.339e-8
0.110, 3.496e-8
0.109, 3.628e-8
0.108, 3.769e-8
0.107, 3.905e-8
0.106, 4.074e-8
0.105, 4.203e-8
0.104, 4.335e-8
0.103, 4.474e-8
0.102, 4.625e-8
0.101, 4.757e-8
0.100, 4.877e-8
0.099, 4.991e-8
0.098, 5.142e-8
0.097, 5.262e-8
0.096, 5.366e-8
0.095, 5.489e-8
0.094, 5.603e-8
0.093, 5.726e-8
0.092, 5.821e-8
0.091, 5.914e-8
0.090, 6.028e-8
0.089, 6.132e-8
0.088, 6.209e-8
0.087, 6.298e-8
0.086, 6.372e-8
0.085, 6.474e-8
0.084, 6.544e-8
0.083, 6.597e-8
0.082, 6.677e-8
0.081, 6.751e-8
0.080, 6.800e-8
0.079, 6.855e-8
0.078, 6.895e-8
0.077, 6.966e-8
0.076, 7.012e-8
0.075, 7.027e-8
0.074, 7.061e-8
0.073, 7.101e-8
0.072, 7.132e-8
0.071, 7.147e-8
0.070, 7.154e-8
0.069, 7.181e-8
0.068, 7.209e-8
0.067, 7.197e-8
0.066, 7.200e-8
0.065, 7.206e-8
0.064, 7.218e-8
0.063, 7.206e-8
0.062, 7.178e-8
0.061, 7.181e-8
0.060, 7.184e-8
0.059, 7.154e-8
0.058, 7.129e-8
0.057, 7.107e-8
0.056, 7.101e-8
0.055, 7.074e-8
0.054, 7.027e-8
0.053, 7.000e-8
0.052, 6.987e-8
0.051, 6.951e-8
0.050, 6.904e-8
0.049, 6.867e-8
0.048, 6.843e-8
0.047, 6.812e-8
0.046, 6.754e-8
0.045, 6.707e-8
0.044, 6.680e-8
0.043, 6.640e-8
0.042, 6.591e-8
0.041, 6.535e-8
0.040, 6.492e-8
0.039, 6.468e-8
0.038, 6.406e-8
0.037, 6.348e-8
0.036, 6.308e-8
0.035, 6.271e-8
0.034, 6.218e-8
0.033, 6.157e-8
0.032, 6.108e-8
0.031, 6.083e-8
0.030, 6.024e-8
0.029, 5.963e-8
0.028, 5.914e-8
0.027, 5.880e-8
0.026, 5.837e-8
0.025, 5.772e-8
0.024, 5.717e-8
0.023, 5.689e-8
0.022, 5.643e-8
0.021, 5.581e-8
0.020, 5.523e-8
0.019, 5.489e-8
0.018, 5.455e-8
0.017, 5.397e-8
0.016, 5.338e-8
0.015, 5.308e-8
0.014, 5.271e-8
0.013, 5.218e-8
0.012, 5.160e-8
0.011, 5.120e-8
0.010, 5.098e-8
0.009, 5.046e-8
0.008, 4.988e-8
0.007, 4.954e-8
0.006, 4.929e-8
0.005, 4.880e-8
0.004, 4.828e-8
0.003, 4.779e-8
0.002, 4.766e-8
0.001, 4.726e-8
0.000, 4.683e-8
-0.001, 4.634e-8
-0.002, 4.609e-8
-0.003, 4.579e-8
-0.004, 4.529e-8
-0.005, 4.480e-8
-0.006, 4.462e-8
-0.007, 4.437e-8
-0.008, 4.388e-8
-0.009, 4.345e-8
-0.010, 4.317e-8
-0.011, 4.302e-8
-0.012, 4.259e-8
-0.013, 4.212e-8
-0.014, 4.188e-8
-0.015, 4.176e-8
-0.016, 4.136e-8
-0.017, 4.089e-8
-0.018, 4.065e-8
-0.019, 4.056e-8
-0.020, 4.022e-8
-0.021, 3.972e-8
-0.022, 3.948e-8
-0.023, 3.939e-8
-0.024, 3.914e-8
-0.025, 3.871e-8
-0.026, 3.837e-8
-0.027, 3.831e-8
-0.028, 3.812e-8
-0.029, 3.769e-8
-0.030, 3.736e-8
-0.031, 3.729e-8
-0.032, 3.714e-8
-0.033, 3.683e-8
-0.034, 3.643e-8
-0.035, 3.631e-8
-0.036, 3.628e-8
-0.037, 3.594e-8
-0.038, 3.557e-8
-0.039, 3.545e-8
-0.040, 3.539e-8
-0.041, 3.514e-8
-0.042, 3.474e-8
-0.043, 3.459e-8
-0.044, 3.462e-8
-0.045, 3.434e-8
-0.046, 3.400e-8
-0.047, 3.382e-8
-0.048, 3.382e-8
-0.049, 3.366e-8
-0.050, 3.329e-8
-0.051, 3.308e-8
-0.052, 3.311e-8
-0.053, 3.296e-8
-0.054, 3.268e-8
-0.055, 3.240e-8
-0.056, 3.237e-8
-0.057, 3.237e-8
-0.058, 3.203e-8
-0.059, 3.176e-8
-0.060, 3.176e-8
-0.061, 3.169e-8
-0.062, 3.148e-8
-0.063, 3.117e-8
-0.064, 3.114e-8
-0.065, 3.117e-8
-0.066, 3.096e-8
-0.067, 3.065e-8
-0.068, 3.059e-8
-0.069, 3.065e-8
-0.070, 3.046e-8
-0.071, 3.016e-8
-0.072, 3.000e-8
-0.073, 3.013e-8
-0.074, 3.000e-8
-0.075, 2.970e-8
-0.076, 2.957e-8
-0.077, 2.960e-8
-0.078, 2.957e-8
-0.079, 2.930e-8
-0.080, 2.908e-8
-0.081, 2.917e-8
-0.082, 2.914e-8
-0.083, 2.893e-8
-0.084, 2.871e-8
-0.085, 2.868e-8
-0.086, 2.877e-8
-0.087, 2.856e-8
-0.088, 2.828e-8
-0.089, 2.831e-8
-0.090, 2.837e-8
-0.091, 2.822e-8
-0.092, 2.794e-8
-0.093, 2.788e-8
-0.094, 2.806e-8
-0.095, 2.788e-8
-0.096, 2.763e-8
-0.097, 2.757e-8
-0.098, 2.766e-8
-0.099, 2.763e-8
-0.100, 2.736e-8
-0.101, 2.723e-8
-0.102, 2.739e-8
-0.103, 2.736e-8
-0.104, 2.711e-8
-0.105, 2.693e-8
-0.106, 2.705e-8
-0.107, 2.708e-8
-0.108, 2.686e-8
-0.109, 2.668e-8
-0.110, 2.674e-8
-0.111, 2.683e-8
-0.112, 2.665e-8
-0.113, 2.643e-8
-0.114, 2.646e-8
-0.115, 2.656e-8
-0.116, 2.646e-8
-0.117, 2.622e-8
-0.118, 2.622e-8
-0.119, 2.637e-8
-0.120, 2.622e-8
-0.121, 2.603e-8
-0.122, 2.597e-8
-0.123, 2.613e-8
-0.124, 2.613e-8
-0.125, 2.585e-8
-0.126, 2.579e-8
-0.127, 2.591e-8
-0.128, 2.594e-8
-0.129, 2.576e-8
-0.130, 2.557e-8
-0.131, 2.573e-8
-0.132, 2.579e-8
-0.133, 2.560e-8
-0.134, 2.545e-8
-0.135, 2.551e-8
-0.136, 2.563e-8
-0.137, 2.551e-8
-0.138, 2.530e-8
-0.139, 2.536e-8
-0.140, 2.551e-8
-0.141, 2.539e-8
-0.142, 2.520e-8
-0.143, 2.520e-8
-0.144, 2.536e-8
-0.145, 2.533e-8
-0.146, 2.508e-8
-0.147, 2.505e-8
-0.148, 2.526e-8
-0.149, 2.520e-8
-0.150, 2.502e-8
-0.151, 2.499e-8
-0.152, 2.514e-8
-0.153, 2.517e-8
-0.154, 2.499e-8
-0.155, 2.487e-8
-0.156, 2.505e-8
-0.157, 2.508e-8
-0.158, 2.496e-8
-0.159, 2.480e-8
-0.160, 2.490e-8
-0.161, 2.511e-8
-0.162, 2.493e-8
-0.163, 2.474e-8
-0.164, 2.483e-8
-0.165, 2.496e-8
-0.166, 2.496e-8
-0.167, 2.474e-8
-0.168, 2.477e-8
-0.169, 2.499e-8
-0.170, 2.490e-8
-0.171, 2.474e-8
-0.172, 2.474e-8
-0.173, 2.493e-8
-0.174, 2.496e-8
-0.175, 2.474e-8
-0.176, 2.468e-8
-0.177, 2.493e-8
-0.178, 2.496e-8
-0.179, 2.480e-8
-0.180, 2.471e-8
-0.181, 2.487e-8
-0.182, 2.496e-8
-0.183, 2.487e-8
-0.184, 2.471e-8
-0.185, 2.487e-8
-0.186, 2.502e-8
-0.187, 2.490e-8
-0.188, 2.480e-8
-0.189, 2.487e-8
-0.190, 2.505e-8
-0.191, 2.499e-8
-0.192, 2.480e-8
-0.193, 2.490e-8
-0.194, 2.511e-8
-0.195, 2.505e-8
-0.196, 2.493e-8
-0.197, 2.490e-8
-0.198, 2.517e-8
-0.199, 2.517e-8
