Mar. 16, 2023   10:18:01
Cyclic Voltammetry
File: c:/users/oliverrz/desktop/electrolab/data/2023_03_16\fcmeoh_macros_1_mm\electrode8_cv_250mvs_1_mm.bin
Data Source:  Experiment
Instrument Model:  CHI760E
Header: CV
Note: 

Init E (V) = -0.2
High E (V) = 0.3
Low E (V) = -0.2
Final E (V) = -0.2
Init P/N = P
Scan Rate (V/s) = 0.25
Segment = 3
Sample Interval (V) = 0.001
Quiet Time (sec) = 2
Sensitivity (A/V) = 1e-7

Results:

Channel 1:
Segment 1:
Ep = 0.121V
ip = -1.069e-7A
Ah = -2.546e-8C

Segment 2:
Ep = 0.064V
ip = 9.589e-8A
Ah = 2.293e-8C

Segment 3:

Potential/V, Current/A

-0.200, 5.329e-9
-0.199, 4.160e-9
-0.198, 4.191e-9
-0.197, 4.099e-9
-0.196, 3.760e-9
-0.195, 3.668e-9
-0.194, 3.822e-9
-0.193, 3.760e-9
-0.192, 3.545e-9
-0.191, 3.391e-9
-0.190, 3.545e-9
-0.189, 3.606e-9
-0.188, 3.329e-9
-0.187, 3.176e-9
-0.186, 3.299e-9
-0.185, 3.391e-9
-0.184, 3.206e-9
-0.183, 2.960e-9
-0.182, 3.053e-9
-0.181, 3.206e-9
-0.180, 3.022e-9
-0.179, 2.806e-9
-0.178, 2.837e-9
-0.177, 3.022e-9
-0.176, 2.929e-9
-0.175, 2.653e-9
-0.174, 2.653e-9
-0.173, 2.837e-9
-0.172, 2.776e-9
-0.171, 2.530e-9
-0.170, 2.468e-9
-0.169, 2.653e-9
-0.168, 2.653e-9
-0.167, 2.437e-9
-0.166, 2.314e-9
-0.165, 2.499e-9
-0.164, 2.560e-9
-0.163, 2.314e-9
-0.162, 2.160e-9
-0.161, 2.283e-9
-0.160, 2.437e-9
-0.159, 2.253e-9
-0.158, 2.007e-9
-0.157, 2.160e-9
-0.156, 2.283e-9
-0.155, 2.160e-9
-0.154, 1.914e-9
-0.153, 1.945e-9
-0.152, 2.160e-9
-0.151, 2.037e-9
-0.150, 1.822e-9
-0.149, 1.822e-9
-0.148, 1.976e-9
-0.147, 1.976e-9
-0.146, 1.730e-9
-0.145, 1.668e-9
-0.144, 1.883e-9
-0.143, 1.853e-9
-0.142, 1.668e-9
-0.141, 1.545e-9
-0.140, 1.730e-9
-0.139, 1.791e-9
-0.138, 1.576e-9
-0.137, 1.422e-9
-0.136, 1.576e-9
-0.135, 1.699e-9
-0.134, 1.514e-9
-0.133, 1.330e-9
-0.132, 1.422e-9
-0.131, 1.607e-9
-0.130, 1.453e-9
-0.129, 1.237e-9
-0.128, 1.299e-9
-0.127, 1.453e-9
-0.126, 1.360e-9
-0.125, 1.176e-9
-0.124, 1.145e-9
-0.123, 1.360e-9
-0.122, 1.330e-9
-0.121, 1.084e-9
-0.120, 1.053e-9
-0.119, 1.237e-9
-0.118, 1.237e-9
-0.117, 1.053e-9
-0.116, 8.990e-10
-0.115, 1.114e-9
-0.114, 1.176e-9
-0.113, 9.605e-10
-0.112, 8.375e-10
-0.111, 9.605e-10
-0.110, 1.084e-9
-0.109, 9.298e-10
-0.108, 7.144e-10
-0.107, 8.375e-10
-0.106, 9.913e-10
-0.105, 8.375e-10
-0.104, 6.529e-10
-0.103, 6.836e-10
-0.102, 8.682e-10
-0.101, 8.067e-10
-0.100, 5.606e-10
-0.099, 5.913e-10
-0.098, 7.759e-10
-0.097, 7.144e-10
-0.096, 4.991e-10
-0.095, 4.375e-10
-0.094, 6.529e-10
-0.093, 6.836e-10
-0.092, 4.375e-10
-0.091, 3.452e-10
-0.090, 5.298e-10
-0.089, 5.913e-10
-0.088, 3.760e-10
-0.087, 2.222e-10
-0.086, 3.760e-10
-0.085, 4.991e-10
-0.084, 3.145e-10
-0.083, 1.299e-10
-0.082, 2.529e-10
-0.081, 3.760e-10
-0.080, 2.837e-10
-0.079, 3.758e-11
-0.078, 9.911e-11
-0.077, 2.837e-10
-0.076, 1.606e-10
-0.075, -5.472e-11
-0.074, -5.472e-11
-0.073, 1.299e-10
-0.072, 9.911e-11
-0.071, -1.778e-10
-0.070, -2.085e-10
-0.069, 6.813e-12
-0.068, -2.395e-11
-0.067, -2.393e-10
-0.066, -3.316e-10
-0.065, -1.778e-10
-0.064, -1.162e-10
-0.063, -3.624e-10
-0.062, -5.162e-10
-0.061, -3.316e-10
-0.060, -2.393e-10
-0.059, -4.239e-10
-0.058, -6.393e-10
-0.057, -5.470e-10
-0.056, -3.931e-10
-0.055, -5.470e-10
-0.054, -7.931e-10
-0.053, -7.623e-10
-0.052, -6.085e-10
-0.051, -7.315e-10
-0.050, -9.469e-10
-0.049, -9.777e-10
-0.048, -7.931e-10
-0.047, -8.854e-10
-0.046, -1.131e-9
-0.045, -1.193e-9
-0.044, -1.039e-9
-0.043, -1.070e-9
-0.042, -1.316e-9
-0.041, -1.470e-9
-0.040, -1.285e-9
-0.039, -1.285e-9
-0.038, -1.562e-9
-0.037, -1.716e-9
-0.036, -1.624e-9
-0.035, -1.531e-9
-0.034, -1.778e-9
-0.033, -2.024e-9
-0.032, -1.962e-9
-0.031, -1.870e-9
-0.030, -2.054e-9
-0.029, -2.331e-9
-0.028, -2.362e-9
-0.027, -2.239e-9
-0.026, -2.393e-9
-0.025, -2.731e-9
-0.024, -2.762e-9
-0.023, -2.670e-9
-0.022, -2.793e-9
-0.021, -3.100e-9
-0.020, -3.254e-9
-0.019, -3.131e-9
-0.018, -3.254e-9
-0.017, -3.593e-9
-0.016, -3.747e-9
-0.015, -3.716e-9
-0.014, -3.777e-9
-0.013, -4.116e-9
-0.012, -4.393e-9
-0.011, -4.362e-9
-0.010, -4.393e-9
-0.009, -4.700e-9
-0.008, -5.039e-9
-0.007, -5.100e-9
-0.006, -5.131e-9
-0.005, -5.408e-9
-0.004, -5.839e-9
-0.003, -5.931e-9
-0.002, -5.962e-9
-0.001, -6.269e-9
-0.000, -6.823e-9
0.001, -6.946e-9
0.002, -6.946e-9
0.003, -7.223e-9
0.004, -7.746e-9
0.005, -7.992e-9
0.006, -8.054e-9
0.007, -8.361e-9
0.008, -8.854e-9
0.009, -9.253e-9
0.010, -9.377e-9
0.011, -9.623e-9
0.012, -1.018e-8
0.013, -1.064e-8
0.014, -1.085e-8
0.015, -1.113e-8
0.016, -1.162e-8
0.017, -1.224e-8
0.018, -1.251e-8
0.019, -1.279e-8
0.020, -1.341e-8
0.021, -1.402e-8
0.022, -1.442e-8
0.023, -1.476e-8
0.024, -1.534e-8
0.025, -1.608e-8
0.026, -1.664e-8
0.027, -1.694e-8
0.028, -1.765e-8
0.029, -1.836e-8
0.030, -1.904e-8
0.031, -1.947e-8
0.032, -2.011e-8
0.033, -2.101e-8
0.034, -2.174e-8
0.035, -2.227e-8
0.036, -2.301e-8
0.037, -2.387e-8
0.038, -2.482e-8
0.039, -2.550e-8
0.040, -2.617e-8
0.041, -2.722e-8
0.042, -2.817e-8
0.043, -2.894e-8
0.044, -2.977e-8
0.045, -3.079e-8
0.046, -3.196e-8
0.047, -3.291e-8
0.048, -3.368e-8
0.049, -3.485e-8
0.050, -3.605e-8
0.051, -3.713e-8
0.052, -3.805e-8
0.053, -3.925e-8
0.054, -4.054e-8
0.055, -4.174e-8
0.056, -4.266e-8
0.057, -4.402e-8
0.058, -4.534e-8
0.059, -4.663e-8
0.060, -4.777e-8
0.061, -4.900e-8
0.062, -5.048e-8
0.063, -5.192e-8
0.064, -5.309e-8
0.065, -5.442e-8
0.066, -5.589e-8
0.067, -5.740e-8
0.068, -5.872e-8
0.069, -5.992e-8
0.070, -6.155e-8
0.071, -6.306e-8
0.072, -6.442e-8
0.073, -6.574e-8
0.074, -6.728e-8
0.075, -6.885e-8
0.076, -7.032e-8
0.077, -7.155e-8
0.078, -7.309e-8
0.079, -7.472e-8
0.080, -7.601e-8
0.081, -7.737e-8
0.082, -7.878e-8
0.083, -8.032e-8
0.084, -8.180e-8
0.085, -8.291e-8
0.086, -8.426e-8
0.087, -8.583e-8
0.088, -8.712e-8
0.089, -8.835e-8
0.090, -8.955e-8
0.091, -9.087e-8
0.092, -9.220e-8
0.093, -9.324e-8
0.094, -9.435e-8
0.095, -9.558e-8
0.096, -9.669e-8
0.097, -9.780e-8
0.098, -9.853e-8
0.099, -9.964e-8
0.100, -1.008e-7
0.101, -1.016e-7
0.102, -1.024e-7
0.103, -1.033e-7
0.104, -1.041e-7
0.105, -1.050e-7
0.106, -1.054e-7
0.107, -1.061e-7
0.108, -1.069e-7
0.109, -1.075e-7
0.110, -1.079e-7
0.111, -1.083e-7
0.112, -1.089e-7
0.113, -1.095e-7
0.114, -1.096e-7
0.115, -1.099e-7
0.116, -1.104e-7
0.117, -1.106e-7
0.118, -1.108e-7
0.119, -1.108e-7
0.120, -1.111e-7
0.121, -1.113e-7
0.122, -1.113e-7
0.123, -1.111e-7
0.124, -1.113e-7
0.125, -1.113e-7
0.126, -1.112e-7
0.127, -1.109e-7
0.128, -1.109e-7
0.129, -1.109e-7
0.130, -1.107e-7
0.131, -1.103e-7
0.132, -1.101e-7
0.133, -1.100e-7
0.134, -1.098e-7
0.135, -1.093e-7
0.136, -1.089e-7
0.137, -1.087e-7
0.138, -1.084e-7
0.139, -1.079e-7
0.140, -1.075e-7
0.141, -1.071e-7
0.142, -1.069e-7
0.143, -1.063e-7
0.144, -1.057e-7
0.145, -1.055e-7
0.146, -1.051e-7
0.147, -1.046e-7
0.148, -1.039e-7
0.149, -1.035e-7
0.150, -1.031e-7
0.151, -1.026e-7
0.152, -1.019e-7
0.153, -1.015e-7
0.154, -1.011e-7
0.155, -1.006e-7
0.156, -9.992e-8
0.157, -9.936e-8
0.158, -9.906e-8
0.159, -9.860e-8
0.160, -9.780e-8
0.161, -9.730e-8
0.162, -9.693e-8
0.163, -9.647e-8
0.164, -9.583e-8
0.165, -9.515e-8
0.166, -9.487e-8
0.167, -9.447e-8
0.168, -9.377e-8
0.169, -9.318e-8
0.170, -9.278e-8
0.171, -9.241e-8
0.172, -9.186e-8
0.173, -9.115e-8
0.174, -9.078e-8
0.175, -9.047e-8
0.176, -8.992e-8
0.177, -8.924e-8
0.178, -8.881e-8
0.179, -8.857e-8
0.180, -8.814e-8
0.181, -8.740e-8
0.182, -8.694e-8
0.183, -8.672e-8
0.184, -8.632e-8
0.185, -8.567e-8
0.186, -8.518e-8
0.187, -8.494e-8
0.188, -8.463e-8
0.189, -8.401e-8
0.190, -8.346e-8
0.191, -8.324e-8
0.192, -8.297e-8
0.193, -8.244e-8
0.194, -8.192e-8
0.195, -8.164e-8
0.196, -8.146e-8
0.197, -8.094e-8
0.198, -8.038e-8
0.199, -8.017e-8
0.200, -7.995e-8
0.201, -7.955e-8
0.202, -7.900e-8
0.203, -7.869e-8
0.204, -7.857e-8
0.205, -7.823e-8
0.206, -7.764e-8
0.207, -7.734e-8
0.208, -7.718e-8
0.209, -7.697e-8
0.210, -7.641e-8
0.211, -7.604e-8
0.212, -7.595e-8
0.213, -7.574e-8
0.214, -7.528e-8
0.215, -7.484e-8
0.216, -7.469e-8
0.217, -7.460e-8
0.218, -7.417e-8
0.219, -7.371e-8
0.220, -7.361e-8
0.221, -7.349e-8
0.222, -7.312e-8
0.223, -7.269e-8
0.224, -7.251e-8
0.225, -7.248e-8
0.226, -7.217e-8
0.227, -7.168e-8
0.228, -7.152e-8
0.229, -7.149e-8
0.230, -7.121e-8
0.231, -7.078e-8
0.232, -7.054e-8
0.233, -7.054e-8
0.234, -7.038e-8
0.235, -6.992e-8
0.236, -6.971e-8
0.237, -6.965e-8
0.238, -6.952e-8
0.239, -6.915e-8
0.240, -6.881e-8
0.241, -6.881e-8
0.242, -6.872e-8
0.243, -6.838e-8
0.244, -6.805e-8
0.245, -6.795e-8
0.246, -6.798e-8
0.247, -6.771e-8
0.248, -6.731e-8
0.249, -6.725e-8
0.250, -6.725e-8
0.251, -6.700e-8
0.252, -6.663e-8
0.253, -6.651e-8
0.254, -6.654e-8
0.255, -6.642e-8
0.256, -6.598e-8
0.257, -6.583e-8
0.258, -6.586e-8
0.259, -6.577e-8
0.260, -6.540e-8
0.261, -6.518e-8
0.262, -6.522e-8
0.263, -6.518e-8
0.264, -6.485e-8
0.265, -6.463e-8
0.266, -6.463e-8
0.267, -6.460e-8
0.268, -6.435e-8
0.269, -6.408e-8
0.270, -6.405e-8
0.271, -6.411e-8
0.272, -6.383e-8
0.273, -6.355e-8
0.274, -6.355e-8
0.275, -6.355e-8
0.276, -6.343e-8
0.277, -6.306e-8
0.278, -6.300e-8
0.279, -6.312e-8
0.280, -6.297e-8
0.281, -6.266e-8
0.282, -6.254e-8
0.283, -6.260e-8
0.284, -6.257e-8
0.285, -6.217e-8
0.286, -6.205e-8
0.287, -6.211e-8
0.288, -6.208e-8
0.289, -6.186e-8
0.290, -6.162e-8
0.291, -6.168e-8
0.292, -6.171e-8
0.293, -6.146e-8
0.294, -6.122e-8
0.295, -6.125e-8
0.296, -6.131e-8
0.297, -6.112e-8
0.298, -6.082e-8
0.299, -6.085e-8
0.300, -5.879e-8
0.299, -5.586e-8
0.298, -5.509e-8
0.297, -5.476e-8
0.296, -5.466e-8
0.295, -5.432e-8
0.294, -5.386e-8
0.293, -5.362e-8
0.292, -5.356e-8
0.291, -5.343e-8
0.290, -5.294e-8
0.289, -5.272e-8
0.288, -5.272e-8
0.287, -5.257e-8
0.286, -5.226e-8
0.285, -5.192e-8
0.284, -5.192e-8
0.283, -5.192e-8
0.282, -5.159e-8
0.281, -5.128e-8
0.280, -5.125e-8
0.279, -5.125e-8
0.278, -5.100e-8
0.277, -5.066e-8
0.276, -5.060e-8
0.275, -5.066e-8
0.274, -5.042e-8
0.273, -5.008e-8
0.272, -5.002e-8
0.271, -5.008e-8
0.270, -4.992e-8
0.269, -4.956e-8
0.268, -4.940e-8
0.267, -4.952e-8
0.266, -4.943e-8
0.265, -4.906e-8
0.264, -4.888e-8
0.263, -4.894e-8
0.262, -4.894e-8
0.261, -4.863e-8
0.260, -4.833e-8
0.259, -4.842e-8
0.258, -4.842e-8
0.257, -4.814e-8
0.256, -4.789e-8
0.255, -4.786e-8
0.254, -4.793e-8
0.253, -4.771e-8
0.252, -4.737e-8
0.251, -4.740e-8
0.250, -4.743e-8
0.249, -4.725e-8
0.248, -4.694e-8
0.247, -4.685e-8
0.246, -4.700e-8
0.245, -4.682e-8
0.244, -4.645e-8
0.243, -4.636e-8
0.242, -4.642e-8
0.241, -4.636e-8
0.240, -4.602e-8
0.239, -4.583e-8
0.238, -4.593e-8
0.237, -4.589e-8
0.236, -4.556e-8
0.235, -4.534e-8
0.234, -4.540e-8
0.233, -4.540e-8
0.232, -4.513e-8
0.231, -4.482e-8
0.230, -4.485e-8
0.229, -4.491e-8
0.228, -4.463e-8
0.227, -4.433e-8
0.226, -4.433e-8
0.225, -4.433e-8
0.224, -4.417e-8
0.223, -4.380e-8
0.222, -4.374e-8
0.221, -4.380e-8
0.220, -4.362e-8
0.219, -4.328e-8
0.218, -4.313e-8
0.217, -4.319e-8
0.216, -4.310e-8
0.215, -4.270e-8
0.214, -4.251e-8
0.213, -4.254e-8
0.212, -4.245e-8
0.211, -4.214e-8
0.210, -4.183e-8
0.209, -4.183e-8
0.208, -4.183e-8
0.207, -4.143e-8
0.206, -4.116e-8
0.205, -4.110e-8
0.204, -4.106e-8
0.203, -4.079e-8
0.202, -4.039e-8
0.201, -4.030e-8
0.200, -4.030e-8
0.199, -3.999e-8
0.198, -3.956e-8
0.197, -3.940e-8
0.196, -3.937e-8
0.195, -3.916e-8
0.194, -3.863e-8
0.193, -3.842e-8
0.192, -3.839e-8
0.191, -3.817e-8
0.190, -3.765e-8
0.189, -3.737e-8
0.188, -3.728e-8
0.187, -3.710e-8
0.186, -3.660e-8
0.185, -3.617e-8
0.184, -3.608e-8
0.183, -3.583e-8
0.182, -3.537e-8
0.181, -3.491e-8
0.180, -3.470e-8
0.179, -3.451e-8
0.178, -3.399e-8
0.177, -3.347e-8
0.176, -3.322e-8
0.175, -3.291e-8
0.174, -3.248e-8
0.173, -3.187e-8
0.172, -3.147e-8
0.171, -3.125e-8
0.170, -3.073e-8
0.169, -3.005e-8
0.168, -2.956e-8
0.167, -2.922e-8
0.166, -2.879e-8
0.165, -2.802e-8
0.164, -2.744e-8
0.163, -2.707e-8
0.162, -2.654e-8
0.161, -2.577e-8
0.160, -2.510e-8
0.159, -2.457e-8
0.158, -2.408e-8
0.157, -2.322e-8
0.156, -2.242e-8
0.155, -2.187e-8
0.154, -2.122e-8
0.153, -2.042e-8
0.152, -1.947e-8
0.151, -1.879e-8
0.150, -1.818e-8
0.149, -1.725e-8
0.148, -1.621e-8
0.147, -1.547e-8
0.146, -1.467e-8
0.145, -1.375e-8
0.144, -1.261e-8
0.143, -1.168e-8
0.142, -1.095e-8
0.141, -9.900e-9
0.140, -8.607e-9
0.139, -7.623e-9
0.138, -6.669e-9
0.137, -5.623e-9
0.136, -4.423e-9
0.135, -3.131e-9
0.134, -2.208e-9
0.133, -1.008e-9
0.132, 3.145e-10
0.131, 1.576e-9
0.130, 2.806e-9
0.129, 3.883e-9
0.128, 5.329e-9
0.127, 6.837e-9
0.126, 7.944e-9
0.125, 9.206e-9
0.124, 1.059e-8
0.123, 1.216e-8
0.122, 1.348e-8
0.121, 1.468e-8
0.120, 1.616e-8
0.119, 1.785e-8
0.118, 1.914e-8
0.117, 2.050e-8
0.116, 2.191e-8
0.115, 2.354e-8
0.114, 2.508e-8
0.113, 2.637e-8
0.112, 2.779e-8
0.111, 2.945e-8
0.110, 3.089e-8
0.109, 3.225e-8
0.108, 3.363e-8
0.107, 3.520e-8
0.106, 3.680e-8
0.105, 3.809e-8
0.104, 3.939e-8
0.103, 4.099e-8
0.102, 4.243e-8
0.101, 4.372e-8
0.100, 4.499e-8
0.099, 4.625e-8
0.098, 4.788e-8
0.097, 4.902e-8
0.096, 5.012e-8
0.095, 5.145e-8
0.094, 5.274e-8
0.093, 5.391e-8
0.092, 5.492e-8
0.091, 5.594e-8
0.090, 5.735e-8
0.089, 5.828e-8
0.088, 5.920e-8
0.087, 6.012e-8
0.086, 6.108e-8
0.085, 6.206e-8
0.084, 6.283e-8
0.083, 6.344e-8
0.082, 6.446e-8
0.081, 6.523e-8
0.080, 6.575e-8
0.079, 6.637e-8
0.078, 6.698e-8
0.077, 6.775e-8
0.076, 6.812e-8
0.075, 6.846e-8
0.074, 6.898e-8
0.073, 6.954e-8
0.072, 6.975e-8
0.071, 6.997e-8
0.070, 7.018e-8
0.069, 7.064e-8
0.068, 7.083e-8
0.067, 7.077e-8
0.066, 7.098e-8
0.065, 7.120e-8
0.064, 7.126e-8
0.063, 7.120e-8
0.062, 7.104e-8
0.061, 7.117e-8
0.060, 7.123e-8
0.059, 7.089e-8
0.058, 7.077e-8
0.057, 7.067e-8
0.056, 7.058e-8
0.055, 7.031e-8
0.054, 6.991e-8
0.053, 6.978e-8
0.052, 6.969e-8
0.051, 6.923e-8
0.050, 6.886e-8
0.049, 6.852e-8
0.048, 6.837e-8
0.047, 6.797e-8
0.046, 6.735e-8
0.045, 6.704e-8
0.044, 6.683e-8
0.043, 6.637e-8
0.042, 6.581e-8
0.041, 6.532e-8
0.040, 6.507e-8
0.039, 6.464e-8
0.038, 6.403e-8
0.037, 6.348e-8
0.036, 6.320e-8
0.035, 6.277e-8
0.034, 6.215e-8
0.033, 6.157e-8
0.032, 6.123e-8
0.031, 6.089e-8
0.030, 6.024e-8
0.029, 5.960e-8
0.028, 5.923e-8
0.027, 5.889e-8
0.026, 5.831e-8
0.025, 5.766e-8
0.024, 5.720e-8
0.023, 5.698e-8
0.022, 5.637e-8
0.021, 5.569e-8
0.020, 5.526e-8
0.019, 5.492e-8
0.018, 5.449e-8
0.017, 5.378e-8
0.016, 5.326e-8
0.015, 5.308e-8
0.014, 5.255e-8
0.013, 5.197e-8
0.012, 5.145e-8
0.011, 5.114e-8
0.010, 5.083e-8
0.009, 5.018e-8
0.008, 4.960e-8
0.007, 4.938e-8
0.006, 4.902e-8
0.005, 4.849e-8
0.004, 4.791e-8
0.003, 4.760e-8
0.002, 4.739e-8
0.001, 4.683e-8
0.000, 4.640e-8
-0.001, 4.597e-8
-0.002, 4.579e-8
-0.003, 4.532e-8
-0.004, 4.471e-8
-0.005, 4.437e-8
-0.006, 4.425e-8
-0.007, 4.385e-8
-0.008, 4.326e-8
-0.009, 4.289e-8
-0.010, 4.277e-8
-0.011, 4.243e-8
-0.012, 4.194e-8
-0.013, 4.151e-8
-0.014, 4.136e-8
-0.015, 4.114e-8
-0.016, 4.062e-8
-0.017, 4.022e-8
-0.018, 4.003e-8
-0.019, 3.985e-8
-0.020, 3.945e-8
-0.021, 3.892e-8
-0.022, 3.880e-8
-0.023, 3.868e-8
-0.024, 3.825e-8
-0.025, 3.782e-8
-0.026, 3.760e-8
-0.027, 3.754e-8
-0.028, 3.723e-8
-0.029, 3.671e-8
-0.030, 3.652e-8
-0.031, 3.649e-8
-0.032, 3.619e-8
-0.033, 3.576e-8
-0.034, 3.548e-8
-0.035, 3.548e-8
-0.036, 3.526e-8
-0.037, 3.480e-8
-0.038, 3.456e-8
-0.039, 3.449e-8
-0.040, 3.434e-8
-0.041, 3.397e-8
-0.042, 3.363e-8
-0.043, 3.357e-8
-0.044, 3.351e-8
-0.045, 3.314e-8
-0.046, 3.277e-8
-0.047, 3.271e-8
-0.048, 3.268e-8
-0.049, 3.237e-8
-0.050, 3.200e-8
-0.051, 3.188e-8
-0.052, 3.194e-8
-0.053, 3.166e-8
-0.054, 3.123e-8
-0.055, 3.114e-8
-0.056, 3.117e-8
-0.057, 3.102e-8
-0.058, 3.059e-8
-0.059, 3.040e-8
-0.060, 3.050e-8
-0.061, 3.034e-8
-0.062, 2.997e-8
-0.063, 2.976e-8
-0.064, 2.982e-8
-0.065, 2.976e-8
-0.066, 2.939e-8
-0.067, 2.914e-8
-0.068, 2.920e-8
-0.069, 2.914e-8
-0.070, 2.886e-8
-0.071, 2.856e-8
-0.072, 2.856e-8
-0.073, 2.862e-8
-0.074, 2.834e-8
-0.075, 2.803e-8
-0.076, 2.800e-8
-0.077, 2.806e-8
-0.078, 2.788e-8
-0.079, 2.754e-8
-0.080, 2.745e-8
-0.081, 2.757e-8
-0.082, 2.742e-8
-0.083, 2.711e-8
-0.084, 2.699e-8
-0.085, 2.705e-8
-0.086, 2.699e-8
-0.087, 2.668e-8
-0.088, 2.650e-8
-0.089, 2.662e-8
-0.090, 2.656e-8
-0.091, 2.628e-8
-0.092, 2.610e-8
-0.093, 2.613e-8
-0.094, 2.619e-8
-0.095, 2.594e-8
-0.096, 2.566e-8
-0.097, 2.573e-8
-0.098, 2.579e-8
-0.099, 2.557e-8
-0.100, 2.533e-8
-0.101, 2.530e-8
-0.102, 2.545e-8
-0.103, 2.526e-8
-0.104, 2.496e-8
-0.105, 2.493e-8
-0.106, 2.505e-8
-0.107, 2.496e-8
-0.108, 2.468e-8
-0.109, 2.456e-8
-0.110, 2.471e-8
-0.111, 2.468e-8
-0.112, 2.437e-8
-0.113, 2.428e-8
-0.114, 2.437e-8
-0.115, 2.440e-8
-0.116, 2.413e-8
-0.117, 2.394e-8
-0.118, 2.407e-8
-0.119, 2.413e-8
-0.120, 2.388e-8
-0.121, 2.367e-8
-0.122, 2.376e-8
-0.123, 2.385e-8
-0.124, 2.370e-8
-0.125, 2.342e-8
-0.126, 2.345e-8
-0.127, 2.360e-8
-0.128, 2.345e-8
-0.129, 2.320e-8
-0.130, 2.317e-8
-0.131, 2.333e-8
-0.132, 2.330e-8
-0.133, 2.299e-8
-0.134, 2.293e-8
-0.135, 2.311e-8
-0.136, 2.305e-8
-0.137, 2.283e-8
-0.138, 2.268e-8
-0.139, 2.287e-8
-0.140, 2.290e-8
-0.141, 2.265e-8
-0.142, 2.250e-8
-0.143, 2.265e-8
-0.144, 2.271e-8
-0.145, 2.253e-8
-0.146, 2.228e-8
-0.147, 2.240e-8
-0.148, 2.256e-8
-0.149, 2.237e-8
-0.150, 2.219e-8
-0.151, 2.222e-8
-0.152, 2.237e-8
-0.153, 2.228e-8
-0.154, 2.200e-8
-0.155, 2.203e-8
-0.156, 2.222e-8
-0.157, 2.213e-8
-0.158, 2.191e-8
-0.159, 2.188e-8
-0.160, 2.203e-8
-0.161, 2.207e-8
-0.162, 2.182e-8
-0.163, 2.173e-8
-0.164, 2.191e-8
-0.165, 2.194e-8
-0.166, 2.173e-8
-0.167, 2.160e-8
-0.168, 2.176e-8
-0.169, 2.188e-8
-0.170, 2.167e-8
-0.171, 2.148e-8
-0.172, 2.163e-8
-0.173, 2.176e-8
-0.174, 2.163e-8
-0.175, 2.142e-8
-0.176, 2.145e-8
-0.177, 2.170e-8
-0.178, 2.157e-8
-0.179, 2.136e-8
-0.180, 2.139e-8
-0.181, 2.157e-8
-0.182, 2.154e-8
-0.183, 2.130e-8
-0.184, 2.127e-8
-0.185, 2.151e-8
-0.186, 2.148e-8
-0.187, 2.130e-8
-0.188, 2.123e-8
-0.189, 2.139e-8
-0.190, 2.148e-8
-0.191, 2.130e-8
-0.192, 2.117e-8
-0.193, 2.136e-8
-0.194, 2.145e-8
-0.195, 2.130e-8
-0.196, 2.114e-8
-0.197, 2.127e-8
-0.198, 2.145e-8
-0.199, 2.133e-8
