Mar. 16, 2023   10:07:55
Cyclic Voltammetry
File: c:/users/oliverrz/desktop/electrolab/data/2023_03_16\fcmeoh_macros_1_mm\electrode1_cv_50mvs_1_mm.bin
Data Source:  Experiment
Instrument Model:  CHI760E
Header: CV
Note: 

Init E (V) = -0.2
High E (V) = 0.3
Low E (V) = -0.2
Final E (V) = -0.2
Init P/N = P
Scan Rate (V/s) = 0.05
Segment = 3
Sample Interval (V) = 0.001
Quiet Time (sec) = 2
Sensitivity (A/V) = 1e-7

Results:

Channel 1:
Segment 1:
Ep = 0.132V
ip = -5.034e-8A
Ah = -6.423e-8C

Segment 2:
Ep = 0.067V
ip = 4.705e-8A
Ah = 5.035e-8C

Segment 3:

Potential/V, Current/A

-0.200, 6.367e-9
-0.199, 5.777e-9
-0.198, 5.587e-9
-0.197, 5.465e-9
-0.196, 5.366e-9
-0.195, 5.279e-9
-0.194, 5.191e-9
-0.193, 5.108e-9
-0.192, 5.029e-9
-0.191, 4.952e-9
-0.190, 4.884e-9
-0.189, 4.815e-9
-0.188, 4.742e-9
-0.187, 4.678e-9
-0.186, 4.610e-9
-0.185, 4.546e-9
-0.184, 4.484e-9
-0.183, 4.422e-9
-0.182, 4.367e-9
-0.181, 4.306e-9
-0.180, 4.246e-9
-0.179, 4.189e-9
-0.178, 4.133e-9
-0.177, 4.079e-9
-0.176, 4.023e-9
-0.175, 3.969e-9
-0.174, 3.920e-9
-0.173, 3.867e-9
-0.172, 3.812e-9
-0.171, 3.765e-9
-0.170, 3.712e-9
-0.169, 3.664e-9
-0.168, 3.619e-9
-0.167, 3.567e-9
-0.166, 3.522e-9
-0.165, 3.477e-9
-0.164, 3.427e-9
-0.163, 3.386e-9
-0.162, 3.338e-9
-0.161, 3.294e-9
-0.160, 3.251e-9
-0.159, 3.207e-9
-0.158, 3.165e-9
-0.157, 3.120e-9
-0.156, 3.076e-9
-0.155, 3.039e-9
-0.154, 2.996e-9
-0.153, 2.954e-9
-0.152, 2.916e-9
-0.151, 2.871e-9
-0.150, 2.835e-9
-0.149, 2.796e-9
-0.148, 2.754e-9
-0.147, 2.721e-9
-0.146, 2.679e-9
-0.145, 2.644e-9
-0.144, 2.610e-9
-0.143, 2.573e-9
-0.142, 2.537e-9
-0.141, 2.497e-9
-0.140, 2.462e-9
-0.139, 2.432e-9
-0.138, 2.396e-9
-0.137, 2.362e-9
-0.136, 2.328e-9
-0.135, 2.295e-9
-0.134, 2.265e-9
-0.133, 2.231e-9
-0.132, 2.196e-9
-0.131, 2.165e-9
-0.130, 2.133e-9
-0.129, 2.101e-9
-0.128, 2.066e-9
-0.127, 2.032e-9
-0.126, 2.004e-9
-0.125, 1.974e-9
-0.124, 1.942e-9
-0.123, 1.916e-9
-0.122, 1.883e-9
-0.121, 1.850e-9
-0.120, 1.823e-9
-0.119, 1.794e-9
-0.118, 1.770e-9
-0.117, 1.739e-9
-0.116, 1.708e-9
-0.115, 1.683e-9
-0.114, 1.654e-9
-0.113, 1.626e-9
-0.112, 1.598e-9
-0.111, 1.567e-9
-0.110, 1.545e-9
-0.109, 1.516e-9
-0.108, 1.489e-9
-0.107, 1.466e-9
-0.106, 1.436e-9
-0.105, 1.409e-9
-0.104, 1.387e-9
-0.103, 1.356e-9
-0.102, 1.329e-9
-0.101, 1.304e-9
-0.100, 1.280e-9
-0.099, 1.260e-9
-0.098, 1.234e-9
-0.097, 1.211e-9
-0.096, 1.186e-9
-0.095, 1.160e-9
-0.094, 1.141e-9
-0.093, 1.113e-9
-0.092, 1.086e-9
-0.091, 1.066e-9
-0.090, 1.039e-9
-0.089, 1.015e-9
-0.088, 9.961e-10
-0.087, 9.688e-10
-0.086, 9.467e-10
-0.085, 9.245e-10
-0.084, 8.971e-10
-0.083, 8.794e-10
-0.082, 8.504e-10
-0.081, 8.276e-10
-0.080, 8.050e-10
-0.079, 7.824e-10
-0.078, 7.621e-10
-0.077, 7.363e-10
-0.076, 7.100e-10
-0.075, 6.936e-10
-0.074, 6.688e-10
-0.073, 6.455e-10
-0.072, 6.193e-10
-0.071, 5.917e-10
-0.070, 5.716e-10
-0.069, 5.460e-10
-0.068, 5.210e-10
-0.067, 4.998e-10
-0.066, 4.737e-10
-0.065, 4.536e-10
-0.064, 4.295e-10
-0.063, 4.036e-10
-0.062, 3.820e-10
-0.061, 3.551e-10
-0.060, 3.291e-10
-0.059, 3.097e-10
-0.058, 2.833e-10
-0.057, 2.555e-10
-0.056, 2.329e-10
-0.055, 2.057e-10
-0.054, 1.852e-10
-0.053, 1.547e-10
-0.052, 1.244e-10
-0.051, 9.699e-11
-0.050, 7.346e-11
-0.049, 4.540e-11
-0.048, 2.148e-11
-0.047, -1.189e-11
-0.046, -3.808e-11
-0.045, -6.545e-11
-0.044, -9.685e-11
-0.043, -1.238e-10
-0.042, -1.578e-10
-0.041, -1.899e-10
-0.040, -2.204e-10
-0.039, -2.557e-10
-0.038, -2.881e-10
-0.037, -3.223e-10
-0.036, -3.606e-10
-0.035, -3.921e-10
-0.034, -4.306e-10
-0.033, -4.661e-10
-0.032, -5.042e-10
-0.031, -5.480e-10
-0.030, -5.837e-10
-0.029, -6.238e-10
-0.028, -6.681e-10
-0.027, -7.108e-10
-0.026, -7.631e-10
-0.025, -8.080e-10
-0.024, -8.506e-10
-0.023, -9.002e-10
-0.022, -9.485e-10
-0.021, -1.001e-9
-0.020, -1.054e-9
-0.019, -1.101e-9
-0.018, -1.160e-9
-0.017, -1.219e-9
-0.016, -1.276e-9
-0.015, -1.338e-9
-0.014, -1.396e-9
-0.013, -1.464e-9
-0.012, -1.536e-9
-0.011, -1.601e-9
-0.010, -1.675e-9
-0.009, -1.748e-9
-0.008, -1.820e-9
-0.007, -1.905e-9
-0.006, -1.982e-9
-0.005, -2.067e-9
-0.004, -2.152e-9
-0.003, -2.239e-9
-0.002, -2.337e-9
-0.001, -2.427e-9
-0.000, -2.557e-9
0.001, -2.653e-9
0.002, -2.744e-9
0.003, -2.855e-9
0.004, -2.967e-9
0.005, -3.078e-9
0.006, -3.202e-9
0.007, -3.326e-9
0.008, -3.447e-9
0.009, -3.580e-9
0.010, -3.713e-9
0.011, -3.854e-9
0.012, -4.001e-9
0.013, -4.156e-9
0.014, -4.315e-9
0.015, -4.472e-9
0.016, -4.640e-9
0.017, -4.815e-9
0.018, -4.988e-9
0.019, -5.175e-9
0.020, -5.368e-9
0.021, -5.558e-9
0.022, -5.768e-9
0.023, -5.978e-9
0.024, -6.189e-9
0.025, -6.423e-9
0.026, -6.652e-9
0.027, -6.895e-9
0.028, -7.143e-9
0.029, -7.399e-9
0.030, -7.664e-9
0.031, -7.931e-9
0.032, -8.206e-9
0.033, -8.504e-9
0.034, -8.797e-9
0.035, -9.098e-9
0.036, -9.414e-9
0.037, -9.727e-9
0.038, -1.007e-8
0.039, -1.041e-8
0.040, -1.077e-8
0.041, -1.113e-8
0.042, -1.150e-8
0.043, -1.189e-8
0.044, -1.228e-8
0.045, -1.267e-8
0.046, -1.310e-8
0.047, -1.352e-8
0.048, -1.395e-8
0.049, -1.440e-8
0.050, -1.486e-8
0.051, -1.534e-8
0.052, -1.583e-8
0.053, -1.631e-8
0.054, -1.682e-8
0.055, -1.732e-8
0.056, -1.785e-8
0.057, -1.839e-8
0.058, -1.893e-8
0.059, -1.949e-8
0.060, -2.006e-8
0.061, -2.062e-8
0.062, -2.122e-8
0.063, -2.181e-8
0.064, -2.242e-8
0.065, -2.305e-8
0.066, -2.366e-8
0.067, -2.430e-8
0.068, -2.495e-8
0.069, -2.558e-8
0.070, -2.625e-8
0.071, -2.690e-8
0.072, -2.757e-8
0.073, -2.826e-8
0.074, -2.891e-8
0.075, -2.961e-8
0.076, -3.030e-8
0.077, -3.101e-8
0.078, -3.172e-8
0.079, -3.240e-8
0.080, -3.309e-8
0.081, -3.379e-8
0.082, -3.447e-8
0.083, -3.517e-8
0.084, -3.586e-8
0.085, -3.655e-8
0.086, -3.724e-8
0.087, -3.791e-8
0.088, -3.859e-8
0.089, -3.927e-8
0.090, -3.992e-8
0.091, -4.059e-8
0.092, -4.124e-8
0.093, -4.186e-8
0.094, -4.249e-8
0.095, -4.310e-8
0.096, -4.370e-8
0.097, -4.431e-8
0.098, -4.487e-8
0.099, -4.544e-8
0.100, -4.599e-8
0.101, -4.652e-8
0.102, -4.708e-8
0.103, -4.759e-8
0.104, -4.806e-8
0.105, -4.854e-8
0.106, -4.899e-8
0.107, -4.942e-8
0.108, -4.985e-8
0.109, -5.024e-8
0.110, -5.062e-8
0.111, -5.097e-8
0.112, -5.132e-8
0.113, -5.165e-8
0.114, -5.195e-8
0.115, -5.225e-8
0.116, -5.252e-8
0.117, -5.277e-8
0.118, -5.301e-8
0.119, -5.322e-8
0.120, -5.341e-8
0.121, -5.360e-8
0.122, -5.376e-8
0.123, -5.391e-8
0.124, -5.404e-8
0.125, -5.415e-8
0.126, -5.426e-8
0.127, -5.433e-8
0.128, -5.441e-8
0.129, -5.447e-8
0.130, -5.450e-8
0.131, -5.452e-8
0.132, -5.454e-8
0.133, -5.453e-8
0.134, -5.451e-8
0.135, -5.447e-8
0.136, -5.443e-8
0.137, -5.439e-8
0.138, -5.432e-8
0.139, -5.427e-8
0.140, -5.419e-8
0.141, -5.410e-8
0.142, -5.402e-8
0.143, -5.390e-8
0.144, -5.379e-8
0.145, -5.368e-8
0.146, -5.354e-8
0.147, -5.342e-8
0.148, -5.329e-8
0.149, -5.314e-8
0.150, -5.300e-8
0.151, -5.284e-8
0.152, -5.269e-8
0.153, -5.255e-8
0.154, -5.238e-8
0.155, -5.221e-8
0.156, -5.205e-8
0.157, -5.186e-8
0.158, -5.170e-8
0.159, -5.152e-8
0.160, -5.134e-8
0.161, -5.117e-8
0.162, -5.098e-8
0.163, -5.080e-8
0.164, -5.063e-8
0.165, -5.044e-8
0.166, -5.026e-8
0.167, -5.008e-8
0.168, -4.989e-8
0.169, -4.971e-8
0.170, -4.952e-8
0.171, -4.934e-8
0.172, -4.917e-8
0.173, -4.899e-8
0.174, -4.881e-8
0.175, -4.862e-8
0.176, -4.844e-8
0.177, -4.827e-8
0.178, -4.809e-8
0.179, -4.792e-8
0.180, -4.775e-8
0.181, -4.757e-8
0.182, -4.739e-8
0.183, -4.723e-8
0.184, -4.706e-8
0.185, -4.689e-8
0.186, -4.672e-8
0.187, -4.656e-8
0.188, -4.640e-8
0.189, -4.624e-8
0.190, -4.608e-8
0.191, -4.592e-8
0.192, -4.577e-8
0.193, -4.562e-8
0.194, -4.546e-8
0.195, -4.531e-8
0.196, -4.516e-8
0.197, -4.502e-8
0.198, -4.487e-8
0.199, -4.473e-8
0.200, -4.459e-8
0.201, -4.445e-8
0.202, -4.431e-8
0.203, -4.418e-8
0.204, -4.405e-8
0.205, -4.392e-8
0.206, -4.379e-8
0.207, -4.367e-8
0.208, -4.355e-8
0.209, -4.343e-8
0.210, -4.330e-8
0.211, -4.318e-8
0.212, -4.306e-8
0.213, -4.294e-8
0.214, -4.283e-8
0.215, -4.271e-8
0.216, -4.260e-8
0.217, -4.250e-8
0.218, -4.239e-8
0.219, -4.228e-8
0.220, -4.217e-8
0.221, -4.207e-8
0.222, -4.197e-8
0.223, -4.187e-8
0.224, -4.177e-8
0.225, -4.168e-8
0.226, -4.158e-8
0.227, -4.148e-8
0.228, -4.140e-8
0.229, -4.130e-8
0.230, -4.121e-8
0.231, -4.112e-8
0.232, -4.103e-8
0.233, -4.095e-8
0.234, -4.087e-8
0.235, -4.078e-8
0.236, -4.070e-8
0.237, -4.062e-8
0.238, -4.055e-8
0.239, -4.046e-8
0.240, -4.039e-8
0.241, -4.032e-8
0.242, -4.024e-8
0.243, -4.017e-8
0.244, -4.010e-8
0.245, -4.003e-8
0.246, -3.996e-8
0.247, -3.989e-8
0.248, -3.982e-8
0.249, -3.976e-8
0.250, -3.969e-8
0.251, -3.963e-8
0.252, -3.956e-8
0.253, -3.950e-8
0.254, -3.944e-8
0.255, -3.938e-8
0.256, -3.932e-8
0.257, -3.927e-8
0.258, -3.921e-8
0.259, -3.915e-8
0.260, -3.910e-8
0.261, -3.904e-8
0.262, -3.899e-8
0.263, -3.894e-8
0.264, -3.889e-8
0.265, -3.884e-8
0.266, -3.878e-8
0.267, -3.873e-8
0.268, -3.867e-8
0.269, -3.863e-8
0.270, -3.858e-8
0.271, -3.854e-8
0.272, -3.849e-8
0.273, -3.845e-8
0.274, -3.840e-8
0.275, -3.836e-8
0.276, -3.832e-8
0.277, -3.827e-8
0.278, -3.823e-8
0.279, -3.819e-8
0.280, -3.815e-8
0.281, -3.811e-8
0.282, -3.807e-8
0.283, -3.803e-8
0.284, -3.800e-8
0.285, -3.796e-8
0.286, -3.792e-8
0.287, -3.789e-8
0.288, -3.785e-8
0.289, -3.782e-8
0.290, -3.778e-8
0.291, -3.775e-8
0.292, -3.772e-8
0.293, -3.768e-8
0.294, -3.766e-8
0.295, -3.763e-8
0.296, -3.759e-8
0.297, -3.756e-8
0.298, -3.753e-8
0.299, -3.750e-8
0.300, -3.711e-8
0.299, -3.607e-8
0.298, -3.576e-8
0.297, -3.560e-8
0.296, -3.546e-8
0.295, -3.533e-8
0.294, -3.522e-8
0.293, -3.512e-8
0.292, -3.501e-8
0.291, -3.493e-8
0.290, -3.484e-8
0.289, -3.476e-8
0.288, -3.468e-8
0.287, -3.459e-8
0.286, -3.452e-8
0.285, -3.444e-8
0.284, -3.437e-8
0.283, -3.430e-8
0.282, -3.422e-8
0.281, -3.416e-8
0.280, -3.410e-8
0.279, -3.403e-8
0.278, -3.397e-8
0.277, -3.391e-8
0.276, -3.384e-8
0.275, -3.379e-8
0.274, -3.373e-8
0.273, -3.367e-8
0.272, -3.361e-8
0.271, -3.355e-8
0.270, -3.350e-8
0.269, -3.344e-8
0.268, -3.339e-8
0.267, -3.333e-8
0.266, -3.328e-8
0.265, -3.323e-8
0.264, -3.318e-8
0.263, -3.312e-8
0.262, -3.307e-8
0.261, -3.301e-8
0.260, -3.297e-8
0.259, -3.292e-8
0.258, -3.287e-8
0.257, -3.282e-8
0.256, -3.276e-8
0.255, -3.271e-8
0.254, -3.266e-8
0.253, -3.262e-8
0.252, -3.256e-8
0.251, -3.252e-8
0.250, -3.247e-8
0.249, -3.242e-8
0.248, -3.237e-8
0.247, -3.232e-8
0.246, -3.227e-8
0.245, -3.222e-8
0.244, -3.217e-8
0.243, -3.212e-8
0.242, -3.206e-8
0.241, -3.202e-8
0.240, -3.197e-8
0.239, -3.192e-8
0.238, -3.187e-8
0.237, -3.182e-8
0.236, -3.176e-8
0.235, -3.171e-8
0.234, -3.166e-8
0.233, -3.162e-8
0.232, -3.156e-8
0.231, -3.151e-8
0.230, -3.145e-8
0.229, -3.140e-8
0.228, -3.134e-8
0.227, -3.128e-8
0.226, -3.119e-8
0.225, -3.116e-8
0.224, -3.110e-8
0.223, -3.103e-8
0.222, -3.097e-8
0.221, -3.090e-8
0.220, -3.083e-8
0.219, -3.076e-8
0.218, -3.071e-8
0.217, -3.064e-8
0.216, -3.057e-8
0.215, -3.050e-8
0.214, -3.043e-8
0.213, -3.035e-8
0.212, -3.029e-8
0.211, -3.022e-8
0.210, -3.012e-8
0.209, -3.009e-8
0.208, -3.001e-8
0.207, -2.991e-8
0.206, -2.982e-8
0.205, -2.973e-8
0.204, -2.964e-8
0.203, -2.955e-8
0.202, -2.941e-8
0.201, -2.905e-8
0.200, -2.852e-8
0.199, -2.877e-8
0.198, -2.880e-8
0.197, -2.877e-8
0.196, -2.879e-8
0.195, -2.858e-8
0.194, -2.826e-8
0.193, -2.825e-8
0.192, -2.826e-8
0.191, -2.814e-8
0.190, -2.789e-8
0.189, -2.784e-8
0.188, -2.763e-8
0.187, -2.768e-8
0.186, -2.750e-8
0.185, -2.713e-8
0.184, -2.715e-8
0.183, -2.689e-8
0.182, -2.649e-8
0.181, -2.644e-8
0.180, -2.624e-8
0.179, -2.609e-8
0.178, -2.585e-8
0.177, -2.566e-8
0.176, -2.569e-8
0.175, -2.554e-8
0.174, -2.521e-8
0.173, -2.500e-8
0.172, -2.476e-8
0.171, -2.455e-8
0.170, -2.438e-8
0.169, -2.414e-8
0.168, -2.397e-8
0.167, -2.371e-8
0.166, -2.328e-8
0.165, -2.299e-8
0.164, -2.263e-8
0.163, -2.228e-8
0.162, -2.191e-8
0.161, -2.061e-8
0.160, -2.028e-8
0.159, -1.994e-8
0.158, -1.944e-8
0.157, -1.904e-8
0.156, -1.888e-8
0.155, -1.839e-8
0.154, -1.799e-8
0.153, -1.456e-8
0.152, -1.411e-8
0.151, -1.707e-8
0.150, -1.669e-8
0.149, -1.582e-8
0.148, -1.417e-8
0.147, -9.225e-9
0.146, -9.311e-9
0.145, -9.861e-9
0.144, -9.951e-9
0.143, -9.847e-9
0.142, -1.045e-8
0.141, -1.098e-8
0.140, -1.006e-8
0.139, -8.964e-9
0.138, -9.948e-9
0.137, -9.583e-9
0.136, -8.691e-9
0.135, -7.711e-9
0.134, -6.907e-9
0.133, -6.476e-9
0.132, -6.892e-9
0.131, -7.357e-9
0.130, -6.892e-9
0.129, -6.675e-9
0.128, -8.047e-9
0.127, -7.966e-9
0.126, -6.448e-9
0.125, -5.861e-9
0.124, -6.773e-9
0.123, -6.842e-9
0.122, -6.061e-9
0.121, -4.656e-9
0.120, -3.818e-9
0.119, -3.159e-9
0.118, -2.543e-9
0.117, -1.967e-9
0.116, -1.440e-9
0.115, -5.882e-10
0.114, 1.863e-11
0.113, 5.531e-10
0.112, 1.115e-9
0.111, 1.676e-9
0.110, 2.265e-9
0.109, 3.195e-9
0.108, 3.431e-9
0.107, 3.832e-9
0.106, 4.519e-9
0.105, 5.143e-9
0.104, 5.940e-9
0.103, 6.327e-9
0.102, 6.836e-9
0.101, 7.047e-9
0.100, 7.530e-9
0.099, 7.585e-9
0.098, 5.922e-9
0.097, 1.018e-8
0.096, 1.065e-8
0.095, 9.834e-9
0.094, 1.085e-8
0.093, 1.127e-8
0.092, 1.180e-8
0.091, 1.109e-8
0.090, 1.029e-8
0.089, 1.016e-8
0.088, 1.111e-8
0.087, 1.073e-8
0.086, 1.021e-8
0.085, 1.036e-8
0.084, 1.031e-8
0.083, 1.041e-8
0.082, 8.993e-9
0.081, 8.602e-9
0.080, 7.262e-9
0.079, 7.297e-9
0.078, 7.974e-9
0.077, 7.839e-9
0.076, 7.893e-9
0.075, 7.603e-9
0.074, 9.891e-9
0.073, 1.482e-8
0.072, 1.799e-8
0.071, 2.019e-8
0.070, 2.025e-8
0.069, 1.988e-8
0.068, 2.320e-8
0.067, 2.379e-8
0.066, 2.239e-8
0.065, 2.090e-8
0.064, 2.013e-8
0.063, 1.683e-8
0.062, 1.288e-8
0.061, 1.167e-8
0.060, 8.647e-9
0.059, 6.293e-9
0.058, 3.941e-9
0.057, 4.404e-9
0.056, 3.926e-9
0.055, 4.020e-9
0.054, 6.442e-9
0.053, 6.570e-9
0.052, 1.029e-8
0.051, 1.112e-8
0.050, 1.238e-8
0.049, 1.208e-8
0.048, 1.461e-8
0.047, 1.395e-8
0.046, 1.339e-8
0.045, 1.331e-8
0.044, 1.331e-8
0.043, 1.416e-8
0.042, 1.701e-8
0.041, 2.019e-8
0.040, 1.984e-8
0.039, 2.157e-8
0.038, 1.931e-8
0.037, 1.833e-8
0.036, 2.164e-8
0.035, 2.058e-8
0.034, 2.122e-8
0.033, 2.251e-8
0.032, 2.077e-8
0.031, 2.007e-8
0.030, 1.721e-8
0.029, 1.974e-8
0.028, 1.306e-8
0.027, 1.466e-8
0.026, 7.445e-9
0.025, 5.680e-9
0.024, 5.249e-9
0.023, 5.659e-9
0.022, 6.064e-9
0.021, 5.922e-9
0.020, 7.126e-9
0.019, 7.968e-9
0.018, 8.595e-9
0.017, 9.899e-9
0.016, 1.152e-8
0.015, 1.195e-8
0.014, 9.153e-9
0.013, 8.632e-9
0.012, 9.227e-9
0.011, 8.843e-9
0.010, 8.905e-9
0.009, 8.911e-9
0.008, 9.255e-9
0.007, 9.790e-9
0.006, 9.784e-9
0.005, 1.091e-8
0.004, 1.292e-8
0.003, 1.420e-8
0.002, 1.402e-8
0.001, 1.414e-8
0.000, 1.407e-8
-0.001, 1.442e-8
-0.002, 1.447e-8
-0.003, 1.662e-8
-0.004, 1.834e-8
-0.005, 1.691e-8
-0.006, 1.631e-8
-0.007, 1.827e-8
-0.008, 1.844e-8
-0.009, 1.727e-8
-0.010, 1.605e-8
-0.011, 1.600e-8
-0.012, 1.302e-8
-0.013, 8.611e-9
-0.014, 8.254e-9
-0.015, 9.374e-9
-0.016, 1.032e-8
-0.017, 1.176e-8
-0.018, 9.752e-9
-0.019, 1.052e-8
-0.020, 1.167e-8
-0.021, 9.444e-9
-0.022, 8.350e-9
-0.023, 8.578e-9
-0.024, 7.648e-9
-0.025, 7.564e-9
-0.026, 9.882e-9
-0.027, 8.588e-9
-0.028, 8.819e-9
-0.029, 1.213e-8
-0.030, 1.122e-8
-0.031, 1.166e-8
-0.032, 1.119e-8
-0.033, 1.137e-8
-0.034, 8.856e-9
-0.035, 7.615e-9
-0.036, 7.174e-9
-0.037, 7.900e-9
-0.038, 9.240e-9
-0.039, 9.526e-9
-0.040, 1.028e-8
-0.041, 1.198e-8
-0.042, 2.071e-8
-0.043, 2.179e-8
-0.044, 2.133e-8
-0.045, 2.056e-8
-0.046, 2.063e-8
-0.047, 1.958e-8
-0.048, 1.670e-8
-0.049, 1.709e-8
-0.050, 1.711e-8
-0.051, 1.682e-8
-0.052, 1.391e-8
-0.053, 1.432e-8
-0.054, 1.450e-8
-0.055, 1.634e-8
-0.056, 1.657e-8
-0.057, 1.490e-8
-0.058, 1.270e-8
-0.059, 1.204e-8
-0.060, 1.336e-8
-0.061, 1.314e-8
-0.062, 1.566e-8
-0.063, 1.372e-8
-0.064, 1.343e-8
-0.065, 1.470e-8
-0.066, 1.360e-8
-0.067, 1.374e-8
-0.068, 1.176e-8
-0.069, 1.051e-8
-0.070, 1.710e-8
-0.071, 1.126e-8
-0.072, 1.405e-8
-0.073, 1.380e-8
-0.074, 1.421e-8
-0.075, 1.523e-8
-0.076, 1.813e-8
-0.077, 1.824e-8
-0.078, 1.425e-8
-0.079, 1.493e-8
-0.080, 1.938e-8
-0.081, 1.211e-8
-0.082, 1.313e-8
-0.083, 1.166e-8
-0.084, 1.142e-8
-0.085, 1.244e-8
-0.086, 1.242e-8
-0.087, 1.305e-8
-0.088, 1.405e-8
-0.089, 1.265e-8
-0.090, 1.270e-8
-0.091, 1.127e-8
-0.092, 1.075e-8
-0.093, 9.865e-9
-0.094, 1.091e-8
-0.095, 1.200e-8
-0.096, 1.448e-8
-0.097, 1.370e-8
-0.098, 1.361e-8
-0.099, 1.246e-8
-0.100, 1.102e-8
-0.101, 1.154e-8
-0.102, 1.068e-8
-0.103, 1.020e-8
-0.104, 1.032e-8
-0.105, 1.226e-8
-0.106, 1.152e-8
-0.107, 1.274e-8
-0.108, 1.165e-8
-0.109, 1.200e-8
-0.110, 1.164e-8
-0.111, 1.133e-8
-0.112, 1.105e-8
-0.113, 1.008e-8
-0.114, 9.599e-9
-0.115, 1.152e-8
-0.116, 1.068e-8
-0.117, 1.056e-8
-0.118, 1.075e-8
-0.119, 1.126e-8
-0.120, 9.908e-9
-0.121, 9.679e-9
-0.122, 7.934e-9
-0.123, 9.617e-9
-0.124, 1.266e-8
-0.125, 1.231e-8
-0.126, 1.247e-8
-0.127, 1.265e-8
-0.128, 1.320e-8
-0.129, 1.177e-8
-0.130, 1.136e-8
-0.131, 1.042e-8
-0.132, 1.200e-8
-0.133, 1.088e-8
-0.134, 1.150e-8
-0.135, 1.092e-8
-0.136, 1.019e-8
-0.137, 1.027e-8
-0.138, 8.658e-9
-0.139, 8.222e-9
-0.140, 8.220e-9
-0.141, 9.672e-9
-0.142, 9.929e-9
-0.143, 1.074e-8
-0.144, 1.010e-8
-0.145, 9.443e-9
-0.146, 7.893e-9
-0.147, 7.949e-9
-0.148, 8.534e-9
-0.149, 1.267e-8
-0.150, 1.470e-8
-0.151, 1.208e-8
-0.152, 1.097e-8
-0.153, 8.958e-9
-0.154, 9.126e-9
-0.155, 9.953e-9
-0.156, 9.981e-9
-0.157, 1.027e-8
-0.158, 8.740e-9
-0.159, 8.135e-9
-0.160, 1.073e-8
-0.161, 1.160e-8
-0.162, 1.090e-8
-0.163, 1.216e-8
-0.164, 1.282e-8
-0.165, 1.067e-8
-0.166, 1.029e-8
-0.167, 1.041e-8
-0.168, 1.201e-8
-0.169, 1.173e-8
-0.170, 9.465e-9
-0.171, 1.080e-8
-0.172, 1.032e-8
-0.173, 9.668e-9
-0.174, 9.887e-9
-0.175, 9.780e-9
-0.176, 9.845e-9
-0.177, 9.058e-9
-0.178, 8.683e-9
-0.179, 8.899e-9
-0.180, 1.121e-8
-0.181, 1.044e-8
-0.182, 7.511e-9
-0.183, 5.692e-9
-0.184, 6.919e-9
-0.185, 7.880e-9
-0.186, 8.391e-9
-0.187, 9.240e-9
-0.188, 1.062e-8
-0.189, 1.143e-8
-0.190, 1.101e-8
-0.191, 1.133e-8
-0.192, 9.918e-9
-0.193, 8.055e-9
-0.194, 8.825e-9
-0.195, 1.077e-8
-0.196, 1.140e-8
-0.197, 9.971e-9
-0.198, 1.006e-8
-0.199, 1.038e-8
