Mar. 16, 2023   10:11:54
Cyclic Voltammetry
File: c:/users/oliverrz/desktop/electrolab/data/2023_03_16\fcmeoh_macros_1_mm\electrode4_cv_50mvs_1_mm.bin
Data Source:  Experiment
Instrument Model:  CHI760E
Header: CV
Note: 

Init E (V) = -0.2
High E (V) = 0.3
Low E (V) = -0.2
Final E (V) = -0.2
Init P/N = P
Scan Rate (V/s) = 0.05
Segment = 3
Sample Interval (V) = 0.001
Quiet Time (sec) = 2
Sensitivity (A/V) = 1e-7

Results:

Channel 1:
Segment 1:
Ep = 0.126V
ip = -4.960e-8A
Ah = -6.290e-8C

Segment 2:
Ep = 0.055V
ip = 4.792e-8A
Ah = 6.148e-8C

Segment 3:

Potential/V, Current/A

-0.200, 1.049e-8
-0.199, 9.894e-9
-0.198, 9.658e-9
-0.197, 9.495e-9
-0.196, 9.345e-9
-0.195, 9.210e-9
-0.194, 9.073e-9
-0.193, 8.949e-9
-0.192, 8.816e-9
-0.191, 8.691e-9
-0.190, 8.574e-9
-0.189, 8.451e-9
-0.188, 8.332e-9
-0.187, 8.225e-9
-0.186, 8.108e-9
-0.185, 8.000e-9
-0.184, 7.892e-9
-0.183, 7.785e-9
-0.182, 7.682e-9
-0.181, 7.577e-9
-0.180, 7.474e-9
-0.179, 7.373e-9
-0.178, 7.275e-9
-0.177, 7.178e-9
-0.176, 7.084e-9
-0.175, 6.987e-9
-0.174, 6.899e-9
-0.173, 6.804e-9
-0.172, 6.708e-9
-0.171, 6.621e-9
-0.170, 6.533e-9
-0.169, 6.449e-9
-0.168, 6.366e-9
-0.167, 6.275e-9
-0.166, 6.190e-9
-0.165, 6.112e-9
-0.164, 6.028e-9
-0.163, 5.949e-9
-0.162, 5.871e-9
-0.161, 5.789e-9
-0.160, 5.714e-9
-0.159, 5.637e-9
-0.158, 5.562e-9
-0.157, 5.484e-9
-0.156, 5.409e-9
-0.155, 5.343e-9
-0.154, 5.264e-9
-0.153, 5.194e-9
-0.152, 5.122e-9
-0.151, 5.052e-9
-0.150, 4.987e-9
-0.149, 4.920e-9
-0.148, 4.853e-9
-0.147, 4.789e-9
-0.146, 4.718e-9
-0.145, 4.657e-9
-0.144, 4.596e-9
-0.143, 4.530e-9
-0.142, 4.467e-9
-0.141, 4.406e-9
-0.140, 4.347e-9
-0.139, 4.292e-9
-0.138, 4.230e-9
-0.137, 4.170e-9
-0.136, 4.115e-9
-0.135, 4.058e-9
-0.134, 4.003e-9
-0.133, 3.946e-9
-0.132, 3.889e-9
-0.131, 3.837e-9
-0.130, 3.781e-9
-0.129, 3.730e-9
-0.128, 3.675e-9
-0.127, 3.621e-9
-0.126, 3.574e-9
-0.125, 3.526e-9
-0.124, 3.474e-9
-0.123, 3.429e-9
-0.122, 3.374e-9
-0.121, 3.325e-9
-0.120, 3.283e-9
-0.119, 3.233e-9
-0.118, 3.188e-9
-0.117, 3.138e-9
-0.116, 3.091e-9
-0.115, 3.050e-9
-0.114, 3.004e-9
-0.113, 2.960e-9
-0.112, 2.918e-9
-0.111, 2.869e-9
-0.110, 2.831e-9
-0.109, 2.788e-9
-0.108, 2.745e-9
-0.107, 2.705e-9
-0.106, 2.662e-9
-0.105, 2.624e-9
-0.104, 2.584e-9
-0.103, 2.544e-9
-0.102, 2.502e-9
-0.101, 2.464e-9
-0.100, 2.426e-9
-0.099, 2.390e-9
-0.098, 2.350e-9
-0.097, 2.313e-9
-0.096, 2.279e-9
-0.095, 2.242e-9
-0.094, 2.208e-9
-0.093, 2.171e-9
-0.092, 2.131e-9
-0.091, 2.096e-9
-0.090, 2.058e-9
-0.089, 2.025e-9
-0.088, 1.993e-9
-0.087, 1.954e-9
-0.086, 1.922e-9
-0.085, 1.888e-9
-0.084, 1.850e-9
-0.083, 1.820e-9
-0.082, 1.784e-9
-0.081, 1.750e-9
-0.080, 1.720e-9
-0.079, 1.685e-9
-0.078, 1.652e-9
-0.077, 1.615e-9
-0.076, 1.579e-9
-0.075, 1.550e-9
-0.074, 1.516e-9
-0.073, 1.485e-9
-0.072, 1.451e-9
-0.071, 1.414e-9
-0.070, 1.386e-9
-0.069, 1.351e-9
-0.068, 1.317e-9
-0.067, 1.287e-9
-0.066, 1.252e-9
-0.065, 1.222e-9
-0.064, 1.190e-9
-0.063, 1.154e-9
-0.062, 1.122e-9
-0.061, 1.088e-9
-0.060, 1.052e-9
-0.059, 1.022e-9
-0.058, 9.873e-10
-0.057, 9.510e-10
-0.056, 9.171e-10
-0.055, 8.795e-10
-0.054, 8.456e-10
-0.053, 8.084e-10
-0.052, 7.674e-10
-0.051, 7.308e-10
-0.050, 6.981e-10
-0.049, 6.611e-10
-0.048, 6.216e-10
-0.047, 5.750e-10
-0.046, 5.372e-10
-0.045, 4.996e-10
-0.044, 4.579e-10
-0.043, 4.220e-10
-0.042, 3.758e-10
-0.041, 3.346e-10
-0.040, 2.944e-10
-0.039, 2.472e-10
-0.038, 2.055e-10
-0.037, 1.568e-10
-0.036, 1.092e-10
-0.035, 6.696e-11
-0.034, 1.676e-11
-0.033, -3.109e-11
-0.032, -8.061e-11
-0.031, -1.368e-10
-0.030, -1.852e-10
-0.029, -2.397e-10
-0.028, -2.963e-10
-0.027, -3.522e-10
-0.026, -4.155e-10
-0.025, -4.752e-10
-0.024, -5.347e-10
-0.023, -5.978e-10
-0.022, -6.614e-10
-0.021, -7.300e-10
-0.020, -7.973e-10
-0.019, -8.637e-10
-0.018, -9.398e-10
-0.017, -1.013e-9
-0.016, -1.089e-9
-0.015, -1.166e-9
-0.014, -1.244e-9
-0.013, -1.330e-9
-0.012, -1.418e-9
-0.011, -1.504e-9
-0.010, -1.596e-9
-0.009, -1.689e-9
-0.008, -1.785e-9
-0.007, -1.891e-9
-0.006, -1.990e-9
-0.005, -2.100e-9
-0.004, -2.210e-9
-0.003, -2.316e-9
-0.002, -2.437e-9
-0.001, -2.558e-9
-0.000, -2.713e-9
0.001, -2.841e-9
0.002, -2.959e-9
0.003, -3.098e-9
0.004, -3.239e-9
0.005, -3.383e-9
0.006, -3.526e-9
0.007, -3.681e-9
0.008, -3.844e-9
0.009, -4.014e-9
0.010, -4.179e-9
0.011, -4.359e-9
0.012, -4.547e-9
0.013, -4.735e-9
0.014, -4.931e-9
0.015, -5.131e-9
0.016, -5.336e-9
0.017, -5.555e-9
0.018, -5.775e-9
0.019, -6.007e-9
0.020, -6.240e-9
0.021, -6.482e-9
0.022, -6.735e-9
0.023, -6.996e-9
0.024, -7.266e-9
0.025, -7.551e-9
0.026, -7.835e-9
0.027, -8.127e-9
0.028, -8.436e-9
0.029, -8.736e-9
0.030, -9.061e-9
0.031, -9.388e-9
0.032, -9.720e-9
0.033, -1.008e-8
0.034, -1.043e-8
0.035, -1.080e-8
0.036, -1.118e-8
0.037, -1.156e-8
0.038, -1.197e-8
0.039, -1.238e-8
0.040, -1.280e-8
0.041, -1.323e-8
0.042, -1.367e-8
0.043, -1.413e-8
0.044, -1.459e-8
0.045, -1.506e-8
0.046, -1.556e-8
0.047, -1.605e-8
0.048, -1.657e-8
0.049, -1.709e-8
0.050, -1.761e-8
0.051, -1.817e-8
0.052, -1.873e-8
0.053, -1.928e-8
0.054, -1.986e-8
0.055, -2.043e-8
0.056, -2.102e-8
0.057, -2.164e-8
0.058, -2.224e-8
0.059, -2.288e-8
0.060, -2.351e-8
0.061, -2.414e-8
0.062, -2.480e-8
0.063, -2.545e-8
0.064, -2.613e-8
0.065, -2.681e-8
0.066, -2.747e-8
0.067, -2.816e-8
0.068, -2.885e-8
0.069, -2.953e-8
0.070, -3.024e-8
0.071, -3.093e-8
0.072, -3.165e-8
0.073, -3.237e-8
0.074, -3.304e-8
0.075, -3.376e-8
0.076, -3.448e-8
0.077, -3.518e-8
0.078, -3.590e-8
0.079, -3.658e-8
0.080, -3.726e-8
0.081, -3.796e-8
0.082, -3.864e-8
0.083, -3.933e-8
0.084, -4.001e-8
0.085, -4.066e-8
0.086, -4.133e-8
0.087, -4.196e-8
0.088, -4.259e-8
0.089, -4.322e-8
0.090, -4.384e-8
0.091, -4.444e-8
0.092, -4.503e-8
0.093, -4.558e-8
0.094, -4.615e-8
0.095, -4.669e-8
0.096, -4.721e-8
0.097, -4.773e-8
0.098, -4.822e-8
0.099, -4.871e-8
0.100, -4.916e-8
0.101, -4.958e-8
0.102, -5.004e-8
0.103, -5.046e-8
0.104, -5.083e-8
0.105, -5.121e-8
0.106, -5.153e-8
0.107, -5.187e-8
0.108, -5.219e-8
0.109, -5.246e-8
0.110, -5.275e-8
0.111, -5.300e-8
0.112, -5.323e-8
0.113, -5.346e-8
0.114, -5.365e-8
0.115, -5.385e-8
0.116, -5.401e-8
0.117, -5.415e-8
0.118, -5.429e-8
0.119, -5.440e-8
0.120, -5.449e-8
0.121, -5.459e-8
0.122, -5.464e-8
0.123, -5.470e-8
0.124, -5.475e-8
0.125, -5.476e-8
0.126, -5.478e-8
0.127, -5.478e-8
0.128, -5.477e-8
0.129, -5.475e-8
0.130, -5.470e-8
0.131, -5.465e-8
0.132, -5.460e-8
0.133, -5.452e-8
0.134, -5.445e-8
0.135, -5.436e-8
0.136, -5.426e-8
0.137, -5.417e-8
0.138, -5.405e-8
0.139, -5.394e-8
0.140, -5.381e-8
0.141, -5.368e-8
0.142, -5.355e-8
0.143, -5.340e-8
0.144, -5.326e-8
0.145, -5.311e-8
0.146, -5.295e-8
0.147, -5.279e-8
0.148, -5.263e-8
0.149, -5.246e-8
0.150, -5.230e-8
0.151, -5.212e-8
0.152, -5.194e-8
0.153, -5.178e-8
0.154, -5.161e-8
0.155, -5.143e-8
0.156, -5.124e-8
0.157, -5.105e-8
0.158, -5.088e-8
0.159, -5.070e-8
0.160, -5.051e-8
0.161, -5.033e-8
0.162, -5.014e-8
0.163, -4.996e-8
0.164, -4.978e-8
0.165, -4.959e-8
0.166, -4.942e-8
0.167, -4.924e-8
0.168, -4.906e-8
0.169, -4.888e-8
0.170, -4.869e-8
0.171, -4.851e-8
0.172, -4.834e-8
0.173, -4.816e-8
0.174, -4.799e-8
0.175, -4.782e-8
0.176, -4.764e-8
0.177, -4.747e-8
0.178, -4.730e-8
0.179, -4.714e-8
0.180, -4.698e-8
0.181, -4.681e-8
0.182, -4.665e-8
0.183, -4.648e-8
0.184, -4.632e-8
0.185, -4.617e-8
0.186, -4.601e-8
0.187, -4.586e-8
0.188, -4.571e-8
0.189, -4.555e-8
0.190, -4.541e-8
0.191, -4.526e-8
0.192, -4.512e-8
0.193, -4.499e-8
0.194, -4.484e-8
0.195, -4.470e-8
0.196, -4.457e-8
0.197, -4.444e-8
0.198, -4.431e-8
0.199, -4.417e-8
0.200, -4.404e-8
0.201, -4.391e-8
0.202, -4.379e-8
0.203, -4.366e-8
0.204, -4.354e-8
0.205, -4.342e-8
0.206, -4.330e-8
0.207, -4.318e-8
0.208, -4.307e-8
0.209, -4.295e-8
0.210, -4.284e-8
0.211, -4.273e-8
0.212, -4.262e-8
0.213, -4.251e-8
0.214, -4.241e-8
0.215, -4.230e-8
0.216, -4.220e-8
0.217, -4.210e-8
0.218, -4.200e-8
0.219, -4.190e-8
0.220, -4.181e-8
0.221, -4.171e-8
0.222, -4.162e-8
0.223, -4.153e-8
0.224, -4.143e-8
0.225, -4.135e-8
0.226, -4.126e-8
0.227, -4.117e-8
0.228, -4.109e-8
0.229, -4.100e-8
0.230, -4.092e-8
0.231, -4.084e-8
0.232, -4.076e-8
0.233, -4.068e-8
0.234, -4.060e-8
0.235, -4.052e-8
0.236, -4.044e-8
0.237, -4.037e-8
0.238, -4.030e-8
0.239, -4.022e-8
0.240, -4.015e-8
0.241, -4.008e-8
0.242, -4.001e-8
0.243, -3.994e-8
0.244, -3.988e-8
0.245, -3.981e-8
0.246, -3.975e-8
0.247, -3.969e-8
0.248, -3.963e-8
0.249, -3.957e-8
0.250, -3.951e-8
0.251, -3.945e-8
0.252, -3.939e-8
0.253, -3.933e-8
0.254, -3.928e-8
0.255, -3.922e-8
0.256, -3.916e-8
0.257, -3.911e-8
0.258, -3.906e-8
0.259, -3.901e-8
0.260, -3.896e-8
0.261, -3.890e-8
0.262, -3.886e-8
0.263, -3.881e-8
0.264, -3.876e-8
0.265, -3.871e-8
0.266, -3.866e-8
0.267, -3.861e-8
0.268, -3.857e-8
0.269, -3.853e-8
0.270, -3.849e-8
0.271, -3.845e-8
0.272, -3.841e-8
0.273, -3.837e-8
0.274, -3.833e-8
0.275, -3.829e-8
0.276, -3.825e-8
0.277, -3.820e-8
0.278, -3.817e-8
0.279, -3.813e-8
0.280, -3.809e-8
0.281, -3.806e-8
0.282, -3.803e-8
0.283, -3.800e-8
0.284, -3.797e-8
0.285, -3.793e-8
0.286, -3.790e-8
0.287, -3.787e-8
0.288, -3.785e-8
0.289, -3.782e-8
0.290, -3.779e-8
0.291, -3.776e-8
0.292, -3.773e-8
0.293, -3.771e-8
0.294, -3.768e-8
0.295, -3.765e-8
0.296, -3.762e-8
0.297, -3.760e-8
0.298, -3.757e-8
0.299, -3.755e-8
0.300, -3.718e-8
0.299, -3.618e-8
0.298, -3.587e-8
0.297, -3.571e-8
0.296, -3.557e-8
0.295, -3.544e-8
0.294, -3.533e-8
0.293, -3.523e-8
0.292, -3.513e-8
0.291, -3.504e-8
0.290, -3.494e-8
0.289, -3.486e-8
0.288, -3.477e-8
0.287, -3.469e-8
0.286, -3.462e-8
0.285, -3.453e-8
0.284, -3.446e-8
0.283, -3.438e-8
0.282, -3.431e-8
0.281, -3.424e-8
0.280, -3.417e-8
0.279, -3.410e-8
0.278, -3.404e-8
0.277, -3.398e-8
0.276, -3.391e-8
0.275, -3.385e-8
0.274, -3.379e-8
0.273, -3.374e-8
0.272, -3.368e-8
0.271, -3.362e-8
0.270, -3.357e-8
0.269, -3.351e-8
0.268, -3.345e-8
0.267, -3.340e-8
0.266, -3.334e-8
0.265, -3.328e-8
0.264, -3.323e-8
0.263, -3.318e-8
0.262, -3.313e-8
0.261, -3.307e-8
0.260, -3.302e-8
0.259, -3.297e-8
0.258, -3.291e-8
0.257, -3.286e-8
0.256, -3.281e-8
0.255, -3.276e-8
0.254, -3.271e-8
0.253, -3.266e-8
0.252, -3.261e-8
0.251, -3.256e-8
0.250, -3.251e-8
0.249, -3.247e-8
0.248, -3.242e-8
0.247, -3.237e-8
0.246, -3.232e-8
0.245, -3.227e-8
0.244, -3.223e-8
0.243, -3.219e-8
0.242, -3.213e-8
0.241, -3.208e-8
0.240, -3.203e-8
0.239, -3.198e-8
0.238, -3.193e-8
0.237, -3.188e-8
0.236, -3.182e-8
0.235, -3.177e-8
0.234, -3.172e-8
0.233, -3.167e-8
0.232, -3.162e-8
0.231, -3.156e-8
0.230, -3.151e-8
0.229, -3.145e-8
0.228, -3.141e-8
0.227, -3.136e-8
0.226, -3.129e-8
0.225, -3.124e-8
0.224, -3.119e-8
0.223, -3.113e-8
0.222, -3.108e-8
0.221, -3.102e-8
0.220, -3.096e-8
0.219, -3.090e-8
0.218, -3.083e-8
0.217, -3.077e-8
0.216, -3.071e-8
0.215, -3.065e-8
0.214, -3.059e-8
0.213, -3.052e-8
0.212, -3.045e-8
0.211, -3.039e-8
0.210, -3.032e-8
0.209, -3.026e-8
0.208, -3.019e-8
0.207, -3.011e-8
0.206, -3.004e-8
0.205, -2.995e-8
0.204, -2.988e-8
0.203, -2.980e-8
0.202, -2.973e-8
0.201, -2.965e-8
0.200, -2.956e-8
0.199, -2.947e-8
0.198, -2.938e-8
0.197, -2.930e-8
0.196, -2.920e-8
0.195, -2.910e-8
0.194, -2.900e-8
0.193, -2.891e-8
0.192, -2.880e-8
0.191, -2.869e-8
0.190, -2.858e-8
0.189, -2.847e-8
0.188, -2.836e-8
0.187, -2.825e-8
0.186, -2.812e-8
0.185, -2.800e-8
0.184, -2.787e-8
0.183, -2.773e-8
0.182, -2.760e-8
0.181, -2.746e-8
0.180, -2.731e-8
0.179, -2.716e-8
0.178, -2.701e-8
0.177, -2.685e-8
0.176, -2.669e-8
0.175, -2.652e-8
0.174, -2.635e-8
0.173, -2.617e-8
0.172, -2.598e-8
0.171, -2.579e-8
0.170, -2.559e-8
0.169, -2.540e-8
0.168, -2.519e-8
0.167, -2.498e-8
0.166, -2.476e-8
0.165, -2.454e-8
0.164, -2.431e-8
0.163, -2.407e-8
0.162, -2.382e-8
0.161, -2.357e-8
0.160, -2.330e-8
0.159, -2.304e-8
0.158, -2.276e-8
0.157, -2.247e-8
0.156, -2.218e-8
0.155, -2.188e-8
0.154, -2.156e-8
0.153, -2.124e-8
0.152, -2.091e-8
0.151, -2.057e-8
0.150, -2.024e-8
0.149, -1.988e-8
0.148, -1.952e-8
0.147, -1.915e-8
0.146, -1.876e-8
0.145, -1.837e-8
0.144, -1.796e-8
0.143, -1.754e-8
0.142, -1.713e-8
0.141, -1.668e-8
0.140, -1.624e-8
0.139, -1.578e-8
0.138, -1.531e-8
0.137, -1.482e-8
0.136, -1.433e-8
0.135, -1.382e-8
0.134, -1.332e-8
0.133, -1.279e-8
0.132, -1.226e-8
0.131, -1.171e-8
0.130, -1.115e-8
0.129, -1.060e-8
0.128, -1.000e-8
0.127, -9.409e-9
0.126, -8.828e-9
0.125, -8.209e-9
0.124, -7.606e-9
0.123, -6.975e-9
0.122, -6.336e-9
0.121, -5.712e-9
0.120, -5.047e-9
0.119, -4.385e-9
0.118, -3.744e-9
0.117, -3.064e-9
0.116, -2.388e-9
0.115, -1.699e-9
0.114, -1.002e-9
0.113, -3.293e-10
0.112, 3.732e-10
0.111, 1.082e-9
0.110, 1.781e-9
0.109, 2.497e-9
0.108, 3.190e-9
0.107, 3.884e-9
0.106, 4.600e-9
0.105, 5.286e-9
0.104, 5.988e-9
0.103, 6.690e-9
0.102, 7.407e-9
0.101, 8.101e-9
0.100, 8.766e-9
0.099, 9.440e-9
0.098, 1.012e-8
0.097, 1.077e-8
0.096, 1.143e-8
0.095, 1.207e-8
0.094, 1.269e-8
0.093, 1.333e-8
0.092, 1.392e-8
0.091, 1.452e-8
0.090, 1.511e-8
0.089, 1.568e-8
0.088, 1.624e-8
0.087, 1.679e-8
0.086, 1.730e-8
0.085, 1.783e-8
0.084, 1.831e-8
0.083, 1.879e-8
0.082, 1.925e-8
0.081, 1.969e-8
0.080, 2.012e-8
0.079, 2.054e-8
0.078, 2.092e-8
0.077, 2.131e-8
0.076, 2.168e-8
0.075, 2.199e-8
0.074, 2.232e-8
0.073, 2.260e-8
0.072, 2.289e-8
0.071, 2.317e-8
0.070, 2.340e-8
0.069, 2.364e-8
0.068, 2.384e-8
0.067, 2.403e-8
0.066, 2.423e-8
0.065, 2.439e-8
0.064, 2.454e-8
0.063, 2.467e-8
0.062, 2.478e-8
0.061, 2.488e-8
0.060, 2.494e-8
0.059, 2.502e-8
0.058, 2.508e-8
0.057, 2.511e-8
0.056, 2.515e-8
0.055, 2.517e-8
0.054, 2.516e-8
0.053, 2.517e-8
0.052, 2.515e-8
0.051, 2.513e-8
0.050, 2.509e-8
0.049, 2.503e-8
0.048, 2.498e-8
0.047, 2.491e-8
0.046, 2.483e-8
0.045, 2.475e-8
0.044, 2.465e-8
0.043, 2.456e-8
0.042, 2.446e-8
0.041, 2.434e-8
0.040, 2.423e-8
0.039, 2.411e-8
0.038, 2.398e-8
0.037, 2.386e-8
0.036, 2.372e-8
0.035, 2.358e-8
0.034, 2.344e-8
0.033, 2.329e-8
0.032, 2.315e-8
0.031, 2.300e-8
0.030, 2.285e-8
0.029, 2.270e-8
0.028, 2.254e-8
0.027, 2.238e-8
0.026, 2.224e-8
0.025, 2.208e-8
0.024, 2.191e-8
0.023, 2.176e-8
0.022, 2.159e-8
0.021, 2.144e-8
0.020, 2.127e-8
0.019, 2.111e-8
0.018, 2.095e-8
0.017, 2.078e-8
0.016, 2.063e-8
0.015, 2.047e-8
0.014, 2.031e-8
0.013, 2.016e-8
0.012, 2.000e-8
0.011, 1.985e-8
0.010, 1.969e-8
0.009, 1.954e-8
0.008, 1.939e-8
0.007, 1.924e-8
0.006, 1.908e-8
0.005, 1.894e-8
0.004, 1.879e-8
0.003, 1.865e-8
0.002, 1.851e-8
0.001, 1.836e-8
0.000, 1.826e-8
-0.001, 1.812e-8
-0.002, 1.797e-8
-0.003, 1.783e-8
-0.004, 1.769e-8
-0.005, 1.756e-8
-0.006, 1.744e-8
-0.007, 1.730e-8
-0.008, 1.718e-8
-0.009, 1.706e-8
-0.010, 1.693e-8
-0.011, 1.681e-8
-0.012, 1.669e-8
-0.013, 1.658e-8
-0.014, 1.646e-8
-0.015, 1.634e-8
-0.016, 1.623e-8
-0.017, 1.612e-8
-0.018, 1.601e-8
-0.019, 1.591e-8
-0.020, 1.581e-8
-0.021, 1.570e-8
-0.022, 1.560e-8
-0.023, 1.550e-8
-0.024, 1.541e-8
-0.025, 1.532e-8
-0.026, 1.523e-8
-0.027, 1.513e-8
-0.028, 1.504e-8
-0.029, 1.495e-8
-0.030, 1.487e-8
-0.031, 1.478e-8
-0.032, 1.470e-8
-0.033, 1.462e-8
-0.034, 1.455e-8
-0.035, 1.447e-8
-0.036, 1.440e-8
-0.037, 1.432e-8
-0.038, 1.425e-8
-0.039, 1.418e-8
-0.040, 1.411e-8
-0.041, 1.405e-8
-0.042, 1.397e-8
-0.043, 1.391e-8
-0.044, 1.385e-8
-0.045, 1.378e-8
-0.046, 1.372e-8
-0.047, 1.366e-8
-0.048, 1.360e-8
-0.049, 1.355e-8
-0.050, 1.350e-8
-0.051, 1.345e-8
-0.052, 1.339e-8
-0.053, 1.334e-8
-0.054, 1.329e-8
-0.055, 1.325e-8
-0.056, 1.320e-8
-0.057, 1.315e-8
-0.058, 1.311e-8
-0.059, 1.307e-8
-0.060, 1.303e-8
-0.061, 1.298e-8
-0.062, 1.295e-8
-0.063, 1.291e-8
-0.064, 1.287e-8
-0.065, 1.284e-8
-0.066, 1.280e-8
-0.067, 1.277e-8
-0.068, 1.273e-8
-0.069, 1.270e-8
-0.070, 1.268e-8
-0.071, 1.264e-8
-0.072, 1.262e-8
-0.073, 1.259e-8
-0.074, 1.257e-8
-0.075, 1.254e-8
-0.076, 1.252e-8
-0.077, 1.250e-8
-0.078, 1.248e-8
-0.079, 1.246e-8
-0.080, 1.244e-8
-0.081, 1.243e-8
-0.082, 1.240e-8
-0.083, 1.239e-8
-0.084, 1.238e-8
-0.085, 1.236e-8
-0.086, 1.235e-8
-0.087, 1.234e-8
-0.088, 1.233e-8
-0.089, 1.233e-8
-0.090, 1.232e-8
-0.091, 1.232e-8
-0.092, 1.231e-8
-0.093, 1.230e-8
-0.094, 1.231e-8
-0.095, 1.230e-8
-0.096, 1.230e-8
-0.097, 1.230e-8
-0.098, 1.230e-8
-0.099, 1.230e-8
-0.100, 1.230e-8
-0.101, 1.231e-8
-0.102, 1.231e-8
-0.103, 1.232e-8
-0.104, 1.232e-8
-0.105, 1.233e-8
-0.106, 1.233e-8
-0.107, 1.234e-8
-0.108, 1.235e-8
-0.109, 1.236e-8
-0.110, 1.238e-8
-0.111, 1.239e-8
-0.112, 1.240e-8
-0.113, 1.242e-8
-0.114, 1.243e-8
-0.115, 1.246e-8
-0.116, 1.248e-8
-0.117, 1.250e-8
-0.118, 1.251e-8
-0.119, 1.253e-8
-0.120, 1.256e-8
-0.121, 1.258e-8
-0.122, 1.260e-8
-0.123, 1.263e-8
-0.124, 1.266e-8
-0.125, 1.268e-8
-0.126, 1.272e-8
-0.127, 1.274e-8
-0.128, 1.278e-8
-0.129, 1.281e-8
-0.130, 1.284e-8
-0.131, 1.287e-8
-0.132, 1.290e-8
-0.133, 1.294e-8
-0.134, 1.298e-8
-0.135, 1.302e-8
-0.136, 1.305e-8
-0.137, 1.309e-8
-0.138, 1.313e-8
-0.139, 1.318e-8
-0.140, 1.322e-8
-0.141, 1.326e-8
-0.142, 1.331e-8
-0.143, 1.335e-8
-0.144, 1.340e-8
-0.145, 1.345e-8
-0.146, 1.350e-8
-0.147, 1.355e-8
-0.148, 1.360e-8
-0.149, 1.365e-8
-0.150, 1.371e-8
-0.151, 1.376e-8
-0.152, 1.381e-8
-0.153, 1.387e-8
-0.154, 1.394e-8
-0.155, 1.399e-8
-0.156, 1.405e-8
-0.157, 1.411e-8
-0.158, 1.418e-8
-0.159, 1.424e-8
-0.160, 1.431e-8
-0.161, 1.437e-8
-0.162, 1.444e-8
-0.163, 1.451e-8
-0.164, 1.458e-8
-0.165, 1.464e-8
-0.166, 1.472e-8
-0.167, 1.479e-8
-0.168, 1.487e-8
-0.169, 1.495e-8
-0.170, 1.502e-8
-0.171, 1.510e-8
-0.172, 1.518e-8
-0.173, 1.526e-8
-0.174, 1.535e-8
-0.175, 1.543e-8
-0.176, 1.551e-8
-0.177, 1.560e-8
-0.178, 1.568e-8
-0.179, 1.578e-8
-0.180, 1.587e-8
-0.181, 1.595e-8
-0.182, 1.605e-8
-0.183, 1.614e-8
-0.184, 1.624e-8
-0.185, 1.634e-8
-0.186, 1.644e-8
-0.187, 1.654e-8
-0.188, 1.664e-8
-0.189, 1.674e-8
-0.190, 1.684e-8
-0.191, 1.695e-8
-0.192, 1.705e-8
-0.193, 1.716e-8
-0.194, 1.727e-8
-0.195, 1.738e-8
-0.196, 1.749e-8
-0.197, 1.760e-8
-0.198, 1.772e-8
-0.199, 1.783e-8
