Mar. 16, 2023   10:13:29
Cyclic Voltammetry
File: c:/users/oliverrz/desktop/electrolab/data/2023_03_16\fcmeoh_macros_1_mm\electrode5_cv_100mvs_1_mm.bin
Data Source:  Experiment
Instrument Model:  CHI760E
Header: CV
Note: 

Init E (V) = -0.2
High E (V) = 0.3
Low E (V) = -0.2
Final E (V) = -0.2
Init P/N = P
Scan Rate (V/s) = 0.1
Segment = 3
Sample Interval (V) = 0.001
Quiet Time (sec) = 2
Sensitivity (A/V) = 1e-7

Results:

Channel 1:
Segment 1:
Ep = 0.122V
ip = -6.805e-8A
Ah = -4.262e-8C

Segment 2:
Ep = 0.057V
ip = 6.451e-8A
Ah = 4.000e-8C

Segment 3:

Potential/V, Current/A

-0.200, 1.103e-8
-0.199, 1.013e-8
-0.198, 9.837e-9
-0.197, 9.670e-9
-0.196, 9.453e-9
-0.195, 9.391e-9
-0.194, 9.206e-9
-0.193, 9.095e-9
-0.192, 9.002e-9
-0.191, 8.825e-9
-0.190, 8.780e-9
-0.189, 8.620e-9
-0.188, 8.519e-9
-0.187, 8.440e-9
-0.186, 8.277e-9
-0.185, 8.241e-9
-0.184, 8.095e-9
-0.183, 8.008e-9
-0.182, 7.934e-9
-0.181, 7.784e-9
-0.180, 7.752e-9
-0.179, 7.609e-9
-0.178, 7.535e-9
-0.177, 7.465e-9
-0.176, 7.324e-9
-0.175, 7.299e-9
-0.174, 7.163e-9
-0.173, 7.100e-9
-0.172, 7.030e-9
-0.171, 6.895e-9
-0.170, 6.878e-9
-0.169, 6.741e-9
-0.168, 6.681e-9
-0.167, 6.623e-9
-0.166, 6.485e-9
-0.165, 6.483e-9
-0.164, 6.350e-9
-0.163, 6.295e-9
-0.162, 6.245e-9
-0.161, 6.108e-9
-0.160, 6.110e-9
-0.159, 5.979e-9
-0.158, 5.926e-9
-0.157, 5.887e-9
-0.156, 5.750e-9
-0.155, 5.755e-9
-0.154, 5.629e-9
-0.153, 5.576e-9
-0.152, 5.539e-9
-0.151, 5.413e-9
-0.150, 5.415e-9
-0.149, 5.303e-9
-0.148, 5.251e-9
-0.147, 5.216e-9
-0.146, 5.096e-9
-0.145, 5.102e-9
-0.144, 4.993e-9
-0.143, 4.945e-9
-0.142, 4.914e-9
-0.141, 4.795e-9
-0.140, 4.804e-9
-0.139, 4.699e-9
-0.138, 4.655e-9
-0.137, 4.626e-9
-0.136, 4.514e-9
-0.135, 4.524e-9
-0.134, 4.422e-9
-0.133, 4.387e-9
-0.132, 4.358e-9
-0.131, 4.247e-9
-0.130, 4.263e-9
-0.129, 4.159e-9
-0.128, 4.121e-9
-0.127, 4.101e-9
-0.126, 3.989e-9
-0.125, 4.011e-9
-0.124, 3.906e-9
-0.123, 3.882e-9
-0.122, 3.857e-9
-0.121, 3.747e-9
-0.120, 3.775e-9
-0.119, 3.672e-9
-0.118, 3.645e-9
-0.117, 3.628e-9
-0.116, 3.518e-9
-0.115, 3.545e-9
-0.114, 3.449e-9
-0.113, 3.416e-9
-0.112, 3.407e-9
-0.111, 3.300e-9
-0.110, 3.328e-9
-0.109, 3.235e-9
-0.108, 3.201e-9
-0.107, 3.193e-9
-0.106, 3.090e-9
-0.105, 3.118e-9
-0.104, 3.028e-9
-0.103, 2.997e-9
-0.102, 2.982e-9
-0.101, 2.884e-9
-0.100, 2.911e-9
-0.099, 2.832e-9
-0.098, 2.801e-9
-0.097, 2.787e-9
-0.096, 2.693e-9
-0.095, 2.720e-9
-0.094, 2.635e-9
-0.093, 2.613e-9
-0.092, 2.599e-9
-0.091, 2.507e-9
-0.090, 2.534e-9
-0.089, 2.444e-9
-0.088, 2.425e-9
-0.087, 2.413e-9
-0.086, 2.319e-9
-0.085, 2.354e-9
-0.084, 2.263e-9
-0.083, 2.242e-9
-0.082, 2.235e-9
-0.081, 2.136e-9
-0.080, 2.175e-9
-0.079, 2.084e-9
-0.078, 2.058e-9
-0.077, 2.049e-9
-0.076, 1.950e-9
-0.075, 1.988e-9
-0.074, 1.899e-9
-0.073, 1.873e-9
-0.072, 1.870e-9
-0.071, 1.769e-9
-0.070, 1.801e-9
-0.069, 1.718e-9
-0.068, 1.682e-9
-0.067, 1.682e-9
-0.066, 1.578e-9
-0.065, 1.606e-9
-0.064, 1.522e-9
-0.063, 1.487e-9
-0.062, 1.484e-9
-0.061, 1.386e-9
-0.060, 1.410e-9
-0.059, 1.323e-9
-0.058, 1.293e-9
-0.057, 1.278e-9
-0.056, 1.178e-9
-0.055, 1.201e-9
-0.054, 1.111e-9
-0.053, 1.075e-9
-0.052, 1.058e-9
-0.051, 9.521e-10
-0.050, 9.735e-10
-0.049, 8.761e-10
-0.048, 8.406e-10
-0.047, 8.199e-10
-0.046, 7.080e-10
-0.045, 7.279e-10
-0.044, 6.234e-10
-0.043, 5.805e-10
-0.042, 5.564e-10
-0.041, 4.343e-10
-0.040, 4.533e-10
-0.039, 3.439e-10
-0.038, 2.903e-10
-0.037, 2.666e-10
-0.036, 1.372e-10
-0.035, 1.481e-10
-0.034, 3.645e-11
-0.033, -3.060e-11
-0.032, -5.403e-11
-0.031, -1.924e-10
-0.030, -1.984e-10
-0.029, -3.132e-10
-0.028, -3.892e-10
-0.027, -4.289e-10
-0.026, -5.783e-10
-0.025, -5.990e-10
-0.024, -7.197e-10
-0.023, -8.085e-10
-0.022, -8.612e-10
-0.021, -1.013e-9
-0.020, -1.047e-9
-0.019, -1.176e-9
-0.018, -1.280e-9
-0.017, -1.352e-9
-0.016, -1.516e-9
-0.015, -1.568e-9
-0.014, -1.726e-9
-0.013, -1.841e-9
-0.012, -1.937e-9
-0.011, -2.116e-9
-0.010, -2.185e-9
-0.009, -2.361e-9
-0.008, -2.488e-9
-0.007, -2.604e-9
-0.006, -2.813e-9
-0.005, -2.901e-9
-0.004, -3.109e-9
-0.003, -3.261e-9
-0.002, -3.399e-9
-0.001, -3.629e-9
-0.000, -3.799e-9
0.001, -4.008e-9
0.002, -4.185e-9
0.003, -4.345e-9
0.004, -4.620e-9
0.005, -4.754e-9
0.006, -5.014e-9
0.007, -5.239e-9
0.008, -5.435e-9
0.009, -5.742e-9
0.010, -5.927e-9
0.011, -6.219e-9
0.012, -6.495e-9
0.013, -6.726e-9
0.014, -7.077e-9
0.015, -7.321e-9
0.016, -7.651e-9
0.017, -7.972e-9
0.018, -8.256e-9
0.019, -8.645e-9
0.020, -8.940e-9
0.021, -9.315e-9
0.022, -9.683e-9
0.023, -1.003e-8
0.024, -1.047e-8
0.025, -1.082e-8
0.026, -1.128e-8
0.027, -1.170e-8
0.028, -1.211e-8
0.029, -1.260e-8
0.030, -1.301e-8
0.031, -1.353e-8
0.032, -1.400e-8
0.033, -1.449e-8
0.034, -1.506e-8
0.035, -1.554e-8
0.036, -1.612e-8
0.037, -1.667e-8
0.038, -1.722e-8
0.039, -1.789e-8
0.040, -1.842e-8
0.041, -1.908e-8
0.042, -1.970e-8
0.043, -2.032e-8
0.044, -2.106e-8
0.045, -2.167e-8
0.046, -2.240e-8
0.047, -2.312e-8
0.048, -2.381e-8
0.049, -2.462e-8
0.050, -2.531e-8
0.051, -2.613e-8
0.052, -2.692e-8
0.053, -2.768e-8
0.054, -2.856e-8
0.055, -2.933e-8
0.056, -3.019e-8
0.057, -3.106e-8
0.058, -3.189e-8
0.059, -3.281e-8
0.060, -3.367e-8
0.061, -3.456e-8
0.062, -3.549e-8
0.063, -3.638e-8
0.064, -3.735e-8
0.065, -3.826e-8
0.066, -3.921e-8
0.067, -4.017e-8
0.068, -4.109e-8
0.069, -4.205e-8
0.070, -4.299e-8
0.071, -4.397e-8
0.072, -4.493e-8
0.073, -4.588e-8
0.074, -4.687e-8
0.075, -4.779e-8
0.076, -4.878e-8
0.077, -4.976e-8
0.078, -5.067e-8
0.079, -5.165e-8
0.080, -5.249e-8
0.081, -5.347e-8
0.082, -5.438e-8
0.083, -5.523e-8
0.084, -5.619e-8
0.085, -5.699e-8
0.086, -5.789e-8
0.087, -5.874e-8
0.088, -5.950e-8
0.089, -6.039e-8
0.090, -6.113e-8
0.091, -6.190e-8
0.092, -6.268e-8
0.093, -6.333e-8
0.094, -6.410e-8
0.095, -6.473e-8
0.096, -6.539e-8
0.097, -6.605e-8
0.098, -6.660e-8
0.099, -6.722e-8
0.100, -6.775e-8
0.101, -6.826e-8
0.102, -6.882e-8
0.103, -6.927e-8
0.104, -6.975e-8
0.105, -7.014e-8
0.106, -7.054e-8
0.107, -7.092e-8
0.108, -7.124e-8
0.109, -7.156e-8
0.110, -7.183e-8
0.111, -7.211e-8
0.112, -7.233e-8
0.113, -7.252e-8
0.114, -7.273e-8
0.115, -7.287e-8
0.116, -7.304e-8
0.117, -7.313e-8
0.118, -7.321e-8
0.119, -7.332e-8
0.120, -7.330e-8
0.121, -7.337e-8
0.122, -7.337e-8
0.123, -7.332e-8
0.124, -7.335e-8
0.125, -7.321e-8
0.126, -7.320e-8
0.127, -7.312e-8
0.128, -7.298e-8
0.129, -7.293e-8
0.130, -7.274e-8
0.131, -7.261e-8
0.132, -7.247e-8
0.133, -7.224e-8
0.134, -7.211e-8
0.135, -7.188e-8
0.136, -7.168e-8
0.137, -7.149e-8
0.138, -7.121e-8
0.139, -7.103e-8
0.140, -7.076e-8
0.141, -7.053e-8
0.142, -7.028e-8
0.143, -6.997e-8
0.144, -6.975e-8
0.145, -6.944e-8
0.146, -6.918e-8
0.147, -6.890e-8
0.148, -6.859e-8
0.149, -6.836e-8
0.150, -6.802e-8
0.151, -6.775e-8
0.152, -6.746e-8
0.153, -6.712e-8
0.154, -6.689e-8
0.155, -6.653e-8
0.156, -6.628e-8
0.157, -6.597e-8
0.158, -6.563e-8
0.159, -6.539e-8
0.160, -6.503e-8
0.161, -6.477e-8
0.162, -6.448e-8
0.163, -6.413e-8
0.164, -6.390e-8
0.165, -6.354e-8
0.166, -6.329e-8
0.167, -6.301e-8
0.168, -6.266e-8
0.169, -6.245e-8
0.170, -6.209e-8
0.171, -6.184e-8
0.172, -6.157e-8
0.173, -6.124e-8
0.174, -6.104e-8
0.175, -6.070e-8
0.176, -6.046e-8
0.177, -6.020e-8
0.178, -5.989e-8
0.179, -5.970e-8
0.180, -5.938e-8
0.181, -5.914e-8
0.182, -5.890e-8
0.183, -5.861e-8
0.184, -5.842e-8
0.185, -5.812e-8
0.186, -5.790e-8
0.187, -5.767e-8
0.188, -5.740e-8
0.189, -5.722e-8
0.190, -5.693e-8
0.191, -5.674e-8
0.192, -5.652e-8
0.193, -5.626e-8
0.194, -5.611e-8
0.195, -5.583e-8
0.196, -5.566e-8
0.197, -5.545e-8
0.198, -5.520e-8
0.199, -5.507e-8
0.200, -5.480e-8
0.201, -5.463e-8
0.202, -5.444e-8
0.203, -5.420e-8
0.204, -5.409e-8
0.205, -5.384e-8
0.206, -5.368e-8
0.207, -5.351e-8
0.208, -5.328e-8
0.209, -5.317e-8
0.210, -5.294e-8
0.211, -5.279e-8
0.212, -5.264e-8
0.213, -5.242e-8
0.214, -5.233e-8
0.215, -5.211e-8
0.216, -5.198e-8
0.217, -5.184e-8
0.218, -5.164e-8
0.219, -5.154e-8
0.220, -5.134e-8
0.221, -5.121e-8
0.222, -5.108e-8
0.223, -5.089e-8
0.224, -5.081e-8
0.225, -5.063e-8
0.226, -5.052e-8
0.227, -5.039e-8
0.228, -5.021e-8
0.229, -5.014e-8
0.230, -4.996e-8
0.231, -4.986e-8
0.232, -4.974e-8
0.233, -4.957e-8
0.234, -4.951e-8
0.235, -4.933e-8
0.236, -4.924e-8
0.237, -4.913e-8
0.238, -4.896e-8
0.239, -4.893e-8
0.240, -4.874e-8
0.241, -4.867e-8
0.242, -4.858e-8
0.243, -4.842e-8
0.244, -4.838e-8
0.245, -4.821e-8
0.246, -4.814e-8
0.247, -4.805e-8
0.248, -4.790e-8
0.249, -4.787e-8
0.250, -4.771e-8
0.251, -4.764e-8
0.252, -4.756e-8
0.253, -4.741e-8
0.254, -4.739e-8
0.255, -4.724e-8
0.256, -4.718e-8
0.257, -4.711e-8
0.258, -4.697e-8
0.259, -4.694e-8
0.260, -4.680e-8
0.261, -4.674e-8
0.262, -4.667e-8
0.263, -4.653e-8
0.264, -4.652e-8
0.265, -4.638e-8
0.266, -4.632e-8
0.267, -4.626e-8
0.268, -4.614e-8
0.269, -4.613e-8
0.270, -4.599e-8
0.271, -4.595e-8
0.272, -4.588e-8
0.273, -4.577e-8
0.274, -4.576e-8
0.275, -4.563e-8
0.276, -4.559e-8
0.277, -4.554e-8
0.278, -4.542e-8
0.279, -4.543e-8
0.280, -4.530e-8
0.281, -4.527e-8
0.282, -4.522e-8
0.283, -4.511e-8
0.284, -4.512e-8
0.285, -4.500e-8
0.286, -4.496e-8
0.287, -4.493e-8
0.288, -4.481e-8
0.289, -4.483e-8
0.290, -4.472e-8
0.291, -4.468e-8
0.292, -4.465e-8
0.293, -4.454e-8
0.294, -4.456e-8
0.295, -4.445e-8
0.296, -4.442e-8
0.297, -4.439e-8
0.298, -4.428e-8
0.299, -4.430e-8
0.300, -4.336e-8
0.299, -4.190e-8
0.298, -4.142e-8
0.297, -4.110e-8
0.296, -4.097e-8
0.295, -4.072e-8
0.294, -4.059e-8
0.293, -4.046e-8
0.292, -4.026e-8
0.291, -4.020e-8
0.290, -4.002e-8
0.289, -3.992e-8
0.288, -3.982e-8
0.287, -3.965e-8
0.286, -3.961e-8
0.285, -3.945e-8
0.284, -3.936e-8
0.283, -3.929e-8
0.282, -3.912e-8
0.281, -3.910e-8
0.280, -3.895e-8
0.279, -3.888e-8
0.278, -3.881e-8
0.277, -3.866e-8
0.276, -3.864e-8
0.275, -3.850e-8
0.274, -3.843e-8
0.273, -3.837e-8
0.272, -3.824e-8
0.271, -3.822e-8
0.270, -3.809e-8
0.269, -3.803e-8
0.268, -3.796e-8
0.267, -3.784e-8
0.266, -3.783e-8
0.265, -3.770e-8
0.264, -3.765e-8
0.263, -3.759e-8
0.262, -3.747e-8
0.261, -3.746e-8
0.260, -3.733e-8
0.259, -3.728e-8
0.258, -3.723e-8
0.257, -3.710e-8
0.256, -3.710e-8
0.255, -3.698e-8
0.254, -3.694e-8
0.253, -3.689e-8
0.252, -3.676e-8
0.251, -3.677e-8
0.250, -3.663e-8
0.249, -3.658e-8
0.248, -3.654e-8
0.247, -3.642e-8
0.246, -3.642e-8
0.245, -3.629e-8
0.244, -3.624e-8
0.243, -3.620e-8
0.242, -3.607e-8
0.241, -3.607e-8
0.240, -3.595e-8
0.239, -3.589e-8
0.238, -3.585e-8
0.237, -3.573e-8
0.236, -3.572e-8
0.235, -3.560e-8
0.234, -3.555e-8
0.233, -3.551e-8
0.232, -3.539e-8
0.231, -3.538e-8
0.230, -3.525e-8
0.229, -3.519e-8
0.228, -3.514e-8
0.227, -3.502e-8
0.226, -3.501e-8
0.225, -3.488e-8
0.224, -3.484e-8
0.223, -3.478e-8
0.222, -3.465e-8
0.221, -3.464e-8
0.220, -3.450e-8
0.219, -3.444e-8
0.218, -3.438e-8
0.217, -3.425e-8
0.216, -3.423e-8
0.215, -3.409e-8
0.214, -3.403e-8
0.213, -3.396e-8
0.212, -3.381e-8
0.211, -3.379e-8
0.210, -3.365e-8
0.209, -3.357e-8
0.208, -3.350e-8
0.207, -3.333e-8
0.206, -3.331e-8
0.205, -3.315e-8
0.204, -3.306e-8
0.203, -3.299e-8
0.202, -3.282e-8
0.201, -3.277e-8
0.200, -3.260e-8
0.199, -3.250e-8
0.198, -3.242e-8
0.197, -3.223e-8
0.196, -3.217e-8
0.195, -3.200e-8
0.194, -3.187e-8
0.193, -3.176e-8
0.192, -3.156e-8
0.191, -3.148e-8
0.190, -3.129e-8
0.189, -3.115e-8
0.188, -3.102e-8
0.187, -3.081e-8
0.186, -3.070e-8
0.185, -3.048e-8
0.184, -3.033e-8
0.183, -3.017e-8
0.182, -2.994e-8
0.181, -2.981e-8
0.180, -2.957e-8
0.179, -2.938e-8
0.178, -2.920e-8
0.177, -2.894e-8
0.176, -2.879e-8
0.175, -2.851e-8
0.174, -2.830e-8
0.173, -2.809e-8
0.172, -2.778e-8
0.171, -2.760e-8
0.170, -2.729e-8
0.169, -2.704e-8
0.168, -2.678e-8
0.167, -2.644e-8
0.166, -2.621e-8
0.165, -2.586e-8
0.164, -2.556e-8
0.163, -2.527e-8
0.162, -2.488e-8
0.161, -2.461e-8
0.160, -2.421e-8
0.159, -2.386e-8
0.158, -2.353e-8
0.157, -2.308e-8
0.156, -2.273e-8
0.155, -2.229e-8
0.154, -2.188e-8
0.153, -2.148e-8
0.152, -2.099e-8
0.151, -2.060e-8
0.150, -2.010e-8
0.149, -1.962e-8
0.148, -1.917e-8
0.147, -1.863e-8
0.146, -1.816e-8
0.145, -1.759e-8
0.144, -1.705e-8
0.143, -1.650e-8
0.142, -1.588e-8
0.141, -1.534e-8
0.140, -1.469e-8
0.139, -1.409e-8
0.138, -1.347e-8
0.137, -1.278e-8
0.136, -1.218e-8
0.135, -1.145e-8
0.134, -1.078e-8
0.133, -1.010e-8
0.132, -9.308e-9
0.131, -8.647e-9
0.130, -7.845e-9
0.129, -7.084e-9
0.128, -6.317e-9
0.127, -5.444e-9
0.126, -4.718e-9
0.125, -3.858e-9
0.124, -3.026e-9
0.123, -2.233e-9
0.122, -1.294e-9
0.121, -4.955e-10
0.120, 4.253e-10
0.119, 1.342e-9
0.118, 2.171e-9
0.117, 3.158e-9
0.116, 4.047e-9
0.115, 5.008e-9
0.114, 5.939e-9
0.113, 6.838e-9
0.112, 7.840e-9
0.111, 8.756e-9
0.110, 9.738e-9
0.109, 1.071e-8
0.108, 1.163e-8
0.107, 1.262e-8
0.106, 1.355e-8
0.105, 1.453e-8
0.104, 1.551e-8
0.103, 1.644e-8
0.102, 1.746e-8
0.101, 1.835e-8
0.100, 1.931e-8
0.099, 2.021e-8
0.098, 2.113e-8
0.097, 2.207e-8
0.096, 2.290e-8
0.095, 2.385e-8
0.094, 2.469e-8
0.093, 2.553e-8
0.092, 2.641e-8
0.091, 2.717e-8
0.090, 2.804e-8
0.089, 2.882e-8
0.088, 2.953e-8
0.087, 3.034e-8
0.086, 3.098e-8
0.085, 3.174e-8
0.084, 3.244e-8
0.083, 3.302e-8
0.082, 3.373e-8
0.081, 3.428e-8
0.080, 3.488e-8
0.079, 3.545e-8
0.078, 3.594e-8
0.077, 3.651e-8
0.076, 3.695e-8
0.075, 3.741e-8
0.074, 3.786e-8
0.073, 3.819e-8
0.072, 3.862e-8
0.071, 3.894e-8
0.070, 3.926e-8
0.069, 3.958e-8
0.068, 3.982e-8
0.067, 4.011e-8
0.066, 4.028e-8
0.065, 4.051e-8
0.064, 4.070e-8
0.063, 4.084e-8
0.062, 4.099e-8
0.061, 4.105e-8
0.060, 4.116e-8
0.059, 4.121e-8
0.058, 4.123e-8
0.057, 4.129e-8
0.056, 4.125e-8
0.055, 4.129e-8
0.054, 4.122e-8
0.053, 4.116e-8
0.052, 4.116e-8
0.051, 4.102e-8
0.050, 4.097e-8
0.049, 4.085e-8
0.048, 4.068e-8
0.047, 4.061e-8
0.046, 4.039e-8
0.045, 4.028e-8
0.044, 4.010e-8
0.043, 3.987e-8
0.042, 3.975e-8
0.041, 3.949e-8
0.040, 3.932e-8
0.039, 3.911e-8
0.038, 3.885e-8
0.037, 3.869e-8
0.036, 3.840e-8
0.035, 3.818e-8
0.034, 3.795e-8
0.033, 3.766e-8
0.032, 3.747e-8
0.031, 3.715e-8
0.030, 3.692e-8
0.029, 3.667e-8
0.028, 3.636e-8
0.027, 3.616e-8
0.026, 3.585e-8
0.025, 3.562e-8
0.024, 3.534e-8
0.023, 3.503e-8
0.022, 3.482e-8
0.021, 3.449e-8
0.020, 3.427e-8
0.019, 3.399e-8
0.018, 3.368e-8
0.017, 3.348e-8
0.016, 3.315e-8
0.015, 3.293e-8
0.014, 3.265e-8
0.013, 3.235e-8
0.012, 3.216e-8
0.011, 3.182e-8
0.010, 3.161e-8
0.009, 3.135e-8
0.008, 3.106e-8
0.007, 3.088e-8
0.006, 3.056e-8
0.005, 3.035e-8
0.004, 3.012e-8
0.003, 2.982e-8
0.002, 2.966e-8
0.001, 2.936e-8
0.000, 2.922e-8
-0.001, 2.898e-8
-0.002, 2.868e-8
-0.003, 2.852e-8
-0.004, 2.823e-8
-0.005, 2.804e-8
-0.006, 2.784e-8
-0.007, 2.759e-8
-0.008, 2.744e-8
-0.009, 2.717e-8
-0.010, 2.700e-8
-0.011, 2.680e-8
-0.012, 2.656e-8
-0.013, 2.643e-8
-0.014, 2.618e-8
-0.015, 2.603e-8
-0.016, 2.584e-8
-0.017, 2.562e-8
-0.018, 2.550e-8
-0.019, 2.526e-8
-0.020, 2.513e-8
-0.021, 2.495e-8
-0.022, 2.474e-8
-0.023, 2.464e-8
-0.024, 2.441e-8
-0.025, 2.430e-8
-0.026, 2.413e-8
-0.027, 2.393e-8
-0.028, 2.385e-8
-0.029, 2.363e-8
-0.030, 2.352e-8
-0.031, 2.338e-8
-0.032, 2.319e-8
-0.033, 2.312e-8
-0.034, 2.291e-8
-0.035, 2.282e-8
-0.036, 2.269e-8
-0.037, 2.252e-8
-0.038, 2.246e-8
-0.039, 2.227e-8
-0.040, 2.219e-8
-0.041, 2.207e-8
-0.042, 2.190e-8
-0.043, 2.185e-8
-0.044, 2.168e-8
-0.045, 2.160e-8
-0.046, 2.150e-8
-0.047, 2.134e-8
-0.048, 2.131e-8
-0.049, 2.114e-8
-0.050, 2.107e-8
-0.051, 2.098e-8
-0.052, 2.084e-8
-0.053, 2.080e-8
-0.054, 2.065e-8
-0.055, 2.059e-8
-0.056, 2.050e-8
-0.057, 2.037e-8
-0.058, 2.035e-8
-0.059, 2.020e-8
-0.060, 2.016e-8
-0.061, 2.008e-8
-0.062, 1.996e-8
-0.063, 1.995e-8
-0.064, 1.981e-8
-0.065, 1.978e-8
-0.066, 1.970e-8
-0.067, 1.959e-8
-0.068, 1.959e-8
-0.069, 1.945e-8
-0.070, 1.943e-8
-0.071, 1.936e-8
-0.072, 1.925e-8
-0.073, 1.927e-8
-0.074, 1.913e-8
-0.075, 1.912e-8
-0.076, 1.907e-8
-0.077, 1.896e-8
-0.078, 1.898e-8
-0.079, 1.886e-8
-0.080, 1.884e-8
-0.081, 1.880e-8
-0.082, 1.870e-8
-0.083, 1.873e-8
-0.084, 1.862e-8
-0.085, 1.860e-8
-0.086, 1.857e-8
-0.087, 1.848e-8
-0.088, 1.851e-8
-0.089, 1.841e-8
-0.090, 1.841e-8
-0.091, 1.837e-8
-0.092, 1.830e-8
-0.093, 1.832e-8
-0.094, 1.823e-8
-0.095, 1.823e-8
-0.096, 1.821e-8
-0.097, 1.813e-8
-0.098, 1.817e-8
-0.099, 1.808e-8
-0.100, 1.810e-8
-0.101, 1.807e-8
-0.102, 1.801e-8
-0.103, 1.805e-8
-0.104, 1.797e-8
-0.105, 1.799e-8
-0.106, 1.796e-8
-0.107, 1.790e-8
-0.108, 1.796e-8
-0.109, 1.787e-8
-0.110, 1.790e-8
-0.111, 1.789e-8
-0.112, 1.783e-8
-0.113, 1.789e-8
-0.114, 1.781e-8
-0.115, 1.784e-8
-0.116, 1.784e-8
-0.117, 1.778e-8
-0.118, 1.785e-8
-0.119, 1.778e-8
-0.120, 1.781e-8
-0.121, 1.782e-8
-0.122, 1.777e-8
-0.123, 1.784e-8
-0.124, 1.778e-8
-0.125, 1.781e-8
-0.126, 1.782e-8
-0.127, 1.778e-8
-0.128, 1.786e-8
-0.129, 1.780e-8
-0.130, 1.784e-8
-0.131, 1.786e-8
-0.132, 1.782e-8
-0.133, 1.790e-8
-0.134, 1.785e-8
-0.135, 1.790e-8
-0.136, 1.791e-8
-0.137, 1.789e-8
-0.138, 1.796e-8
-0.139, 1.792e-8
-0.140, 1.798e-8
-0.141, 1.800e-8
-0.142, 1.797e-8
-0.143, 1.806e-8
-0.144, 1.802e-8
-0.145, 1.808e-8
-0.146, 1.811e-8
-0.147, 1.809e-8
-0.148, 1.819e-8
-0.149, 1.815e-8
-0.150, 1.821e-8
-0.151, 1.825e-8
-0.152, 1.823e-8
-0.153, 1.834e-8
-0.154, 1.831e-8
-0.155, 1.837e-8
-0.156, 1.842e-8
-0.157, 1.840e-8
-0.158, 1.852e-8
-0.159, 1.849e-8
-0.160, 1.856e-8
-0.161, 1.862e-8
-0.162, 1.860e-8
-0.163, 1.872e-8
-0.164, 1.871e-8
-0.165, 1.878e-8
-0.166, 1.884e-8
-0.167, 1.884e-8
-0.168, 1.896e-8
-0.169, 1.895e-8
-0.170, 1.903e-8
-0.171, 1.909e-8
-0.172, 1.910e-8
-0.173, 1.922e-8
-0.174, 1.922e-8
-0.175, 1.931e-8
-0.176, 1.937e-8
-0.177, 1.939e-8
-0.178, 1.951e-8
-0.179, 1.952e-8
-0.180, 1.962e-8
-0.181, 1.969e-8
-0.182, 1.971e-8
-0.183, 1.985e-8
-0.184, 1.985e-8
-0.185, 1.996e-8
-0.186, 2.004e-8
-0.187, 2.006e-8
-0.188, 2.020e-8
-0.189, 2.021e-8
-0.190, 2.033e-8
-0.191, 2.041e-8
-0.192, 2.045e-8
-0.193, 2.060e-8
-0.194, 2.062e-8
-0.195, 2.073e-8
-0.196, 2.083e-8
-0.197, 2.086e-8
-0.198, 2.103e-8
-0.199, 2.105e-8
