Mar. 16, 2023   10:08:44
Cyclic Voltammetry
File: c:/users/oliverrz/desktop/electrolab/data/2023_03_16\fcmeoh_macros_1_mm\electrode1_cv_250mvs_1_mm.bin
Data Source:  Experiment
Instrument Model:  CHI760E
Header: CV
Note: 

Init E (V) = -0.2
High E (V) = 0.3
Low E (V) = -0.2
Final E (V) = -0.2
Init P/N = P
Scan Rate (V/s) = 0.25
Segment = 3
Sample Interval (V) = 0.001
Quiet Time (sec) = 2
Sensitivity (A/V) = 1e-7

Results:

Channel 1:
Segment 1:
Ep = 0.129V
ip = -1.047e-7A
Ah = -2.649e-8C

Segment 2:
Ep = 0.068V
ip = 9.447e-8A
Ah = 2.261e-8C

Segment 3:

Potential/V, Current/A

-0.200, 6.529e-9
-0.199, 4.499e-9
-0.198, 4.283e-9
-0.197, 4.160e-9
-0.196, 3.883e-9
-0.195, 3.699e-9
-0.194, 3.637e-9
-0.193, 3.576e-9
-0.192, 3.422e-9
-0.191, 3.237e-9
-0.190, 3.176e-9
-0.189, 3.206e-9
-0.188, 3.022e-9
-0.187, 2.899e-9
-0.186, 2.806e-9
-0.185, 2.806e-9
-0.184, 2.745e-9
-0.183, 2.560e-9
-0.182, 2.499e-9
-0.181, 2.560e-9
-0.180, 2.437e-9
-0.179, 2.314e-9
-0.178, 2.191e-9
-0.177, 2.222e-9
-0.176, 2.222e-9
-0.175, 2.037e-9
-0.174, 1.914e-9
-0.173, 1.976e-9
-0.172, 1.914e-9
-0.171, 1.822e-9
-0.170, 1.699e-9
-0.169, 1.668e-9
-0.168, 1.730e-9
-0.167, 1.576e-9
-0.166, 1.422e-9
-0.165, 1.422e-9
-0.164, 1.453e-9
-0.163, 1.360e-9
-0.162, 1.237e-9
-0.161, 1.176e-9
-0.160, 1.237e-9
-0.159, 1.145e-9
-0.158, 9.913e-10
-0.157, 9.605e-10
-0.156, 9.913e-10
-0.155, 9.298e-10
-0.154, 8.067e-10
-0.153, 7.144e-10
-0.152, 8.067e-10
-0.151, 7.144e-10
-0.150, 5.913e-10
-0.149, 5.606e-10
-0.148, 5.298e-10
-0.147, 5.606e-10
-0.146, 4.375e-10
-0.145, 2.837e-10
-0.144, 3.452e-10
-0.143, 3.452e-10
-0.142, 2.529e-10
-0.141, 1.299e-10
-0.140, 9.911e-11
-0.139, 1.606e-10
-0.138, 9.911e-11
-0.137, -5.472e-11
-0.136, -2.395e-11
-0.135, -2.395e-11
-0.134, -8.548e-11
-0.133, -1.778e-10
-0.132, -2.701e-10
-0.131, -1.778e-10
-0.130, -2.393e-10
-0.129, -3.931e-10
-0.128, -4.239e-10
-0.127, -3.931e-10
-0.126, -3.931e-10
-0.125, -5.162e-10
-0.124, -6.085e-10
-0.123, -5.470e-10
-0.122, -5.470e-10
-0.121, -6.700e-10
-0.120, -7.623e-10
-0.119, -7.623e-10
-0.118, -7.008e-10
-0.117, -7.931e-10
-0.116, -9.469e-10
-0.115, -9.161e-10
-0.114, -8.546e-10
-0.113, -9.777e-10
-0.112, -1.039e-9
-0.111, -1.101e-9
-0.110, -1.039e-9
-0.109, -1.070e-9
-0.108, -1.224e-9
-0.107, -1.224e-9
-0.106, -1.162e-9
-0.105, -1.255e-9
-0.104, -1.316e-9
-0.103, -1.408e-9
-0.102, -1.347e-9
-0.101, -1.347e-9
-0.100, -1.501e-9
-0.099, -1.531e-9
-0.098, -1.501e-9
-0.097, -1.501e-9
-0.096, -1.562e-9
-0.095, -1.716e-9
-0.094, -1.655e-9
-0.093, -1.624e-9
-0.092, -1.747e-9
-0.091, -1.808e-9
-0.090, -1.839e-9
-0.089, -1.778e-9
-0.088, -1.839e-9
-0.087, -1.993e-9
-0.086, -1.962e-9
-0.085, -1.901e-9
-0.084, -1.993e-9
-0.083, -2.085e-9
-0.082, -2.147e-9
-0.081, -2.054e-9
-0.080, -2.116e-9
-0.079, -2.239e-9
-0.078, -2.301e-9
-0.077, -2.208e-9
-0.076, -2.270e-9
-0.075, -2.362e-9
-0.074, -2.424e-9
-0.073, -2.393e-9
-0.072, -2.362e-9
-0.071, -2.454e-9
-0.070, -2.577e-9
-0.069, -2.547e-9
-0.068, -2.547e-9
-0.067, -2.608e-9
-0.066, -2.731e-9
-0.065, -2.731e-9
-0.064, -2.670e-9
-0.063, -2.793e-9
-0.062, -2.916e-9
-0.061, -2.885e-9
-0.060, -2.885e-9
-0.059, -2.916e-9
-0.058, -3.039e-9
-0.057, -3.100e-9
-0.056, -3.008e-9
-0.055, -3.100e-9
-0.054, -3.224e-9
-0.053, -3.285e-9
-0.052, -3.254e-9
-0.051, -3.254e-9
-0.050, -3.408e-9
-0.049, -3.500e-9
-0.048, -3.439e-9
-0.047, -3.439e-9
-0.046, -3.562e-9
-0.045, -3.685e-9
-0.044, -3.685e-9
-0.043, -3.654e-9
-0.042, -3.777e-9
-0.041, -3.931e-9
-0.040, -3.900e-9
-0.039, -3.931e-9
-0.038, -4.023e-9
-0.037, -4.177e-9
-0.036, -4.239e-9
-0.035, -4.177e-9
-0.034, -4.300e-9
-0.033, -4.454e-9
-0.032, -4.485e-9
-0.031, -4.485e-9
-0.030, -4.608e-9
-0.029, -4.731e-9
-0.028, -4.885e-9
-0.027, -4.793e-9
-0.026, -4.916e-9
-0.025, -5.100e-9
-0.024, -5.192e-9
-0.023, -5.223e-9
-0.022, -5.285e-9
-0.021, -5.439e-9
-0.020, -5.654e-9
-0.019, -5.654e-9
-0.018, -5.685e-9
-0.017, -5.900e-9
-0.016, -6.085e-9
-0.015, -6.177e-9
-0.014, -6.208e-9
-0.013, -6.392e-9
-0.012, -6.638e-9
-0.011, -6.700e-9
-0.010, -6.792e-9
-0.009, -6.977e-9
-0.008, -7.192e-9
-0.007, -7.377e-9
-0.006, -7.438e-9
-0.005, -7.623e-9
-0.004, -7.931e-9
-0.003, -8.084e-9
-0.002, -8.177e-9
-0.001, -8.392e-9
-0.000, -8.854e-9
0.001, -8.977e-9
0.002, -9.100e-9
0.003, -9.253e-9
0.004, -9.592e-9
0.005, -9.869e-9
0.006, -1.005e-8
0.007, -1.027e-8
0.008, -1.061e-8
0.009, -1.095e-8
0.010, -1.119e-8
0.011, -1.138e-8
0.012, -1.181e-8
0.013, -1.215e-8
0.014, -1.248e-8
0.015, -1.273e-8
0.016, -1.307e-8
0.017, -1.359e-8
0.018, -1.393e-8
0.019, -1.418e-8
0.020, -1.470e-8
0.021, -1.513e-8
0.022, -1.556e-8
0.023, -1.596e-8
0.024, -1.642e-8
0.025, -1.698e-8
0.026, -1.750e-8
0.027, -1.790e-8
0.028, -1.845e-8
0.029, -1.898e-8
0.030, -1.962e-8
0.031, -2.014e-8
0.032, -2.067e-8
0.033, -2.137e-8
0.034, -2.202e-8
0.035, -2.261e-8
0.036, -2.328e-8
0.037, -2.396e-8
0.038, -2.476e-8
0.039, -2.550e-8
0.040, -2.611e-8
0.041, -2.697e-8
0.042, -2.780e-8
0.043, -2.860e-8
0.044, -2.937e-8
0.045, -3.024e-8
0.046, -3.122e-8
0.047, -3.211e-8
0.048, -3.285e-8
0.049, -3.399e-8
0.050, -3.491e-8
0.051, -3.596e-8
0.052, -3.694e-8
0.053, -3.793e-8
0.054, -3.910e-8
0.055, -4.020e-8
0.056, -4.122e-8
0.057, -4.239e-8
0.058, -4.353e-8
0.059, -4.476e-8
0.060, -4.599e-8
0.061, -4.703e-8
0.062, -4.845e-8
0.063, -4.968e-8
0.064, -5.097e-8
0.065, -5.223e-8
0.066, -5.359e-8
0.067, -5.491e-8
0.068, -5.629e-8
0.069, -5.759e-8
0.070, -5.903e-8
0.071, -6.042e-8
0.072, -6.183e-8
0.073, -6.318e-8
0.074, -6.463e-8
0.075, -6.608e-8
0.076, -6.761e-8
0.077, -6.897e-8
0.078, -7.041e-8
0.079, -7.198e-8
0.080, -7.328e-8
0.081, -7.481e-8
0.082, -7.623e-8
0.083, -7.768e-8
0.084, -7.921e-8
0.085, -8.051e-8
0.086, -8.195e-8
0.087, -8.343e-8
0.088, -8.475e-8
0.089, -8.623e-8
0.090, -8.746e-8
0.091, -8.890e-8
0.092, -9.026e-8
0.093, -9.143e-8
0.094, -9.272e-8
0.095, -9.407e-8
0.096, -9.515e-8
0.097, -9.650e-8
0.098, -9.746e-8
0.099, -9.866e-8
0.100, -9.983e-8
0.101, -1.008e-7
0.102, -1.019e-7
0.103, -1.029e-7
0.104, -1.038e-7
0.105, -1.048e-7
0.106, -1.056e-7
0.107, -1.064e-7
0.108, -1.072e-7
0.109, -1.079e-7
0.110, -1.087e-7
0.111, -1.093e-7
0.112, -1.099e-7
0.113, -1.105e-7
0.114, -1.111e-7
0.115, -1.115e-7
0.116, -1.121e-7
0.117, -1.123e-7
0.118, -1.127e-7
0.119, -1.130e-7
0.120, -1.133e-7
0.121, -1.136e-7
0.122, -1.138e-7
0.123, -1.139e-7
0.124, -1.142e-7
0.125, -1.141e-7
0.126, -1.143e-7
0.127, -1.143e-7
0.128, -1.142e-7
0.129, -1.143e-7
0.130, -1.141e-7
0.131, -1.139e-7
0.132, -1.139e-7
0.133, -1.137e-7
0.134, -1.136e-7
0.135, -1.133e-7
0.136, -1.130e-7
0.137, -1.129e-7
0.138, -1.125e-7
0.139, -1.122e-7
0.140, -1.119e-7
0.141, -1.115e-7
0.142, -1.112e-7
0.143, -1.108e-7
0.144, -1.103e-7
0.145, -1.100e-7
0.146, -1.096e-7
0.147, -1.091e-7
0.148, -1.086e-7
0.149, -1.081e-7
0.150, -1.077e-7
0.151, -1.073e-7
0.152, -1.067e-7
0.153, -1.062e-7
0.154, -1.058e-7
0.155, -1.053e-7
0.156, -1.047e-7
0.157, -1.042e-7
0.158, -1.037e-7
0.159, -1.032e-7
0.160, -1.026e-7
0.161, -1.021e-7
0.162, -1.016e-7
0.163, -1.011e-7
0.164, -1.006e-7
0.165, -9.989e-8
0.166, -9.946e-8
0.167, -9.903e-8
0.168, -9.838e-8
0.169, -9.783e-8
0.170, -9.733e-8
0.171, -9.684e-8
0.172, -9.638e-8
0.173, -9.570e-8
0.174, -9.524e-8
0.175, -9.481e-8
0.176, -9.429e-8
0.177, -9.377e-8
0.178, -9.321e-8
0.179, -9.281e-8
0.180, -9.238e-8
0.181, -9.177e-8
0.182, -9.127e-8
0.183, -9.087e-8
0.184, -9.044e-8
0.185, -8.995e-8
0.186, -8.940e-8
0.187, -8.900e-8
0.188, -8.863e-8
0.189, -8.814e-8
0.190, -8.758e-8
0.191, -8.724e-8
0.192, -8.687e-8
0.193, -8.644e-8
0.194, -8.592e-8
0.195, -8.552e-8
0.196, -8.521e-8
0.197, -8.478e-8
0.198, -8.429e-8
0.199, -8.395e-8
0.200, -8.358e-8
0.201, -8.327e-8
0.202, -8.278e-8
0.203, -8.235e-8
0.204, -8.214e-8
0.205, -8.183e-8
0.206, -8.137e-8
0.207, -8.100e-8
0.208, -8.066e-8
0.209, -8.044e-8
0.210, -8.001e-8
0.211, -7.958e-8
0.212, -7.937e-8
0.213, -7.909e-8
0.214, -7.875e-8
0.215, -7.835e-8
0.216, -7.804e-8
0.217, -7.789e-8
0.218, -7.755e-8
0.219, -7.712e-8
0.220, -7.691e-8
0.221, -7.666e-8
0.222, -7.641e-8
0.223, -7.604e-8
0.224, -7.574e-8
0.225, -7.561e-8
0.226, -7.534e-8
0.227, -7.497e-8
0.228, -7.472e-8
0.229, -7.451e-8
0.230, -7.432e-8
0.231, -7.401e-8
0.232, -7.371e-8
0.233, -7.355e-8
0.234, -7.340e-8
0.235, -7.303e-8
0.236, -7.278e-8
0.237, -7.263e-8
0.238, -7.244e-8
0.239, -7.220e-8
0.240, -7.189e-8
0.241, -7.174e-8
0.242, -7.161e-8
0.243, -7.137e-8
0.244, -7.109e-8
0.245, -7.088e-8
0.246, -7.078e-8
0.247, -7.063e-8
0.248, -7.026e-8
0.249, -7.014e-8
0.250, -7.001e-8
0.251, -6.983e-8
0.252, -6.958e-8
0.253, -6.937e-8
0.254, -6.928e-8
0.255, -6.918e-8
0.256, -6.888e-8
0.257, -6.872e-8
0.258, -6.860e-8
0.259, -6.848e-8
0.260, -6.826e-8
0.261, -6.801e-8
0.262, -6.795e-8
0.263, -6.789e-8
0.264, -6.765e-8
0.265, -6.746e-8
0.266, -6.734e-8
0.267, -6.728e-8
0.268, -6.712e-8
0.269, -6.688e-8
0.270, -6.678e-8
0.271, -6.675e-8
0.272, -6.657e-8
0.273, -6.635e-8
0.274, -6.626e-8
0.275, -6.620e-8
0.276, -6.611e-8
0.277, -6.586e-8
0.278, -6.571e-8
0.279, -6.571e-8
0.280, -6.558e-8
0.281, -6.540e-8
0.282, -6.528e-8
0.283, -6.518e-8
0.284, -6.518e-8
0.285, -6.497e-8
0.286, -6.482e-8
0.287, -6.482e-8
0.288, -6.469e-8
0.289, -6.460e-8
0.290, -6.442e-8
0.291, -6.432e-8
0.292, -6.438e-8
0.293, -6.420e-8
0.294, -6.402e-8
0.295, -6.398e-8
0.296, -6.395e-8
0.297, -6.389e-8
0.298, -6.368e-8
0.299, -6.358e-8
0.300, -6.063e-8
0.299, -5.660e-8
0.298, -5.583e-8
0.297, -5.534e-8
0.296, -5.506e-8
0.295, -5.476e-8
0.294, -5.439e-8
0.293, -5.408e-8
0.292, -5.386e-8
0.291, -5.371e-8
0.290, -5.337e-8
0.289, -5.309e-8
0.288, -5.300e-8
0.287, -5.279e-8
0.286, -5.257e-8
0.285, -5.229e-8
0.284, -5.214e-8
0.283, -5.205e-8
0.282, -5.183e-8
0.281, -5.156e-8
0.280, -5.146e-8
0.279, -5.131e-8
0.278, -5.122e-8
0.277, -5.091e-8
0.276, -5.076e-8
0.275, -5.076e-8
0.274, -5.054e-8
0.273, -5.032e-8
0.272, -5.017e-8
0.271, -5.008e-8
0.270, -5.002e-8
0.269, -4.974e-8
0.268, -4.956e-8
0.267, -4.952e-8
0.266, -4.943e-8
0.265, -4.922e-8
0.264, -4.903e-8
0.263, -4.894e-8
0.262, -4.891e-8
0.261, -4.873e-8
0.260, -4.848e-8
0.259, -4.842e-8
0.258, -4.839e-8
0.257, -4.820e-8
0.256, -4.799e-8
0.255, -4.786e-8
0.254, -4.783e-8
0.253, -4.774e-8
0.252, -4.746e-8
0.251, -4.740e-8
0.250, -4.734e-8
0.249, -4.722e-8
0.248, -4.703e-8
0.247, -4.685e-8
0.246, -4.685e-8
0.245, -4.673e-8
0.244, -4.648e-8
0.243, -4.639e-8
0.242, -4.629e-8
0.241, -4.623e-8
0.240, -4.605e-8
0.239, -4.583e-8
0.238, -4.580e-8
0.237, -4.574e-8
0.236, -4.553e-8
0.235, -4.534e-8
0.234, -4.525e-8
0.233, -4.519e-8
0.232, -4.503e-8
0.231, -4.479e-8
0.230, -4.473e-8
0.229, -4.466e-8
0.228, -4.451e-8
0.227, -4.429e-8
0.226, -4.414e-8
0.225, -4.411e-8
0.224, -4.399e-8
0.223, -4.371e-8
0.222, -4.356e-8
0.221, -4.353e-8
0.220, -4.337e-8
0.219, -4.313e-8
0.218, -4.294e-8
0.217, -4.285e-8
0.216, -4.279e-8
0.215, -4.251e-8
0.214, -4.230e-8
0.213, -4.220e-8
0.212, -4.208e-8
0.211, -4.186e-8
0.210, -4.159e-8
0.209, -4.146e-8
0.208, -4.140e-8
0.207, -4.110e-8
0.206, -4.085e-8
0.205, -4.066e-8
0.204, -4.054e-8
0.203, -4.036e-8
0.202, -3.999e-8
0.201, -3.980e-8
0.200, -3.968e-8
0.199, -3.943e-8
0.198, -3.913e-8
0.197, -3.888e-8
0.196, -3.870e-8
0.195, -3.851e-8
0.194, -3.808e-8
0.193, -3.783e-8
0.192, -3.759e-8
0.191, -3.734e-8
0.190, -3.700e-8
0.189, -3.667e-8
0.188, -3.642e-8
0.187, -3.617e-8
0.186, -3.577e-8
0.185, -3.534e-8
0.184, -3.510e-8
0.183, -3.479e-8
0.182, -3.439e-8
0.181, -3.393e-8
0.180, -3.359e-8
0.179, -3.325e-8
0.178, -3.279e-8
0.177, -3.230e-8
0.176, -3.193e-8
0.175, -3.153e-8
0.174, -3.107e-8
0.173, -3.048e-8
0.172, -3.002e-8
0.171, -2.962e-8
0.170, -2.910e-8
0.169, -2.848e-8
0.168, -2.796e-8
0.167, -2.737e-8
0.166, -2.691e-8
0.165, -2.621e-8
0.164, -2.553e-8
0.163, -2.504e-8
0.162, -2.436e-8
0.161, -2.365e-8
0.160, -2.294e-8
0.159, -2.224e-8
0.158, -2.162e-8
0.157, -2.082e-8
0.156, -1.996e-8
0.155, -1.928e-8
0.154, -1.842e-8
0.153, -1.765e-8
0.152, -1.673e-8
0.151, -1.590e-8
0.150, -1.507e-8
0.149, -1.415e-8
0.148, -1.307e-8
0.147, -1.224e-8
0.146, -1.119e-8
0.145, -1.027e-8
0.144, -9.161e-9
0.143, -8.115e-9
0.142, -7.069e-9
0.141, -5.992e-9
0.140, -4.823e-9
0.139, -3.685e-9
0.138, -2.547e-9
0.137, -1.439e-9
0.136, -2.393e-10
0.135, 1.145e-9
0.134, 2.253e-9
0.133, 3.514e-9
0.132, 4.837e-9
0.131, 6.129e-9
0.130, 7.452e-9
0.129, 8.775e-9
0.128, 1.010e-8
0.127, 1.170e-8
0.126, 1.281e-8
0.125, 1.428e-8
0.124, 1.570e-8
0.123, 1.714e-8
0.122, 1.856e-8
0.121, 1.994e-8
0.120, 2.136e-8
0.119, 2.296e-8
0.118, 2.434e-8
0.117, 2.582e-8
0.116, 2.726e-8
0.115, 2.871e-8
0.114, 3.028e-8
0.113, 3.166e-8
0.112, 3.305e-8
0.111, 3.462e-8
0.110, 3.600e-8
0.109, 3.736e-8
0.108, 3.880e-8
0.107, 4.019e-8
0.106, 4.169e-8
0.105, 4.289e-8
0.104, 4.428e-8
0.103, 4.566e-8
0.102, 4.708e-8
0.101, 4.822e-8
0.100, 4.951e-8
0.099, 5.065e-8
0.098, 5.197e-8
0.097, 5.302e-8
0.096, 5.409e-8
0.095, 5.529e-8
0.094, 5.631e-8
0.093, 5.735e-8
0.092, 5.837e-8
0.091, 5.920e-8
0.090, 6.031e-8
0.089, 6.114e-8
0.088, 6.188e-8
0.087, 6.277e-8
0.086, 6.344e-8
0.085, 6.424e-8
0.084, 6.489e-8
0.083, 6.538e-8
0.082, 6.612e-8
0.081, 6.671e-8
0.080, 6.707e-8
0.079, 6.766e-8
0.078, 6.797e-8
0.077, 6.852e-8
0.076, 6.883e-8
0.075, 6.904e-8
0.074, 6.944e-8
0.073, 6.969e-8
0.072, 6.978e-8
0.071, 6.997e-8
0.070, 7.003e-8
0.069, 7.024e-8
0.068, 7.027e-8
0.067, 7.015e-8
0.066, 7.024e-8
0.065, 7.024e-8
0.064, 7.015e-8
0.063, 7.009e-8
0.062, 6.987e-8
0.061, 6.972e-8
0.060, 6.963e-8
0.059, 6.935e-8
0.058, 6.914e-8
0.057, 6.892e-8
0.056, 6.867e-8
0.055, 6.840e-8
0.054, 6.800e-8
0.053, 6.772e-8
0.052, 6.754e-8
0.051, 6.704e-8
0.050, 6.671e-8
0.049, 6.631e-8
0.048, 6.600e-8
0.047, 6.557e-8
0.046, 6.504e-8
0.045, 6.464e-8
0.044, 6.434e-8
0.043, 6.381e-8
0.042, 6.335e-8
0.041, 6.286e-8
0.040, 6.246e-8
0.039, 6.209e-8
0.038, 6.151e-8
0.037, 6.101e-8
0.036, 6.061e-8
0.035, 6.015e-8
0.034, 5.966e-8
0.033, 5.908e-8
0.032, 5.865e-8
0.031, 5.828e-8
0.030, 5.769e-8
0.029, 5.717e-8
0.028, 5.674e-8
0.027, 5.631e-8
0.026, 5.585e-8
0.025, 5.529e-8
0.024, 5.480e-8
0.023, 5.446e-8
0.022, 5.391e-8
0.021, 5.338e-8
0.020, 5.295e-8
0.019, 5.255e-8
0.018, 5.212e-8
0.017, 5.160e-8
0.016, 5.111e-8
0.015, 5.080e-8
0.014, 5.034e-8
0.013, 4.988e-8
0.012, 4.942e-8
0.011, 4.898e-8
0.010, 4.868e-8
0.009, 4.822e-8
0.008, 4.769e-8
0.007, 4.739e-8
0.006, 4.702e-8
0.005, 4.655e-8
0.004, 4.615e-8
0.003, 4.572e-8
0.002, 4.554e-8
0.001, 4.508e-8
0.000, 4.480e-8
-0.001, 4.434e-8
-0.002, 4.403e-8
-0.003, 4.363e-8
-0.004, 4.323e-8
-0.005, 4.283e-8
-0.006, 4.265e-8
-0.007, 4.228e-8
-0.008, 4.191e-8
-0.009, 4.157e-8
-0.010, 4.129e-8
-0.011, 4.102e-8
-0.012, 4.065e-8
-0.013, 4.028e-8
-0.014, 4.006e-8
-0.015, 3.982e-8
-0.016, 3.945e-8
-0.017, 3.911e-8
-0.018, 3.889e-8
-0.019, 3.868e-8
-0.020, 3.840e-8
-0.021, 3.800e-8
-0.022, 3.779e-8
-0.023, 3.763e-8
-0.024, 3.732e-8
-0.025, 3.702e-8
-0.026, 3.677e-8
-0.027, 3.662e-8
-0.028, 3.637e-8
-0.029, 3.603e-8
-0.030, 3.582e-8
-0.031, 3.569e-8
-0.032, 3.545e-8
-0.033, 3.520e-8
-0.034, 3.489e-8
-0.035, 3.480e-8
-0.036, 3.462e-8
-0.037, 3.431e-8
-0.038, 3.409e-8
-0.039, 3.397e-8
-0.040, 3.382e-8
-0.041, 3.360e-8
-0.042, 3.329e-8
-0.043, 3.317e-8
-0.044, 3.308e-8
-0.045, 3.283e-8
-0.046, 3.262e-8
-0.047, 3.246e-8
-0.048, 3.237e-8
-0.049, 3.219e-8
-0.050, 3.191e-8
-0.051, 3.179e-8
-0.052, 3.173e-8
-0.053, 3.151e-8
-0.054, 3.133e-8
-0.055, 3.114e-8
-0.056, 3.108e-8
-0.057, 3.099e-8
-0.058, 3.071e-8
-0.059, 3.056e-8
-0.060, 3.053e-8
-0.061, 3.040e-8
-0.062, 3.022e-8
-0.063, 3.000e-8
-0.064, 2.997e-8
-0.065, 2.991e-8
-0.066, 2.973e-8
-0.067, 2.951e-8
-0.068, 2.948e-8
-0.069, 2.942e-8
-0.070, 2.926e-8
-0.071, 2.908e-8
-0.072, 2.896e-8
-0.073, 2.899e-8
-0.074, 2.883e-8
-0.075, 2.862e-8
-0.076, 2.859e-8
-0.077, 2.856e-8
-0.078, 2.846e-8
-0.079, 2.825e-8
-0.080, 2.813e-8
-0.081, 2.819e-8
-0.082, 2.806e-8
-0.083, 2.791e-8
-0.084, 2.782e-8
-0.085, 2.779e-8
-0.086, 2.776e-8
-0.087, 2.760e-8
-0.088, 2.745e-8
-0.089, 2.748e-8
-0.090, 2.745e-8
-0.091, 2.730e-8
-0.092, 2.714e-8
-0.093, 2.711e-8
-0.094, 2.714e-8
-0.095, 2.702e-8
-0.096, 2.683e-8
-0.097, 2.686e-8
-0.098, 2.686e-8
-0.099, 2.674e-8
-0.100, 2.662e-8
-0.101, 2.656e-8
-0.102, 2.662e-8
-0.103, 2.653e-8
-0.104, 2.637e-8
-0.105, 2.634e-8
-0.106, 2.637e-8
-0.107, 2.631e-8
-0.108, 2.622e-8
-0.109, 2.610e-8
-0.110, 2.619e-8
-0.111, 2.616e-8
-0.112, 2.600e-8
-0.113, 2.594e-8
-0.114, 2.594e-8
-0.115, 2.600e-8
-0.116, 2.591e-8
-0.117, 2.576e-8
-0.118, 2.579e-8
-0.119, 2.585e-8
-0.120, 2.573e-8
-0.121, 2.563e-8
-0.122, 2.560e-8
-0.123, 2.570e-8
-0.124, 2.563e-8
-0.125, 2.548e-8
-0.126, 2.551e-8
-0.127, 2.557e-8
-0.128, 2.551e-8
-0.129, 2.542e-8
-0.130, 2.536e-8
-0.131, 2.545e-8
-0.132, 2.545e-8
-0.133, 2.530e-8
-0.134, 2.530e-8
-0.135, 2.536e-8
-0.136, 2.536e-8
-0.137, 2.530e-8
-0.138, 2.520e-8
-0.139, 2.526e-8
-0.140, 2.536e-8
-0.141, 2.520e-8
-0.142, 2.517e-8
-0.143, 2.520e-8
-0.144, 2.526e-8
-0.145, 2.523e-8
-0.146, 2.511e-8
-0.147, 2.514e-8
-0.148, 2.526e-8
-0.149, 2.520e-8
-0.150, 2.511e-8
-0.151, 2.514e-8
-0.152, 2.523e-8
-0.153, 2.520e-8
-0.154, 2.514e-8
-0.155, 2.511e-8
-0.156, 2.526e-8
-0.157, 2.520e-8
-0.158, 2.514e-8
-0.159, 2.514e-8
-0.160, 2.523e-8
-0.161, 2.526e-8
-0.162, 2.520e-8
-0.163, 2.514e-8
-0.164, 2.526e-8
-0.165, 2.530e-8
-0.166, 2.526e-8
-0.167, 2.520e-8
-0.168, 2.530e-8
-0.169, 2.539e-8
-0.170, 2.536e-8
-0.171, 2.526e-8
-0.172, 2.536e-8
-0.173, 2.542e-8
-0.174, 2.542e-8
-0.175, 2.536e-8
-0.176, 2.539e-8
-0.177, 2.557e-8
-0.178, 2.551e-8
-0.179, 2.548e-8
-0.180, 2.551e-8
-0.181, 2.560e-8
-0.182, 2.566e-8
-0.183, 2.560e-8
-0.184, 2.557e-8
-0.185, 2.576e-8
-0.186, 2.576e-8
-0.187, 2.573e-8
-0.188, 2.576e-8
-0.189, 2.582e-8
-0.190, 2.594e-8
-0.191, 2.591e-8
-0.192, 2.588e-8
-0.193, 2.600e-8
-0.194, 2.606e-8
-0.195, 2.606e-8
-0.196, 2.603e-8
-0.197, 2.613e-8
-0.198, 2.628e-8
-0.199, 2.625e-8
