Mar. 16, 2023   10:14:33
Cyclic Voltammetry
File: c:/users/oliverrz/desktop/electrolab/data/2023_03_16\fcmeoh_macros_1_mm\electrode6_cv_50mvs_1_mm.bin
Data Source:  Experiment
Instrument Model:  CHI760E
Header: CV
Note: 

Init E (V) = -0.2
High E (V) = 0.3
Low E (V) = -0.2
Final E (V) = -0.2
Init P/N = P
Scan Rate (V/s) = 0.05
Segment = 3
Sample Interval (V) = 0.001
Quiet Time (sec) = 2
Sensitivity (A/V) = 1e-7

Results:

Channel 1:
Segment 1:
Ep = 0.126V
ip = -4.941e-8A
Ah = -6.333e-8C

Segment 2:
Ep = 0.053V
ip = 4.818e-8A
Ah = 6.341e-8C

Segment 3:

Potential/V, Current/A

-0.200, 1.174e-8
-0.199, 1.114e-8
-0.198, 1.090e-8
-0.197, 1.074e-8
-0.196, 1.058e-8
-0.195, 1.043e-8
-0.194, 1.028e-8
-0.193, 1.013e-8
-0.192, 9.994e-9
-0.191, 9.852e-9
-0.190, 9.720e-9
-0.189, 9.585e-9
-0.188, 9.453e-9
-0.187, 9.327e-9
-0.186, 9.195e-9
-0.185, 9.070e-9
-0.184, 8.946e-9
-0.183, 8.818e-9
-0.182, 8.702e-9
-0.181, 8.584e-9
-0.180, 8.457e-9
-0.179, 8.337e-9
-0.178, 8.222e-9
-0.177, 8.113e-9
-0.176, 8.004e-9
-0.175, 7.889e-9
-0.174, 7.781e-9
-0.173, 7.679e-9
-0.172, 7.570e-9
-0.171, 7.468e-9
-0.170, 7.363e-9
-0.169, 7.262e-9
-0.168, 7.165e-9
-0.167, 7.063e-9
-0.166, 6.964e-9
-0.165, 6.869e-9
-0.164, 6.770e-9
-0.163, 6.681e-9
-0.162, 6.588e-9
-0.161, 6.498e-9
-0.160, 6.411e-9
-0.159, 6.317e-9
-0.158, 6.232e-9
-0.157, 6.146e-9
-0.156, 6.059e-9
-0.155, 5.976e-9
-0.154, 5.889e-9
-0.153, 5.807e-9
-0.152, 5.729e-9
-0.151, 5.648e-9
-0.150, 5.571e-9
-0.149, 5.488e-9
-0.148, 5.410e-9
-0.147, 5.340e-9
-0.146, 5.262e-9
-0.145, 5.187e-9
-0.144, 5.114e-9
-0.143, 5.038e-9
-0.142, 4.972e-9
-0.141, 4.901e-9
-0.140, 4.832e-9
-0.139, 4.764e-9
-0.138, 4.695e-9
-0.137, 4.628e-9
-0.136, 4.564e-9
-0.135, 4.494e-9
-0.134, 4.431e-9
-0.133, 4.372e-9
-0.132, 4.311e-9
-0.131, 4.251e-9
-0.130, 4.187e-9
-0.129, 4.129e-9
-0.128, 4.066e-9
-0.127, 4.009e-9
-0.126, 3.954e-9
-0.125, 3.895e-9
-0.124, 3.837e-9
-0.123, 3.781e-9
-0.122, 3.727e-9
-0.121, 3.673e-9
-0.120, 3.620e-9
-0.119, 3.566e-9
-0.118, 3.519e-9
-0.117, 3.465e-9
-0.116, 3.415e-9
-0.115, 3.364e-9
-0.114, 3.310e-9
-0.113, 3.262e-9
-0.112, 3.217e-9
-0.111, 3.166e-9
-0.110, 3.121e-9
-0.109, 3.071e-9
-0.108, 3.026e-9
-0.107, 2.984e-9
-0.106, 2.937e-9
-0.105, 2.893e-9
-0.104, 2.846e-9
-0.103, 2.801e-9
-0.102, 2.757e-9
-0.101, 2.716e-9
-0.100, 2.674e-9
-0.099, 2.634e-9
-0.098, 2.592e-9
-0.097, 2.553e-9
-0.096, 2.517e-9
-0.095, 2.471e-9
-0.094, 2.433e-9
-0.093, 2.394e-9
-0.092, 2.354e-9
-0.091, 2.320e-9
-0.090, 2.281e-9
-0.089, 2.243e-9
-0.088, 2.207e-9
-0.087, 2.167e-9
-0.086, 2.136e-9
-0.085, 2.096e-9
-0.084, 2.056e-9
-0.083, 2.024e-9
-0.082, 1.988e-9
-0.081, 1.954e-9
-0.080, 1.919e-9
-0.079, 1.877e-9
-0.078, 1.846e-9
-0.077, 1.809e-9
-0.076, 1.773e-9
-0.075, 1.745e-9
-0.074, 1.706e-9
-0.073, 1.673e-9
-0.072, 1.642e-9
-0.071, 1.604e-9
-0.070, 1.572e-9
-0.069, 1.533e-9
-0.068, 1.499e-9
-0.067, 1.469e-9
-0.066, 1.434e-9
-0.065, 1.401e-9
-0.064, 1.363e-9
-0.063, 1.327e-9
-0.062, 1.295e-9
-0.061, 1.263e-9
-0.060, 1.229e-9
-0.059, 1.196e-9
-0.058, 1.158e-9
-0.057, 1.124e-9
-0.056, 1.090e-9
-0.055, 1.050e-9
-0.054, 1.017e-9
-0.053, 9.805e-10
-0.052, 9.419e-10
-0.051, 9.047e-10
-0.050, 8.642e-10
-0.049, 8.246e-10
-0.048, 7.881e-10
-0.047, 7.480e-10
-0.046, 7.141e-10
-0.045, 6.721e-10
-0.044, 6.264e-10
-0.043, 5.851e-10
-0.042, 5.392e-10
-0.041, 4.973e-10
-0.040, 4.577e-10
-0.039, 4.073e-10
-0.038, 3.631e-10
-0.037, 3.191e-10
-0.036, 2.711e-10
-0.035, 2.259e-10
-0.034, 1.728e-10
-0.033, 1.230e-10
-0.032, 7.494e-11
-0.031, 2.060e-11
-0.030, -3.050e-11
-0.029, -8.612e-11
-0.028, -1.450e-10
-0.027, -1.972e-10
-0.026, -2.598e-10
-0.025, -3.233e-10
-0.024, -3.848e-10
-0.023, -4.524e-10
-0.022, -5.116e-10
-0.021, -5.810e-10
-0.020, -6.507e-10
-0.019, -7.196e-10
-0.018, -7.974e-10
-0.017, -8.707e-10
-0.016, -9.458e-10
-0.015, -1.031e-9
-0.014, -1.109e-9
-0.013, -1.196e-9
-0.012, -1.287e-9
-0.011, -1.371e-9
-0.010, -1.467e-9
-0.009, -1.563e-9
-0.008, -1.660e-9
-0.007, -1.769e-9
-0.006, -1.866e-9
-0.005, -1.978e-9
-0.004, -2.097e-9
-0.003, -2.208e-9
-0.002, -2.330e-9
-0.001, -2.450e-9
-0.000, -2.613e-9
0.001, -2.743e-9
0.002, -2.863e-9
0.003, -3.002e-9
0.004, -3.148e-9
0.005, -3.296e-9
0.006, -3.453e-9
0.007, -3.606e-9
0.008, -3.769e-9
0.009, -3.943e-9
0.010, -4.112e-9
0.011, -4.302e-9
0.012, -4.493e-9
0.013, -4.684e-9
0.014, -4.887e-9
0.015, -5.091e-9
0.016, -5.304e-9
0.017, -5.530e-9
0.018, -5.752e-9
0.019, -5.990e-9
0.020, -6.230e-9
0.021, -6.479e-9
0.022, -6.741e-9
0.023, -7.007e-9
0.024, -7.284e-9
0.025, -7.574e-9
0.026, -7.872e-9
0.027, -8.173e-9
0.028, -8.482e-9
0.029, -8.790e-9
0.030, -9.124e-9
0.031, -9.462e-9
0.032, -9.806e-9
0.033, -1.017e-8
0.034, -1.053e-8
0.035, -1.091e-8
0.036, -1.130e-8
0.037, -1.169e-8
0.038, -1.211e-8
0.039, -1.253e-8
0.040, -1.296e-8
0.041, -1.340e-8
0.042, -1.384e-8
0.043, -1.431e-8
0.044, -1.479e-8
0.045, -1.527e-8
0.046, -1.578e-8
0.047, -1.628e-8
0.048, -1.680e-8
0.049, -1.733e-8
0.050, -1.787e-8
0.051, -1.843e-8
0.052, -1.900e-8
0.053, -1.956e-8
0.054, -2.015e-8
0.055, -2.074e-8
0.056, -2.134e-8
0.057, -2.196e-8
0.058, -2.257e-8
0.059, -2.322e-8
0.060, -2.387e-8
0.061, -2.450e-8
0.062, -2.517e-8
0.063, -2.583e-8
0.064, -2.651e-8
0.065, -2.719e-8
0.066, -2.786e-8
0.067, -2.856e-8
0.068, -2.925e-8
0.069, -2.994e-8
0.070, -3.065e-8
0.071, -3.135e-8
0.072, -3.205e-8
0.073, -3.277e-8
0.074, -3.346e-8
0.075, -3.418e-8
0.076, -3.489e-8
0.077, -3.559e-8
0.078, -3.630e-8
0.079, -3.699e-8
0.080, -3.768e-8
0.081, -3.837e-8
0.082, -3.905e-8
0.083, -3.973e-8
0.084, -4.040e-8
0.085, -4.103e-8
0.086, -4.170e-8
0.087, -4.232e-8
0.088, -4.295e-8
0.089, -4.358e-8
0.090, -4.417e-8
0.091, -4.477e-8
0.092, -4.535e-8
0.093, -4.589e-8
0.094, -4.645e-8
0.095, -4.697e-8
0.096, -4.748e-8
0.097, -4.799e-8
0.098, -4.846e-8
0.099, -4.894e-8
0.100, -4.938e-8
0.101, -4.979e-8
0.102, -5.023e-8
0.103, -5.064e-8
0.104, -5.099e-8
0.105, -5.135e-8
0.106, -5.167e-8
0.107, -5.199e-8
0.108, -5.229e-8
0.109, -5.255e-8
0.110, -5.282e-8
0.111, -5.306e-8
0.112, -5.328e-8
0.113, -5.349e-8
0.114, -5.367e-8
0.115, -5.384e-8
0.116, -5.401e-8
0.117, -5.413e-8
0.118, -5.426e-8
0.119, -5.434e-8
0.120, -5.443e-8
0.121, -5.452e-8
0.122, -5.456e-8
0.123, -5.461e-8
0.124, -5.464e-8
0.125, -5.464e-8
0.126, -5.466e-8
0.127, -5.464e-8
0.128, -5.463e-8
0.129, -5.460e-8
0.130, -5.454e-8
0.131, -5.449e-8
0.132, -5.442e-8
0.133, -5.433e-8
0.134, -5.425e-8
0.135, -5.416e-8
0.136, -5.406e-8
0.137, -5.396e-8
0.138, -5.383e-8
0.139, -5.371e-8
0.140, -5.358e-8
0.141, -5.344e-8
0.142, -5.331e-8
0.143, -5.316e-8
0.144, -5.301e-8
0.145, -5.286e-8
0.146, -5.269e-8
0.147, -5.253e-8
0.148, -5.237e-8
0.149, -5.219e-8
0.150, -5.203e-8
0.151, -5.185e-8
0.152, -5.167e-8
0.153, -5.150e-8
0.154, -5.132e-8
0.155, -5.114e-8
0.156, -5.096e-8
0.157, -5.078e-8
0.158, -5.061e-8
0.159, -5.042e-8
0.160, -5.023e-8
0.161, -5.005e-8
0.162, -4.986e-8
0.163, -4.968e-8
0.164, -4.950e-8
0.165, -4.931e-8
0.166, -4.914e-8
0.167, -4.895e-8
0.168, -4.876e-8
0.169, -4.859e-8
0.170, -4.840e-8
0.171, -4.824e-8
0.172, -4.806e-8
0.173, -4.788e-8
0.174, -4.771e-8
0.175, -4.754e-8
0.176, -4.737e-8
0.177, -4.720e-8
0.178, -4.703e-8
0.179, -4.687e-8
0.180, -4.670e-8
0.181, -4.653e-8
0.182, -4.637e-8
0.183, -4.620e-8
0.184, -4.604e-8
0.185, -4.589e-8
0.186, -4.573e-8
0.187, -4.558e-8
0.188, -4.543e-8
0.189, -4.528e-8
0.190, -4.513e-8
0.191, -4.499e-8
0.192, -4.484e-8
0.193, -4.470e-8
0.194, -4.456e-8
0.195, -4.442e-8
0.196, -4.429e-8
0.197, -4.415e-8
0.198, -4.402e-8
0.199, -4.389e-8
0.200, -4.376e-8
0.201, -4.363e-8
0.202, -4.350e-8
0.203, -4.338e-8
0.204, -4.326e-8
0.205, -4.314e-8
0.206, -4.303e-8
0.207, -4.291e-8
0.208, -4.279e-8
0.209, -4.268e-8
0.210, -4.257e-8
0.211, -4.246e-8
0.212, -4.235e-8
0.213, -4.224e-8
0.214, -4.214e-8
0.215, -4.203e-8
0.216, -4.193e-8
0.217, -4.183e-8
0.218, -4.173e-8
0.219, -4.163e-8
0.220, -4.153e-8
0.221, -4.143e-8
0.222, -4.134e-8
0.223, -4.124e-8
0.224, -4.115e-8
0.225, -4.107e-8
0.226, -4.098e-8
0.227, -4.089e-8
0.228, -4.081e-8
0.229, -4.072e-8
0.230, -4.064e-8
0.231, -4.057e-8
0.232, -4.048e-8
0.233, -4.040e-8
0.234, -4.032e-8
0.235, -4.025e-8
0.236, -4.017e-8
0.237, -4.009e-8
0.238, -4.001e-8
0.239, -3.994e-8
0.240, -3.986e-8
0.241, -3.980e-8
0.242, -3.972e-8
0.243, -3.965e-8
0.244, -3.959e-8
0.245, -3.952e-8
0.246, -3.946e-8
0.247, -3.939e-8
0.248, -3.932e-8
0.249, -3.926e-8
0.250, -3.919e-8
0.251, -3.913e-8
0.252, -3.907e-8
0.253, -3.901e-8
0.254, -3.895e-8
0.255, -3.889e-8
0.256, -3.884e-8
0.257, -3.879e-8
0.258, -3.872e-8
0.259, -3.866e-8
0.260, -3.860e-8
0.261, -3.855e-8
0.262, -3.850e-8
0.263, -3.845e-8
0.264, -3.839e-8
0.265, -3.835e-8
0.266, -3.830e-8
0.267, -3.825e-8
0.268, -3.820e-8
0.269, -3.815e-8
0.270, -3.811e-8
0.271, -3.807e-8
0.272, -3.803e-8
0.273, -3.799e-8
0.274, -3.794e-8
0.275, -3.790e-8
0.276, -3.786e-8
0.277, -3.781e-8
0.278, -3.778e-8
0.279, -3.774e-8
0.280, -3.769e-8
0.281, -3.766e-8
0.282, -3.762e-8
0.283, -3.758e-8
0.284, -3.754e-8
0.285, -3.750e-8
0.286, -3.747e-8
0.287, -3.743e-8
0.288, -3.739e-8
0.289, -3.736e-8
0.290, -3.732e-8
0.291, -3.730e-8
0.292, -3.727e-8
0.293, -3.724e-8
0.294, -3.721e-8
0.295, -3.718e-8
0.296, -3.715e-8
0.297, -3.712e-8
0.298, -3.709e-8
0.299, -3.707e-8
0.300, -3.667e-8
0.299, -3.562e-8
0.298, -3.531e-8
0.297, -3.516e-8
0.296, -3.502e-8
0.295, -3.491e-8
0.294, -3.481e-8
0.293, -3.470e-8
0.292, -3.461e-8
0.291, -3.452e-8
0.290, -3.443e-8
0.289, -3.435e-8
0.288, -3.427e-8
0.287, -3.420e-8
0.286, -3.413e-8
0.285, -3.405e-8
0.284, -3.398e-8
0.283, -3.391e-8
0.282, -3.384e-8
0.281, -3.377e-8
0.280, -3.372e-8
0.279, -3.365e-8
0.278, -3.359e-8
0.277, -3.353e-8
0.276, -3.348e-8
0.275, -3.342e-8
0.274, -3.337e-8
0.273, -3.331e-8
0.272, -3.325e-8
0.271, -3.320e-8
0.270, -3.314e-8
0.269, -3.309e-8
0.268, -3.304e-8
0.267, -3.299e-8
0.266, -3.294e-8
0.265, -3.289e-8
0.264, -3.284e-8
0.263, -3.278e-8
0.262, -3.274e-8
0.261, -3.268e-8
0.260, -3.263e-8
0.259, -3.259e-8
0.258, -3.254e-8
0.257, -3.250e-8
0.256, -3.245e-8
0.255, -3.240e-8
0.254, -3.236e-8
0.253, -3.230e-8
0.252, -3.225e-8
0.251, -3.221e-8
0.250, -3.216e-8
0.249, -3.212e-8
0.248, -3.207e-8
0.247, -3.202e-8
0.246, -3.198e-8
0.245, -3.193e-8
0.244, -3.189e-8
0.243, -3.183e-8
0.242, -3.178e-8
0.241, -3.173e-8
0.240, -3.169e-8
0.239, -3.164e-8
0.238, -3.160e-8
0.237, -3.154e-8
0.236, -3.150e-8
0.235, -3.145e-8
0.234, -3.141e-8
0.233, -3.136e-8
0.232, -3.131e-8
0.231, -3.126e-8
0.230, -3.121e-8
0.229, -3.116e-8
0.228, -3.111e-8
0.227, -3.106e-8
0.226, -3.101e-8
0.225, -3.096e-8
0.224, -3.091e-8
0.223, -3.085e-8
0.222, -3.079e-8
0.221, -3.074e-8
0.220, -3.068e-8
0.219, -3.063e-8
0.218, -3.057e-8
0.217, -3.052e-8
0.216, -3.046e-8
0.215, -3.039e-8
0.214, -3.034e-8
0.213, -3.027e-8
0.212, -3.021e-8
0.211, -3.015e-8
0.210, -3.008e-8
0.209, -3.002e-8
0.208, -2.995e-8
0.207, -2.987e-8
0.206, -2.980e-8
0.205, -2.973e-8
0.204, -2.965e-8
0.203, -2.958e-8
0.202, -2.950e-8
0.201, -2.942e-8
0.200, -2.934e-8
0.199, -2.926e-8
0.198, -2.918e-8
0.197, -2.909e-8
0.196, -2.900e-8
0.195, -2.891e-8
0.194, -2.881e-8
0.193, -2.872e-8
0.192, -2.861e-8
0.191, -2.850e-8
0.190, -2.840e-8
0.189, -2.828e-8
0.188, -2.817e-8
0.187, -2.806e-8
0.186, -2.794e-8
0.185, -2.782e-8
0.184, -2.770e-8
0.183, -2.756e-8
0.182, -2.744e-8
0.181, -2.729e-8
0.180, -2.715e-8
0.179, -2.701e-8
0.178, -2.686e-8
0.177, -2.671e-8
0.176, -2.655e-8
0.175, -2.639e-8
0.174, -2.622e-8
0.173, -2.604e-8
0.172, -2.586e-8
0.171, -2.568e-8
0.170, -2.549e-8
0.169, -2.530e-8
0.168, -2.509e-8
0.167, -2.488e-8
0.166, -2.467e-8
0.165, -2.445e-8
0.164, -2.422e-8
0.163, -2.399e-8
0.162, -2.374e-8
0.161, -2.350e-8
0.160, -2.324e-8
0.159, -2.297e-8
0.158, -2.270e-8
0.157, -2.241e-8
0.156, -2.212e-8
0.155, -2.183e-8
0.154, -2.152e-8
0.153, -2.121e-8
0.152, -2.088e-8
0.151, -2.055e-8
0.150, -2.022e-8
0.149, -1.986e-8
0.148, -1.950e-8
0.147, -1.913e-8
0.146, -1.875e-8
0.145, -1.836e-8
0.144, -1.796e-8
0.143, -1.754e-8
0.142, -1.713e-8
0.141, -1.669e-8
0.140, -1.625e-8
0.139, -1.580e-8
0.138, -1.532e-8
0.137, -1.486e-8
0.136, -1.436e-8
0.135, -1.386e-8
0.134, -1.336e-8
0.133, -1.284e-8
0.132, -1.231e-8
0.131, -1.177e-8
0.130, -1.121e-8
0.129, -1.066e-8
0.128, -1.006e-8
0.127, -9.476e-9
0.126, -8.900e-9
0.125, -8.289e-9
0.124, -7.676e-9
0.123, -7.059e-9
0.122, -6.416e-9
0.121, -5.790e-9
0.120, -5.137e-9
0.119, -4.479e-9
0.118, -3.829e-9
0.117, -3.161e-9
0.116, -2.485e-9
0.115, -1.786e-9
0.114, -1.096e-9
0.113, -4.209e-10
0.112, 2.845e-10
0.111, 9.902e-10
0.110, 1.687e-9
0.109, 2.401e-9
0.108, 3.095e-9
0.107, 3.801e-9
0.106, 4.509e-9
0.105, 5.201e-9
0.104, 5.908e-9
0.103, 6.624e-9
0.102, 7.341e-9
0.101, 8.033e-9
0.100, 8.704e-9
0.099, 9.379e-9
0.098, 1.007e-8
0.097, 1.072e-8
0.096, 1.137e-8
0.095, 1.202e-8
0.094, 1.264e-8
0.093, 1.327e-8
0.092, 1.389e-8
0.091, 1.449e-8
0.090, 1.510e-8
0.089, 1.567e-8
0.088, 1.624e-8
0.087, 1.679e-8
0.086, 1.730e-8
0.085, 1.783e-8
0.084, 1.833e-8
0.083, 1.882e-8
0.082, 1.930e-8
0.081, 1.974e-8
0.080, 2.017e-8
0.079, 2.059e-8
0.078, 2.099e-8
0.077, 2.138e-8
0.076, 2.175e-8
0.075, 2.209e-8
0.074, 2.242e-8
0.073, 2.272e-8
0.072, 2.301e-8
0.071, 2.329e-8
0.070, 2.353e-8
0.069, 2.376e-8
0.068, 2.398e-8
0.067, 2.418e-8
0.066, 2.438e-8
0.065, 2.454e-8
0.064, 2.471e-8
0.063, 2.485e-8
0.062, 2.495e-8
0.061, 2.507e-8
0.060, 2.515e-8
0.059, 2.522e-8
0.058, 2.529e-8
0.057, 2.532e-8
0.056, 2.536e-8
0.055, 2.539e-8
0.054, 2.538e-8
0.053, 2.539e-8
0.052, 2.538e-8
0.051, 2.536e-8
0.050, 2.533e-8
0.049, 2.527e-8
0.048, 2.523e-8
0.047, 2.517e-8
0.046, 2.508e-8
0.045, 2.501e-8
0.044, 2.491e-8
0.043, 2.482e-8
0.042, 2.473e-8
0.041, 2.461e-8
0.040, 2.450e-8
0.039, 2.438e-8
0.038, 2.425e-8
0.037, 2.413e-8
0.036, 2.399e-8
0.035, 2.385e-8
0.034, 2.372e-8
0.033, 2.357e-8
0.032, 2.342e-8
0.031, 2.328e-8
0.030, 2.312e-8
0.029, 2.297e-8
0.028, 2.282e-8
0.027, 2.266e-8
0.026, 2.252e-8
0.025, 2.236e-8
0.024, 2.219e-8
0.023, 2.203e-8
0.022, 2.187e-8
0.021, 2.171e-8
0.020, 2.154e-8
0.019, 2.138e-8
0.018, 2.122e-8
0.017, 2.106e-8
0.016, 2.090e-8
0.015, 2.074e-8
0.014, 2.058e-8
0.013, 2.042e-8
0.012, 2.026e-8
0.011, 2.011e-8
0.010, 1.996e-8
0.009, 1.979e-8
0.008, 1.964e-8
0.007, 1.949e-8
0.006, 1.934e-8
0.005, 1.920e-8
0.004, 1.904e-8
0.003, 1.890e-8
0.002, 1.876e-8
0.001, 1.861e-8
0.000, 1.850e-8
-0.001, 1.836e-8
-0.002, 1.821e-8
-0.003, 1.807e-8
-0.004, 1.793e-8
-0.005, 1.780e-8
-0.006, 1.767e-8
-0.007, 1.753e-8
-0.008, 1.741e-8
-0.009, 1.728e-8
-0.010, 1.716e-8
-0.011, 1.704e-8
-0.012, 1.692e-8
-0.013, 1.680e-8
-0.014, 1.668e-8
-0.015, 1.657e-8
-0.016, 1.645e-8
-0.017, 1.634e-8
-0.018, 1.623e-8
-0.019, 1.612e-8
-0.020, 1.601e-8
-0.021, 1.591e-8
-0.022, 1.581e-8
-0.023, 1.571e-8
-0.024, 1.561e-8
-0.025, 1.552e-8
-0.026, 1.542e-8
-0.027, 1.533e-8
-0.028, 1.524e-8
-0.029, 1.515e-8
-0.030, 1.506e-8
-0.031, 1.497e-8
-0.032, 1.489e-8
-0.033, 1.481e-8
-0.034, 1.472e-8
-0.035, 1.465e-8
-0.036, 1.457e-8
-0.037, 1.449e-8
-0.038, 1.442e-8
-0.039, 1.435e-8
-0.040, 1.428e-8
-0.041, 1.421e-8
-0.042, 1.414e-8
-0.043, 1.407e-8
-0.044, 1.401e-8
-0.045, 1.394e-8
-0.046, 1.388e-8
-0.047, 1.382e-8
-0.048, 1.376e-8
-0.049, 1.371e-8
-0.050, 1.365e-8
-0.051, 1.360e-8
-0.052, 1.354e-8
-0.053, 1.349e-8
-0.054, 1.344e-8
-0.055, 1.339e-8
-0.056, 1.334e-8
-0.057, 1.330e-8
-0.058, 1.325e-8
-0.059, 1.321e-8
-0.060, 1.317e-8
-0.061, 1.312e-8
-0.062, 1.308e-8
-0.063, 1.304e-8
-0.064, 1.301e-8
-0.065, 1.297e-8
-0.066, 1.293e-8
-0.067, 1.290e-8
-0.068, 1.287e-8
-0.069, 1.283e-8
-0.070, 1.281e-8
-0.071, 1.277e-8
-0.072, 1.275e-8
-0.073, 1.272e-8
-0.074, 1.269e-8
-0.075, 1.267e-8
-0.076, 1.265e-8
-0.077, 1.262e-8
-0.078, 1.260e-8
-0.079, 1.258e-8
-0.080, 1.256e-8
-0.081, 1.255e-8
-0.082, 1.253e-8
-0.083, 1.252e-8
-0.084, 1.250e-8
-0.085, 1.249e-8
-0.086, 1.248e-8
-0.087, 1.246e-8
-0.088, 1.245e-8
-0.089, 1.245e-8
-0.090, 1.243e-8
-0.091, 1.243e-8
-0.092, 1.242e-8
-0.093, 1.241e-8
-0.094, 1.241e-8
-0.095, 1.241e-8
-0.096, 1.240e-8
-0.097, 1.241e-8
-0.098, 1.240e-8
-0.099, 1.241e-8
-0.100, 1.241e-8
-0.101, 1.241e-8
-0.102, 1.242e-8
-0.103, 1.243e-8
-0.104, 1.243e-8
-0.105, 1.244e-8
-0.106, 1.244e-8
-0.107, 1.246e-8
-0.108, 1.247e-8
-0.109, 1.248e-8
-0.110, 1.250e-8
-0.111, 1.251e-8
-0.112, 1.252e-8
-0.113, 1.254e-8
-0.114, 1.255e-8
-0.115, 1.257e-8
-0.116, 1.259e-8
-0.117, 1.261e-8
-0.118, 1.264e-8
-0.119, 1.266e-8
-0.120, 1.268e-8
-0.121, 1.270e-8
-0.122, 1.273e-8
-0.123, 1.276e-8
-0.124, 1.279e-8
-0.125, 1.281e-8
-0.126, 1.284e-8
-0.127, 1.287e-8
-0.128, 1.291e-8
-0.129, 1.295e-8
-0.130, 1.298e-8
-0.131, 1.301e-8
-0.132, 1.305e-8
-0.133, 1.308e-8
-0.134, 1.312e-8
-0.135, 1.316e-8
-0.136, 1.320e-8
-0.137, 1.324e-8
-0.138, 1.329e-8
-0.139, 1.333e-8
-0.140, 1.337e-8
-0.141, 1.342e-8
-0.142, 1.347e-8
-0.143, 1.352e-8
-0.144, 1.357e-8
-0.145, 1.362e-8
-0.146, 1.366e-8
-0.147, 1.372e-8
-0.148, 1.378e-8
-0.149, 1.383e-8
-0.150, 1.388e-8
-0.151, 1.394e-8
-0.152, 1.400e-8
-0.153, 1.407e-8
-0.154, 1.413e-8
-0.155, 1.419e-8
-0.156, 1.425e-8
-0.157, 1.431e-8
-0.158, 1.438e-8
-0.159, 1.445e-8
-0.160, 1.452e-8
-0.161, 1.459e-8
-0.162, 1.465e-8
-0.163, 1.473e-8
-0.164, 1.480e-8
-0.165, 1.487e-8
-0.166, 1.495e-8
-0.167, 1.503e-8
-0.168, 1.510e-8
-0.169, 1.519e-8
-0.170, 1.527e-8
-0.171, 1.535e-8
-0.172, 1.544e-8
-0.173, 1.552e-8
-0.174, 1.561e-8
-0.175, 1.569e-8
-0.176, 1.578e-8
-0.177, 1.587e-8
-0.178, 1.596e-8
-0.179, 1.606e-8
-0.180, 1.615e-8
-0.181, 1.624e-8
-0.182, 1.635e-8
-0.183, 1.645e-8
-0.184, 1.655e-8
-0.185, 1.665e-8
-0.186, 1.675e-8
-0.187, 1.686e-8
-0.188, 1.696e-8
-0.189, 1.706e-8
-0.190, 1.718e-8
-0.191, 1.728e-8
-0.192, 1.740e-8
-0.193, 1.751e-8
-0.194, 1.762e-8
-0.195, 1.774e-8
-0.196, 1.785e-8
-0.197, 1.797e-8
-0.198, 1.809e-8
-0.199, 1.820e-8
