Mar. 16, 2023   10:09:30
Cyclic Voltammetry
File: c:/users/oliverrz/desktop/electrolab/data/2023_03_16\fcmeoh_macros_1_mm\electrode2_cv_100mvs_1_mm.bin
Data Source:  Experiment
Instrument Model:  CHI760E
Header: CV
Note: 

Init E (V) = -0.2
High E (V) = 0.3
Low E (V) = -0.2
Final E (V) = -0.2
Init P/N = P
Scan Rate (V/s) = 0.1
Segment = 3
Sample Interval (V) = 0.001
Quiet Time (sec) = 2
Sensitivity (A/V) = 1e-7

Results:

Channel 1:
Segment 1:
Ep = 0.129V
ip = -6.938e-8A
Ah = -4.329e-8C

Segment 2:
Ep = 0.064V
ip = 6.250e-8A
Ah = 3.926e-8C

Segment 3:

Potential/V, Current/A

-0.200, 5.482e-9
-0.199, 4.729e-9
-0.198, 4.474e-9
-0.197, 4.407e-9
-0.196, 4.243e-9
-0.195, 4.227e-9
-0.194, 4.133e-9
-0.193, 4.048e-9
-0.192, 4.047e-9
-0.191, 3.917e-9
-0.190, 3.923e-9
-0.189, 3.853e-9
-0.188, 3.776e-9
-0.187, 3.790e-9
-0.186, 3.673e-9
-0.185, 3.682e-9
-0.184, 3.620e-9
-0.183, 3.551e-9
-0.182, 3.571e-9
-0.181, 3.463e-9
-0.180, 3.472e-9
-0.179, 3.415e-9
-0.178, 3.350e-9
-0.177, 3.364e-9
-0.176, 3.269e-9
-0.175, 3.279e-9
-0.174, 3.224e-9
-0.173, 3.169e-9
-0.172, 3.184e-9
-0.171, 3.086e-9
-0.170, 3.103e-9
-0.169, 3.048e-9
-0.168, 2.994e-9
-0.167, 3.018e-9
-0.166, 2.914e-9
-0.165, 2.941e-9
-0.164, 2.882e-9
-0.163, 2.834e-9
-0.162, 2.859e-9
-0.161, 2.754e-9
-0.160, 2.782e-9
-0.159, 2.728e-9
-0.158, 2.674e-9
-0.157, 2.710e-9
-0.156, 2.603e-9
-0.155, 2.638e-9
-0.154, 2.583e-9
-0.153, 2.529e-9
-0.152, 2.566e-9
-0.151, 2.466e-9
-0.150, 2.493e-9
-0.149, 2.448e-9
-0.148, 2.392e-9
-0.147, 2.431e-9
-0.146, 2.333e-9
-0.145, 2.360e-9
-0.144, 2.320e-9
-0.143, 2.265e-9
-0.142, 2.299e-9
-0.141, 2.205e-9
-0.140, 2.233e-9
-0.139, 2.193e-9
-0.138, 2.139e-9
-0.137, 2.172e-9
-0.136, 2.084e-9
-0.135, 2.111e-9
-0.134, 2.073e-9
-0.133, 2.020e-9
-0.132, 2.050e-9
-0.131, 1.968e-9
-0.130, 1.994e-9
-0.129, 1.952e-9
-0.128, 1.899e-9
-0.127, 1.936e-9
-0.126, 1.844e-9
-0.125, 1.881e-9
-0.124, 1.835e-9
-0.123, 1.791e-9
-0.122, 1.829e-9
-0.121, 1.735e-9
-0.120, 1.770e-9
-0.119, 1.731e-9
-0.118, 1.683e-9
-0.117, 1.723e-9
-0.116, 1.631e-9
-0.115, 1.663e-9
-0.114, 1.626e-9
-0.113, 1.573e-9
-0.112, 1.616e-9
-0.111, 1.526e-9
-0.110, 1.557e-9
-0.109, 1.525e-9
-0.108, 1.467e-9
-0.107, 1.515e-9
-0.106, 1.423e-9
-0.105, 1.453e-9
-0.104, 1.425e-9
-0.103, 1.366e-9
-0.102, 1.406e-9
-0.101, 1.321e-9
-0.100, 1.352e-9
-0.099, 1.323e-9
-0.098, 1.269e-9
-0.097, 1.312e-9
-0.096, 1.230e-9
-0.095, 1.254e-9
-0.094, 1.224e-9
-0.093, 1.176e-9
-0.092, 1.215e-9
-0.091, 1.127e-9
-0.090, 1.157e-9
-0.089, 1.124e-9
-0.088, 1.077e-9
-0.087, 1.118e-9
-0.086, 1.027e-9
-0.085, 1.059e-9
-0.084, 1.023e-9
-0.083, 9.758e-10
-0.082, 1.019e-9
-0.081, 9.271e-10
-0.080, 9.588e-10
-0.079, 9.208e-10
-0.078, 8.692e-10
-0.077, 9.123e-10
-0.076, 8.146e-10
-0.075, 8.527e-10
-0.074, 8.197e-10
-0.073, 7.593e-10
-0.072, 8.075e-10
-0.071, 7.132e-10
-0.070, 7.411e-10
-0.069, 7.084e-10
-0.068, 6.481e-10
-0.067, 6.971e-10
-0.066, 5.971e-10
-0.065, 6.190e-10
-0.064, 5.913e-10
-0.063, 5.287e-10
-0.062, 5.661e-10
-0.061, 4.790e-10
-0.060, 4.940e-10
-0.059, 4.673e-10
-0.058, 4.023e-10
-0.057, 4.377e-10
-0.056, 3.490e-10
-0.055, 3.628e-10
-0.054, 3.275e-10
-0.053, 2.685e-10
-0.052, 2.986e-10
-0.051, 2.007e-10
-0.050, 2.163e-10
-0.049, 1.781e-10
-0.048, 1.141e-10
-0.047, 1.452e-10
-0.046, 4.462e-11
-0.045, 5.741e-11
-0.044, 1.449e-11
-0.043, -5.275e-11
-0.042, -2.489e-11
-0.041, -1.334e-10
-0.040, -1.219e-10
-0.039, -1.702e-10
-0.038, -2.456e-10
-0.037, -2.196e-10
-0.036, -3.381e-10
-0.035, -3.272e-10
-0.034, -3.783e-10
-0.033, -4.652e-10
-0.032, -4.399e-10
-0.031, -5.623e-10
-0.030, -5.664e-10
-0.029, -6.221e-10
-0.028, -7.184e-10
-0.027, -7.010e-10
-0.026, -8.308e-10
-0.025, -8.493e-10
-0.024, -9.039e-10
-0.023, -1.010e-9
-0.022, -1.008e-9
-0.021, -1.133e-9
-0.020, -1.164e-9
-0.019, -1.229e-9
-0.018, -1.346e-9
-0.017, -1.356e-9
-0.016, -1.492e-9
-0.015, -1.537e-9
-0.014, -1.618e-9
-0.013, -1.747e-9
-0.012, -1.772e-9
-0.011, -1.918e-9
-0.010, -1.975e-9
-0.009, -2.078e-9
-0.008, -2.214e-9
-0.007, -2.251e-9
-0.006, -2.423e-9
-0.005, -2.494e-9
-0.004, -2.614e-9
-0.003, -2.767e-9
-0.002, -2.830e-9
-0.001, -3.024e-9
-0.000, -3.162e-9
0.001, -3.284e-9
0.002, -3.452e-9
0.003, -3.522e-9
0.004, -3.739e-9
0.005, -3.848e-9
0.006, -4.009e-9
0.007, -4.222e-9
0.008, -4.323e-9
0.009, -4.573e-9
0.010, -4.717e-9
0.011, -4.901e-9
0.012, -5.147e-9
0.013, -5.283e-9
0.014, -5.558e-9
0.015, -5.744e-9
0.016, -5.961e-9
0.017, -6.244e-9
0.018, -6.415e-9
0.019, -6.729e-9
0.020, -6.959e-9
0.021, -7.212e-9
0.022, -7.545e-9
0.023, -7.771e-9
0.024, -8.116e-9
0.025, -8.396e-9
0.026, -8.714e-9
0.027, -9.078e-9
0.028, -9.355e-9
0.029, -9.746e-9
0.030, -1.007e-8
0.031, -1.044e-8
0.032, -1.085e-8
0.033, -1.119e-8
0.034, -1.165e-8
0.035, -1.203e-8
0.036, -1.246e-8
0.037, -1.293e-8
0.038, -1.333e-8
0.039, -1.386e-8
0.040, -1.430e-8
0.041, -1.480e-8
0.042, -1.535e-8
0.043, -1.581e-8
0.044, -1.642e-8
0.045, -1.691e-8
0.046, -1.749e-8
0.047, -1.811e-8
0.048, -1.863e-8
0.049, -1.930e-8
0.050, -1.989e-8
0.051, -2.053e-8
0.052, -2.124e-8
0.053, -2.184e-8
0.054, -2.259e-8
0.055, -2.326e-8
0.056, -2.395e-8
0.057, -2.474e-8
0.058, -2.542e-8
0.059, -2.623e-8
0.060, -2.699e-8
0.061, -2.773e-8
0.062, -2.860e-8
0.063, -2.937e-8
0.064, -3.023e-8
0.065, -3.107e-8
0.066, -3.190e-8
0.067, -3.281e-8
0.068, -3.364e-8
0.069, -3.453e-8
0.070, -3.541e-8
0.071, -3.632e-8
0.072, -3.725e-8
0.073, -3.813e-8
0.074, -3.909e-8
0.075, -4.002e-8
0.076, -4.095e-8
0.077, -4.193e-8
0.078, -4.282e-8
0.079, -4.380e-8
0.080, -4.472e-8
0.081, -4.567e-8
0.082, -4.664e-8
0.083, -4.755e-8
0.084, -4.853e-8
0.085, -4.942e-8
0.086, -5.034e-8
0.087, -5.130e-8
0.088, -5.215e-8
0.089, -5.310e-8
0.090, -5.401e-8
0.091, -5.486e-8
0.092, -5.579e-8
0.093, -5.656e-8
0.094, -5.746e-8
0.095, -5.827e-8
0.096, -5.903e-8
0.097, -5.989e-8
0.098, -6.060e-8
0.099, -6.139e-8
0.100, -6.212e-8
0.101, -6.280e-8
0.102, -6.356e-8
0.103, -6.420e-8
0.104, -6.485e-8
0.105, -6.548e-8
0.106, -6.602e-8
0.107, -6.662e-8
0.108, -6.713e-8
0.109, -6.765e-8
0.110, -6.813e-8
0.111, -6.859e-8
0.112, -6.905e-8
0.113, -6.943e-8
0.114, -6.984e-8
0.115, -7.020e-8
0.116, -7.053e-8
0.117, -7.086e-8
0.118, -7.109e-8
0.119, -7.137e-8
0.120, -7.160e-8
0.121, -7.179e-8
0.122, -7.198e-8
0.123, -7.209e-8
0.124, -7.227e-8
0.125, -7.235e-8
0.126, -7.243e-8
0.127, -7.254e-8
0.128, -7.254e-8
0.129, -7.260e-8
0.130, -7.259e-8
0.131, -7.254e-8
0.132, -7.256e-8
0.133, -7.243e-8
0.134, -7.241e-8
0.135, -7.231e-8
0.136, -7.218e-8
0.137, -7.213e-8
0.138, -7.193e-8
0.139, -7.181e-8
0.140, -7.165e-8
0.141, -7.146e-8
0.142, -7.134e-8
0.143, -7.109e-8
0.144, -7.091e-8
0.145, -7.069e-8
0.146, -7.044e-8
0.147, -7.026e-8
0.148, -6.997e-8
0.149, -6.975e-8
0.150, -6.948e-8
0.151, -6.921e-8
0.152, -6.899e-8
0.153, -6.867e-8
0.154, -6.845e-8
0.155, -6.816e-8
0.156, -6.786e-8
0.157, -6.761e-8
0.158, -6.726e-8
0.159, -6.703e-8
0.160, -6.671e-8
0.161, -6.641e-8
0.162, -6.617e-8
0.163, -6.580e-8
0.164, -6.557e-8
0.165, -6.524e-8
0.166, -6.494e-8
0.167, -6.469e-8
0.168, -6.433e-8
0.169, -6.410e-8
0.170, -6.378e-8
0.171, -6.346e-8
0.172, -6.323e-8
0.173, -6.286e-8
0.174, -6.263e-8
0.175, -6.232e-8
0.176, -6.200e-8
0.177, -6.178e-8
0.178, -6.143e-8
0.179, -6.121e-8
0.180, -6.093e-8
0.181, -6.062e-8
0.182, -6.041e-8
0.183, -6.007e-8
0.184, -5.985e-8
0.185, -5.957e-8
0.186, -5.929e-8
0.187, -5.909e-8
0.188, -5.876e-8
0.189, -5.856e-8
0.190, -5.830e-8
0.191, -5.803e-8
0.192, -5.784e-8
0.193, -5.754e-8
0.194, -5.735e-8
0.195, -5.709e-8
0.196, -5.684e-8
0.197, -5.667e-8
0.198, -5.639e-8
0.199, -5.621e-8
0.200, -5.597e-8
0.201, -5.573e-8
0.202, -5.557e-8
0.203, -5.530e-8
0.204, -5.514e-8
0.205, -5.492e-8
0.206, -5.470e-8
0.207, -5.455e-8
0.208, -5.427e-8
0.209, -5.413e-8
0.210, -5.392e-8
0.211, -5.370e-8
0.212, -5.359e-8
0.213, -5.332e-8
0.214, -5.320e-8
0.215, -5.301e-8
0.216, -5.281e-8
0.217, -5.270e-8
0.218, -5.246e-8
0.219, -5.234e-8
0.220, -5.216e-8
0.221, -5.196e-8
0.222, -5.187e-8
0.223, -5.164e-8
0.224, -5.153e-8
0.225, -5.136e-8
0.226, -5.118e-8
0.227, -5.109e-8
0.228, -5.087e-8
0.229, -5.078e-8
0.230, -5.063e-8
0.231, -5.047e-8
0.232, -5.038e-8
0.233, -5.018e-8
0.234, -5.009e-8
0.235, -4.994e-8
0.236, -4.979e-8
0.237, -4.972e-8
0.238, -4.952e-8
0.239, -4.946e-8
0.240, -4.931e-8
0.241, -4.917e-8
0.242, -4.911e-8
0.243, -4.892e-8
0.244, -4.886e-8
0.245, -4.872e-8
0.246, -4.858e-8
0.247, -4.853e-8
0.248, -4.835e-8
0.249, -4.830e-8
0.250, -4.818e-8
0.251, -4.804e-8
0.252, -4.801e-8
0.253, -4.783e-8
0.254, -4.778e-8
0.255, -4.768e-8
0.256, -4.755e-8
0.257, -4.751e-8
0.258, -4.735e-8
0.259, -4.729e-8
0.260, -4.720e-8
0.261, -4.707e-8
0.262, -4.704e-8
0.263, -4.689e-8
0.264, -4.685e-8
0.265, -4.675e-8
0.266, -4.663e-8
0.267, -4.661e-8
0.268, -4.646e-8
0.269, -4.643e-8
0.270, -4.634e-8
0.271, -4.623e-8
0.272, -4.621e-8
0.273, -4.608e-8
0.274, -4.604e-8
0.275, -4.596e-8
0.276, -4.586e-8
0.277, -4.585e-8
0.278, -4.571e-8
0.279, -4.569e-8
0.280, -4.561e-8
0.281, -4.552e-8
0.282, -4.552e-8
0.283, -4.538e-8
0.284, -4.537e-8
0.285, -4.529e-8
0.286, -4.520e-8
0.287, -4.520e-8
0.288, -4.507e-8
0.289, -4.505e-8
0.290, -4.499e-8
0.291, -4.490e-8
0.292, -4.491e-8
0.293, -4.478e-8
0.294, -4.477e-8
0.295, -4.472e-8
0.296, -4.463e-8
0.297, -4.464e-8
0.298, -4.453e-8
0.299, -4.452e-8
0.300, -4.364e-8
0.299, -4.213e-8
0.298, -4.170e-8
0.297, -4.136e-8
0.296, -4.119e-8
0.295, -4.099e-8
0.294, -4.079e-8
0.293, -4.070e-8
0.292, -4.048e-8
0.291, -4.039e-8
0.290, -4.024e-8
0.289, -4.008e-8
0.288, -4.002e-8
0.287, -3.983e-8
0.286, -3.976e-8
0.285, -3.964e-8
0.284, -3.949e-8
0.283, -3.945e-8
0.282, -3.928e-8
0.281, -3.921e-8
0.280, -3.912e-8
0.279, -3.898e-8
0.278, -3.895e-8
0.277, -3.879e-8
0.276, -3.873e-8
0.275, -3.864e-8
0.274, -3.851e-8
0.273, -3.848e-8
0.272, -3.833e-8
0.271, -3.828e-8
0.270, -3.820e-8
0.269, -3.807e-8
0.268, -3.805e-8
0.267, -3.791e-8
0.266, -3.787e-8
0.265, -3.779e-8
0.264, -3.767e-8
0.263, -3.765e-8
0.262, -3.752e-8
0.261, -3.747e-8
0.260, -3.740e-8
0.259, -3.729e-8
0.258, -3.727e-8
0.257, -3.713e-8
0.256, -3.709e-8
0.255, -3.701e-8
0.254, -3.691e-8
0.253, -3.690e-8
0.252, -3.675e-8
0.251, -3.672e-8
0.250, -3.664e-8
0.249, -3.652e-8
0.248, -3.652e-8
0.247, -3.637e-8
0.246, -3.634e-8
0.245, -3.626e-8
0.244, -3.615e-8
0.243, -3.614e-8
0.242, -3.600e-8
0.241, -3.596e-8
0.240, -3.589e-8
0.239, -3.576e-8
0.238, -3.575e-8
0.237, -3.561e-8
0.236, -3.557e-8
0.235, -3.550e-8
0.234, -3.538e-8
0.233, -3.536e-8
0.232, -3.522e-8
0.231, -3.517e-8
0.230, -3.509e-8
0.229, -3.497e-8
0.228, -3.495e-8
0.227, -3.481e-8
0.226, -3.476e-8
0.225, -3.468e-8
0.224, -3.455e-8
0.223, -3.453e-8
0.222, -3.437e-8
0.221, -3.432e-8
0.220, -3.423e-8
0.219, -3.410e-8
0.218, -3.406e-8
0.217, -3.390e-8
0.216, -3.384e-8
0.215, -3.374e-8
0.214, -3.360e-8
0.213, -3.356e-8
0.212, -3.339e-8
0.211, -3.333e-8
0.210, -3.321e-8
0.209, -3.305e-8
0.208, -3.301e-8
0.207, -3.282e-8
0.206, -3.274e-8
0.205, -3.261e-8
0.204, -3.244e-8
0.203, -3.238e-8
0.202, -3.218e-8
0.201, -3.208e-8
0.200, -3.196e-8
0.199, -3.176e-8
0.198, -3.168e-8
0.197, -3.148e-8
0.196, -3.135e-8
0.195, -3.120e-8
0.194, -3.099e-8
0.193, -3.088e-8
0.192, -3.065e-8
0.191, -3.050e-8
0.190, -3.033e-8
0.189, -3.010e-8
0.188, -2.997e-8
0.187, -2.971e-8
0.186, -2.953e-8
0.185, -2.934e-8
0.184, -2.907e-8
0.183, -2.891e-8
0.182, -2.863e-8
0.181, -2.842e-8
0.180, -2.818e-8
0.179, -2.788e-8
0.178, -2.768e-8
0.177, -2.736e-8
0.176, -2.712e-8
0.175, -2.685e-8
0.174, -2.652e-8
0.173, -2.628e-8
0.172, -2.592e-8
0.171, -2.564e-8
0.170, -2.531e-8
0.169, -2.494e-8
0.168, -2.466e-8
0.167, -2.424e-8
0.166, -2.391e-8
0.165, -2.354e-8
0.164, -2.310e-8
0.163, -2.277e-8
0.162, -2.230e-8
0.161, -2.189e-8
0.160, -2.148e-8
0.159, -2.099e-8
0.158, -2.060e-8
0.157, -2.007e-8
0.156, -1.961e-8
0.155, -1.914e-8
0.154, -1.856e-8
0.153, -1.811e-8
0.152, -1.752e-8
0.151, -1.699e-8
0.150, -1.645e-8
0.149, -1.580e-8
0.148, -1.526e-8
0.147, -1.462e-8
0.146, -1.400e-8
0.145, -1.339e-8
0.144, -1.270e-8
0.143, -1.207e-8
0.142, -1.136e-8
0.141, -1.066e-8
0.140, -9.959e-9
0.139, -9.202e-9
0.138, -8.515e-9
0.137, -7.717e-9
0.136, -6.957e-9
0.135, -6.180e-9
0.134, -5.362e-9
0.133, -4.598e-9
0.132, -3.725e-9
0.131, -2.919e-9
0.130, -2.078e-9
0.129, -1.173e-9
0.128, -3.463e-10
0.127, 5.961e-10
0.126, 1.462e-9
0.125, 2.361e-9
0.124, 3.306e-9
0.123, 4.154e-9
0.122, 5.139e-9
0.121, 6.034e-9
0.120, 6.953e-9
0.119, 7.955e-9
0.118, 8.834e-9
0.117, 9.829e-9
0.116, 1.078e-8
0.115, 1.170e-8
0.114, 1.272e-8
0.113, 1.360e-8
0.112, 1.458e-8
0.111, 1.553e-8
0.110, 1.641e-8
0.109, 1.741e-8
0.108, 1.828e-8
0.107, 1.923e-8
0.106, 2.016e-8
0.105, 2.100e-8
0.104, 2.194e-8
0.103, 2.281e-8
0.102, 2.371e-8
0.101, 2.454e-8
0.100, 2.534e-8
0.099, 2.617e-8
0.098, 2.694e-8
0.097, 2.773e-8
0.096, 2.848e-8
0.095, 2.920e-8
0.094, 2.994e-8
0.093, 3.060e-8
0.092, 3.129e-8
0.091, 3.193e-8
0.090, 3.256e-8
0.089, 3.319e-8
0.088, 3.373e-8
0.087, 3.431e-8
0.086, 3.479e-8
0.085, 3.530e-8
0.084, 3.581e-8
0.083, 3.620e-8
0.082, 3.666e-8
0.081, 3.704e-8
0.080, 3.738e-8
0.079, 3.780e-8
0.078, 3.805e-8
0.077, 3.839e-8
0.076, 3.866e-8
0.075, 3.886e-8
0.074, 3.913e-8
0.073, 3.927e-8
0.072, 3.947e-8
0.071, 3.964e-8
0.070, 3.970e-8
0.069, 3.987e-8
0.068, 3.990e-8
0.067, 3.999e-8
0.066, 4.004e-8
0.065, 4.000e-8
0.064, 4.009e-8
0.063, 4.002e-8
0.062, 4.000e-8
0.061, 3.994e-8
0.060, 3.985e-8
0.059, 3.981e-8
0.058, 3.967e-8
0.057, 3.958e-8
0.056, 3.945e-8
0.055, 3.929e-8
0.054, 3.918e-8
0.053, 3.898e-8
0.052, 3.887e-8
0.051, 3.867e-8
0.050, 3.845e-8
0.049, 3.829e-8
0.048, 3.802e-8
0.047, 3.787e-8
0.046, 3.762e-8
0.045, 3.736e-8
0.044, 3.719e-8
0.043, 3.688e-8
0.042, 3.669e-8
0.041, 3.642e-8
0.040, 3.613e-8
0.039, 3.595e-8
0.038, 3.562e-8
0.037, 3.540e-8
0.036, 3.514e-8
0.035, 3.482e-8
0.034, 3.462e-8
0.033, 3.429e-8
0.032, 3.405e-8
0.031, 3.378e-8
0.030, 3.347e-8
0.029, 3.326e-8
0.028, 3.292e-8
0.027, 3.269e-8
0.026, 3.242e-8
0.025, 3.212e-8
0.024, 3.189e-8
0.023, 3.157e-8
0.022, 3.134e-8
0.021, 3.106e-8
0.020, 3.077e-8
0.019, 3.056e-8
0.018, 3.024e-8
0.017, 3.003e-8
0.016, 2.976e-8
0.015, 2.948e-8
0.014, 2.928e-8
0.013, 2.897e-8
0.012, 2.878e-8
0.011, 2.851e-8
0.010, 2.824e-8
0.009, 2.806e-8
0.008, 2.776e-8
0.007, 2.758e-8
0.006, 2.732e-8
0.005, 2.707e-8
0.004, 2.690e-8
0.003, 2.661e-8
0.002, 2.645e-8
0.001, 2.622e-8
0.000, 2.602e-8
-0.001, 2.586e-8
-0.002, 2.556e-8
-0.003, 2.540e-8
-0.004, 2.519e-8
-0.005, 2.495e-8
-0.006, 2.481e-8
-0.007, 2.454e-8
-0.008, 2.440e-8
-0.009, 2.420e-8
-0.010, 2.397e-8
-0.011, 2.386e-8
-0.012, 2.361e-8
-0.013, 2.348e-8
-0.014, 2.329e-8
-0.015, 2.309e-8
-0.016, 2.298e-8
-0.017, 2.274e-8
-0.018, 2.262e-8
-0.019, 2.245e-8
-0.020, 2.226e-8
-0.021, 2.217e-8
-0.022, 2.195e-8
-0.023, 2.184e-8
-0.024, 2.168e-8
-0.025, 2.150e-8
-0.026, 2.142e-8
-0.027, 2.121e-8
-0.028, 2.112e-8
-0.029, 2.096e-8
-0.030, 2.080e-8
-0.031, 2.073e-8
-0.032, 2.052e-8
-0.033, 2.045e-8
-0.034, 2.031e-8
-0.035, 2.015e-8
-0.036, 2.009e-8
-0.037, 1.990e-8
-0.038, 1.983e-8
-0.039, 1.971e-8
-0.040, 1.955e-8
-0.041, 1.951e-8
-0.042, 1.932e-8
-0.043, 1.926e-8
-0.044, 1.915e-8
-0.045, 1.900e-8
-0.046, 1.897e-8
-0.047, 1.880e-8
-0.048, 1.873e-8
-0.049, 1.863e-8
-0.050, 1.850e-8
-0.051, 1.847e-8
-0.052, 1.831e-8
-0.053, 1.826e-8
-0.054, 1.816e-8
-0.055, 1.804e-8
-0.056, 1.801e-8
-0.057, 1.786e-8
-0.058, 1.781e-8
-0.059, 1.773e-8
-0.060, 1.761e-8
-0.061, 1.759e-8
-0.062, 1.745e-8
-0.063, 1.741e-8
-0.064, 1.733e-8
-0.065, 1.722e-8
-0.066, 1.720e-8
-0.067, 1.706e-8
-0.068, 1.704e-8
-0.069, 1.696e-8
-0.070, 1.686e-8
-0.071, 1.685e-8
-0.072, 1.672e-8
-0.073, 1.670e-8
-0.074, 1.662e-8
-0.075, 1.652e-8
-0.076, 1.653e-8
-0.077, 1.640e-8
-0.078, 1.638e-8
-0.079, 1.631e-8
-0.080, 1.621e-8
-0.081, 1.622e-8
-0.082, 1.609e-8
-0.083, 1.608e-8
-0.084, 1.603e-8
-0.085, 1.593e-8
-0.086, 1.594e-8
-0.087, 1.582e-8
-0.088, 1.581e-8
-0.089, 1.577e-8
-0.090, 1.567e-8
-0.091, 1.569e-8
-0.092, 1.558e-8
-0.093, 1.557e-8
-0.094, 1.553e-8
-0.095, 1.544e-8
-0.096, 1.546e-8
-0.097, 1.536e-8
-0.098, 1.535e-8
-0.099, 1.531e-8
-0.100, 1.523e-8
-0.101, 1.526e-8
-0.102, 1.516e-8
-0.103, 1.516e-8
-0.104, 1.512e-8
-0.105, 1.504e-8
-0.106, 1.507e-8
-0.107, 1.497e-8
-0.108, 1.497e-8
-0.109, 1.494e-8
-0.110, 1.486e-8
-0.111, 1.490e-8
-0.112, 1.480e-8
-0.113, 1.481e-8
-0.114, 1.478e-8
-0.115, 1.471e-8
-0.116, 1.475e-8
-0.117, 1.465e-8
-0.118, 1.466e-8
-0.119, 1.464e-8
-0.120, 1.457e-8
-0.121, 1.461e-8
-0.122, 1.452e-8
-0.123, 1.453e-8
-0.124, 1.452e-8
-0.125, 1.444e-8
-0.126, 1.449e-8
-0.127, 1.441e-8
-0.128, 1.442e-8
-0.129, 1.441e-8
-0.130, 1.433e-8
-0.131, 1.438e-8
-0.132, 1.431e-8
-0.133, 1.431e-8
-0.134, 1.431e-8
-0.135, 1.424e-8
-0.136, 1.429e-8
-0.137, 1.421e-8
-0.138, 1.423e-8
-0.139, 1.422e-8
-0.140, 1.416e-8
-0.141, 1.422e-8
-0.142, 1.414e-8
-0.143, 1.416e-8
-0.144, 1.415e-8
-0.145, 1.410e-8
-0.146, 1.415e-8
-0.147, 1.408e-8
-0.148, 1.410e-8
-0.149, 1.410e-8
-0.150, 1.404e-8
-0.151, 1.410e-8
-0.152, 1.403e-8
-0.153, 1.406e-8
-0.154, 1.406e-8
-0.155, 1.401e-8
-0.156, 1.407e-8
-0.157, 1.399e-8
-0.158, 1.403e-8
-0.159, 1.403e-8
-0.160, 1.397e-8
-0.161, 1.405e-8
-0.162, 1.397e-8
-0.163, 1.400e-8
-0.164, 1.401e-8
-0.165, 1.396e-8
-0.166, 1.403e-8
-0.167, 1.397e-8
-0.168, 1.400e-8
-0.169, 1.401e-8
-0.170, 1.396e-8
-0.171, 1.403e-8
-0.172, 1.397e-8
-0.173, 1.400e-8
-0.174, 1.402e-8
-0.175, 1.397e-8
-0.176, 1.404e-8
-0.177, 1.399e-8
-0.178, 1.402e-8
-0.179, 1.404e-8
-0.180, 1.400e-8
-0.181, 1.407e-8
-0.182, 1.402e-8
-0.183, 1.406e-8
-0.184, 1.407e-8
-0.185, 1.404e-8
-0.186, 1.411e-8
-0.187, 1.406e-8
-0.188, 1.411e-8
-0.189, 1.412e-8
-0.190, 1.409e-8
-0.191, 1.417e-8
-0.192, 1.412e-8
-0.193, 1.417e-8
-0.194, 1.419e-8
-0.195, 1.415e-8
-0.196, 1.424e-8
-0.197, 1.419e-8
-0.198, 1.424e-8
-0.199, 1.427e-8
