Mar. 16, 2023   10:10:34
Cyclic Voltammetry
File: c:/users/oliverrz/desktop/electrolab/data/2023_03_16\fcmeoh_macros_1_mm\electrode3_cv_50mvs_1_mm.bin
Data Source:  Experiment
Instrument Model:  CHI760E
Header: CV
Note: 

Init E (V) = -0.2
High E (V) = 0.3
Low E (V) = -0.2
Final E (V) = -0.2
Init P/N = P
Scan Rate (V/s) = 0.05
Segment = 3
Sample Interval (V) = 0.001
Quiet Time (sec) = 2
Sensitivity (A/V) = 1e-7

Results:

Channel 1:
Segment 1:
Ep = 0.129V
ip = -4.958e-8A
Ah = -6.282e-8C

Segment 2:
Ep = 0.058V
ip = 4.722e-8A
Ah = 6.041e-8C

Segment 3:

Potential/V, Current/A

-0.200, 9.633e-9
-0.199, 9.017e-9
-0.198, 8.773e-9
-0.197, 8.612e-9
-0.196, 8.461e-9
-0.195, 8.327e-9
-0.194, 8.203e-9
-0.193, 8.088e-9
-0.192, 7.972e-9
-0.191, 7.855e-9
-0.190, 7.744e-9
-0.189, 7.642e-9
-0.188, 7.534e-9
-0.187, 7.434e-9
-0.186, 7.333e-9
-0.185, 7.233e-9
-0.184, 7.137e-9
-0.183, 7.040e-9
-0.182, 6.953e-9
-0.181, 6.857e-9
-0.180, 6.760e-9
-0.179, 6.672e-9
-0.178, 6.585e-9
-0.177, 6.501e-9
-0.176, 6.418e-9
-0.175, 6.330e-9
-0.174, 6.248e-9
-0.173, 6.169e-9
-0.172, 6.088e-9
-0.171, 6.004e-9
-0.170, 5.924e-9
-0.169, 5.851e-9
-0.168, 5.777e-9
-0.167, 5.698e-9
-0.166, 5.623e-9
-0.165, 5.546e-9
-0.164, 5.471e-9
-0.163, 5.406e-9
-0.162, 5.334e-9
-0.161, 5.263e-9
-0.160, 5.192e-9
-0.159, 5.122e-9
-0.158, 5.059e-9
-0.157, 4.992e-9
-0.156, 4.924e-9
-0.155, 4.859e-9
-0.154, 4.790e-9
-0.153, 4.731e-9
-0.152, 4.672e-9
-0.151, 4.604e-9
-0.150, 4.544e-9
-0.149, 4.480e-9
-0.148, 4.423e-9
-0.147, 4.372e-9
-0.146, 4.309e-9
-0.145, 4.248e-9
-0.144, 4.194e-9
-0.143, 4.137e-9
-0.142, 4.087e-9
-0.141, 4.026e-9
-0.140, 3.968e-9
-0.139, 3.917e-9
-0.138, 3.865e-9
-0.137, 3.813e-9
-0.136, 3.761e-9
-0.135, 3.703e-9
-0.134, 3.657e-9
-0.133, 3.609e-9
-0.132, 3.560e-9
-0.131, 3.511e-9
-0.130, 3.457e-9
-0.129, 3.410e-9
-0.128, 3.362e-9
-0.127, 3.316e-9
-0.126, 3.270e-9
-0.125, 3.220e-9
-0.124, 3.176e-9
-0.123, 3.134e-9
-0.122, 3.087e-9
-0.121, 3.044e-9
-0.120, 3.000e-9
-0.119, 2.954e-9
-0.118, 2.915e-9
-0.117, 2.873e-9
-0.116, 2.828e-9
-0.115, 2.785e-9
-0.114, 2.742e-9
-0.113, 2.707e-9
-0.112, 2.668e-9
-0.111, 2.626e-9
-0.110, 2.586e-9
-0.109, 2.547e-9
-0.108, 2.510e-9
-0.107, 2.475e-9
-0.106, 2.434e-9
-0.105, 2.394e-9
-0.104, 2.359e-9
-0.103, 2.321e-9
-0.102, 2.288e-9
-0.101, 2.252e-9
-0.100, 2.212e-9
-0.099, 2.183e-9
-0.098, 2.145e-9
-0.097, 2.112e-9
-0.096, 2.075e-9
-0.095, 2.037e-9
-0.094, 2.008e-9
-0.093, 1.975e-9
-0.092, 1.941e-9
-0.091, 1.906e-9
-0.090, 1.870e-9
-0.089, 1.836e-9
-0.088, 1.807e-9
-0.087, 1.774e-9
-0.086, 1.744e-9
-0.085, 1.709e-9
-0.084, 1.676e-9
-0.083, 1.648e-9
-0.082, 1.617e-9
-0.081, 1.581e-9
-0.080, 1.549e-9
-0.079, 1.517e-9
-0.078, 1.490e-9
-0.077, 1.457e-9
-0.076, 1.422e-9
-0.075, 1.391e-9
-0.074, 1.362e-9
-0.073, 1.332e-9
-0.072, 1.303e-9
-0.071, 1.270e-9
-0.070, 1.241e-9
-0.069, 1.213e-9
-0.068, 1.182e-9
-0.067, 1.157e-9
-0.066, 1.120e-9
-0.065, 1.085e-9
-0.064, 1.056e-9
-0.063, 1.025e-9
-0.062, 9.985e-10
-0.061, 9.647e-10
-0.060, 9.296e-10
-0.059, 9.028e-10
-0.058, 8.701e-10
-0.057, 8.356e-10
-0.056, 8.030e-10
-0.055, 7.661e-10
-0.054, 7.377e-10
-0.053, 7.070e-10
-0.052, 6.719e-10
-0.051, 6.339e-10
-0.050, 5.941e-10
-0.049, 5.597e-10
-0.048, 5.281e-10
-0.047, 4.916e-10
-0.046, 4.568e-10
-0.045, 4.207e-10
-0.044, 3.805e-10
-0.043, 3.480e-10
-0.042, 3.097e-10
-0.041, 2.685e-10
-0.040, 2.289e-10
-0.039, 1.885e-10
-0.038, 1.509e-10
-0.037, 1.082e-10
-0.036, 6.411e-11
-0.035, 2.148e-11
-0.034, -2.085e-11
-0.033, -6.417e-11
-0.032, -1.065e-10
-0.031, -1.587e-10
-0.030, -2.063e-10
-0.029, -2.559e-10
-0.028, -3.034e-10
-0.027, -3.512e-10
-0.026, -4.131e-10
-0.025, -4.687e-10
-0.024, -5.198e-10
-0.023, -5.759e-10
-0.022, -6.303e-10
-0.021, -6.946e-10
-0.020, -7.618e-10
-0.019, -8.200e-10
-0.018, -8.848e-10
-0.017, -9.502e-10
-0.016, -1.020e-9
-0.015, -1.091e-9
-0.014, -1.158e-9
-0.013, -1.235e-9
-0.012, -1.313e-9
-0.011, -1.390e-9
-0.010, -1.477e-9
-0.009, -1.557e-9
-0.008, -1.644e-9
-0.007, -1.734e-9
-0.006, -1.827e-9
-0.005, -1.924e-9
-0.004, -2.022e-9
-0.003, -2.117e-9
-0.002, -2.228e-9
-0.001, -2.337e-9
-0.000, -2.479e-9
0.001, -2.591e-9
0.002, -2.695e-9
0.003, -2.816e-9
0.004, -2.945e-9
0.005, -3.076e-9
0.006, -3.208e-9
0.007, -3.348e-9
0.008, -3.484e-9
0.009, -3.638e-9
0.010, -3.786e-9
0.011, -3.947e-9
0.012, -4.111e-9
0.013, -4.280e-9
0.014, -4.462e-9
0.015, -4.643e-9
0.016, -4.823e-9
0.017, -5.018e-9
0.018, -5.214e-9
0.019, -5.422e-9
0.020, -5.635e-9
0.021, -5.853e-9
0.022, -6.077e-9
0.023, -6.306e-9
0.024, -6.552e-9
0.025, -6.806e-9
0.026, -7.060e-9
0.027, -7.332e-9
0.028, -7.604e-9
0.029, -7.885e-9
0.030, -8.181e-9
0.031, -8.469e-9
0.032, -8.778e-9
0.033, -9.096e-9
0.034, -9.416e-9
0.035, -9.753e-9
0.036, -1.010e-8
0.037, -1.045e-8
0.038, -1.082e-8
0.039, -1.120e-8
0.040, -1.158e-8
0.041, -1.198e-8
0.042, -1.237e-8
0.043, -1.279e-8
0.044, -1.322e-8
0.045, -1.365e-8
0.046, -1.411e-8
0.047, -1.457e-8
0.048, -1.503e-8
0.049, -1.553e-8
0.050, -1.602e-8
0.051, -1.653e-8
0.052, -1.705e-8
0.053, -1.757e-8
0.054, -1.811e-8
0.055, -1.865e-8
0.056, -1.920e-8
0.057, -1.978e-8
0.058, -2.034e-8
0.059, -2.095e-8
0.060, -2.155e-8
0.061, -2.214e-8
0.062, -2.278e-8
0.063, -2.339e-8
0.064, -2.404e-8
0.065, -2.470e-8
0.066, -2.533e-8
0.067, -2.600e-8
0.068, -2.667e-8
0.069, -2.733e-8
0.070, -2.802e-8
0.071, -2.869e-8
0.072, -2.938e-8
0.073, -3.007e-8
0.074, -3.076e-8
0.075, -3.147e-8
0.076, -3.217e-8
0.077, -3.288e-8
0.078, -3.360e-8
0.079, -3.430e-8
0.080, -3.498e-8
0.081, -3.568e-8
0.082, -3.637e-8
0.083, -3.706e-8
0.084, -3.775e-8
0.085, -3.843e-8
0.086, -3.912e-8
0.087, -3.976e-8
0.088, -4.043e-8
0.089, -4.110e-8
0.090, -4.174e-8
0.091, -4.238e-8
0.092, -4.300e-8
0.093, -4.359e-8
0.094, -4.420e-8
0.095, -4.479e-8
0.096, -4.534e-8
0.097, -4.591e-8
0.098, -4.644e-8
0.099, -4.698e-8
0.100, -4.749e-8
0.101, -4.796e-8
0.102, -4.846e-8
0.103, -4.893e-8
0.104, -4.937e-8
0.105, -4.980e-8
0.106, -5.018e-8
0.107, -5.059e-8
0.108, -5.095e-8
0.109, -5.128e-8
0.110, -5.162e-8
0.111, -5.192e-8
0.112, -5.222e-8
0.113, -5.250e-8
0.114, -5.273e-8
0.115, -5.299e-8
0.116, -5.321e-8
0.117, -5.340e-8
0.118, -5.359e-8
0.119, -5.375e-8
0.120, -5.390e-8
0.121, -5.404e-8
0.122, -5.414e-8
0.123, -5.425e-8
0.124, -5.434e-8
0.125, -5.440e-8
0.126, -5.446e-8
0.127, -5.449e-8
0.128, -5.453e-8
0.129, -5.455e-8
0.130, -5.454e-8
0.131, -5.453e-8
0.132, -5.451e-8
0.133, -5.446e-8
0.134, -5.442e-8
0.135, -5.435e-8
0.136, -5.428e-8
0.137, -5.422e-8
0.138, -5.412e-8
0.139, -5.404e-8
0.140, -5.393e-8
0.141, -5.382e-8
0.142, -5.371e-8
0.143, -5.358e-8
0.144, -5.345e-8
0.145, -5.332e-8
0.146, -5.317e-8
0.147, -5.303e-8
0.148, -5.289e-8
0.149, -5.272e-8
0.150, -5.257e-8
0.151, -5.240e-8
0.152, -5.223e-8
0.153, -5.207e-8
0.154, -5.190e-8
0.155, -5.173e-8
0.156, -5.155e-8
0.157, -5.137e-8
0.158, -5.120e-8
0.159, -5.102e-8
0.160, -5.084e-8
0.161, -5.066e-8
0.162, -5.048e-8
0.163, -5.030e-8
0.164, -5.011e-8
0.165, -4.993e-8
0.166, -4.974e-8
0.167, -4.956e-8
0.168, -4.938e-8
0.169, -4.920e-8
0.170, -4.901e-8
0.171, -4.883e-8
0.172, -4.865e-8
0.173, -4.846e-8
0.174, -4.830e-8
0.175, -4.812e-8
0.176, -4.794e-8
0.177, -4.776e-8
0.178, -4.759e-8
0.179, -4.743e-8
0.180, -4.726e-8
0.181, -4.708e-8
0.182, -4.692e-8
0.183, -4.675e-8
0.184, -4.658e-8
0.185, -4.642e-8
0.186, -4.625e-8
0.187, -4.610e-8
0.188, -4.594e-8
0.189, -4.578e-8
0.190, -4.563e-8
0.191, -4.547e-8
0.192, -4.533e-8
0.193, -4.518e-8
0.194, -4.503e-8
0.195, -4.489e-8
0.196, -4.475e-8
0.197, -4.461e-8
0.198, -4.447e-8
0.199, -4.434e-8
0.200, -4.420e-8
0.201, -4.407e-8
0.202, -4.393e-8
0.203, -4.380e-8
0.204, -4.368e-8
0.205, -4.356e-8
0.206, -4.343e-8
0.207, -4.330e-8
0.208, -4.319e-8
0.209, -4.307e-8
0.210, -4.294e-8
0.211, -4.283e-8
0.212, -4.273e-8
0.213, -4.261e-8
0.214, -4.250e-8
0.215, -4.239e-8
0.216, -4.228e-8
0.217, -4.218e-8
0.218, -4.208e-8
0.219, -4.198e-8
0.220, -4.188e-8
0.221, -4.178e-8
0.222, -4.168e-8
0.223, -4.158e-8
0.224, -4.148e-8
0.225, -4.139e-8
0.226, -4.129e-8
0.227, -4.120e-8
0.228, -4.112e-8
0.229, -4.103e-8
0.230, -4.094e-8
0.231, -4.086e-8
0.232, -4.077e-8
0.233, -4.069e-8
0.234, -4.061e-8
0.235, -4.053e-8
0.236, -4.045e-8
0.237, -4.037e-8
0.238, -4.030e-8
0.239, -4.022e-8
0.240, -4.015e-8
0.241, -4.007e-8
0.242, -4.000e-8
0.243, -3.993e-8
0.244, -3.986e-8
0.245, -3.979e-8
0.246, -3.972e-8
0.247, -3.966e-8
0.248, -3.960e-8
0.249, -3.954e-8
0.250, -3.947e-8
0.251, -3.941e-8
0.252, -3.936e-8
0.253, -3.930e-8
0.254, -3.924e-8
0.255, -3.918e-8
0.256, -3.913e-8
0.257, -3.907e-8
0.258, -3.901e-8
0.259, -3.896e-8
0.260, -3.891e-8
0.261, -3.886e-8
0.262, -3.881e-8
0.263, -3.876e-8
0.264, -3.872e-8
0.265, -3.867e-8
0.266, -3.862e-8
0.267, -3.858e-8
0.268, -3.854e-8
0.269, -3.849e-8
0.270, -3.845e-8
0.271, -3.841e-8
0.272, -3.836e-8
0.273, -3.832e-8
0.274, -3.828e-8
0.275, -3.825e-8
0.276, -3.821e-8
0.277, -3.817e-8
0.278, -3.813e-8
0.279, -3.810e-8
0.280, -3.806e-8
0.281, -3.803e-8
0.282, -3.799e-8
0.283, -3.796e-8
0.284, -3.794e-8
0.285, -3.790e-8
0.286, -3.787e-8
0.287, -3.784e-8
0.288, -3.781e-8
0.289, -3.779e-8
0.290, -3.776e-8
0.291, -3.773e-8
0.292, -3.770e-8
0.293, -3.767e-8
0.294, -3.765e-8
0.295, -3.763e-8
0.296, -3.760e-8
0.297, -3.757e-8
0.298, -3.755e-8
0.299, -3.754e-8
0.300, -3.720e-8
0.299, -3.628e-8
0.298, -3.598e-8
0.297, -3.581e-8
0.296, -3.567e-8
0.295, -3.553e-8
0.294, -3.541e-8
0.293, -3.530e-8
0.292, -3.519e-8
0.291, -3.509e-8
0.290, -3.498e-8
0.289, -3.490e-8
0.288, -3.481e-8
0.287, -3.472e-8
0.286, -3.463e-8
0.285, -3.455e-8
0.284, -3.446e-8
0.283, -3.439e-8
0.282, -3.431e-8
0.281, -3.424e-8
0.280, -3.417e-8
0.279, -3.409e-8
0.278, -3.402e-8
0.277, -3.395e-8
0.276, -3.388e-8
0.275, -3.381e-8
0.274, -3.375e-8
0.273, -3.368e-8
0.272, -3.362e-8
0.271, -3.356e-8
0.270, -3.350e-8
0.269, -3.343e-8
0.268, -3.337e-8
0.267, -3.331e-8
0.266, -3.325e-8
0.265, -3.319e-8
0.264, -3.312e-8
0.263, -3.306e-8
0.262, -3.301e-8
0.261, -3.295e-8
0.260, -3.290e-8
0.259, -3.284e-8
0.258, -3.278e-8
0.257, -3.273e-8
0.256, -3.267e-8
0.255, -3.261e-8
0.254, -3.255e-8
0.253, -3.250e-8
0.252, -3.246e-8
0.251, -3.241e-8
0.250, -3.235e-8
0.249, -3.230e-8
0.248, -3.224e-8
0.247, -3.219e-8
0.246, -3.214e-8
0.245, -3.209e-8
0.244, -3.203e-8
0.243, -3.198e-8
0.242, -3.193e-8
0.241, -3.187e-8
0.240, -3.181e-8
0.239, -3.176e-8
0.238, -3.170e-8
0.237, -3.166e-8
0.236, -3.161e-8
0.235, -3.155e-8
0.234, -3.149e-8
0.233, -3.144e-8
0.232, -3.139e-8
0.231, -3.133e-8
0.230, -3.127e-8
0.229, -3.121e-8
0.228, -3.116e-8
0.227, -3.110e-8
0.226, -3.104e-8
0.225, -3.098e-8
0.224, -3.091e-8
0.223, -3.084e-8
0.222, -3.079e-8
0.221, -3.073e-8
0.220, -3.067e-8
0.219, -3.060e-8
0.218, -3.053e-8
0.217, -3.047e-8
0.216, -3.041e-8
0.215, -3.033e-8
0.214, -3.026e-8
0.213, -3.018e-8
0.212, -3.012e-8
0.211, -3.004e-8
0.210, -2.997e-8
0.209, -2.989e-8
0.208, -2.981e-8
0.207, -2.973e-8
0.206, -2.965e-8
0.205, -2.956e-8
0.204, -2.948e-8
0.203, -2.939e-8
0.202, -2.931e-8
0.201, -2.922e-8
0.200, -2.912e-8
0.199, -2.903e-8
0.198, -2.893e-8
0.197, -2.884e-8
0.196, -2.874e-8
0.195, -2.863e-8
0.194, -2.851e-8
0.193, -2.841e-8
0.192, -2.829e-8
0.191, -2.818e-8
0.190, -2.806e-8
0.189, -2.793e-8
0.188, -2.781e-8
0.187, -2.768e-8
0.186, -2.755e-8
0.185, -2.741e-8
0.184, -2.727e-8
0.183, -2.712e-8
0.182, -2.698e-8
0.181, -2.682e-8
0.180, -2.666e-8
0.179, -2.650e-8
0.178, -2.632e-8
0.177, -2.615e-8
0.176, -2.598e-8
0.175, -2.578e-8
0.174, -2.560e-8
0.173, -2.541e-8
0.172, -2.521e-8
0.171, -2.501e-8
0.170, -2.479e-8
0.169, -2.458e-8
0.168, -2.434e-8
0.167, -2.411e-8
0.166, -2.387e-8
0.165, -2.362e-8
0.164, -2.337e-8
0.163, -2.311e-8
0.162, -2.284e-8
0.161, -2.257e-8
0.160, -2.228e-8
0.159, -2.198e-8
0.158, -2.169e-8
0.157, -2.138e-8
0.156, -2.106e-8
0.155, -2.073e-8
0.154, -2.039e-8
0.153, -2.005e-8
0.152, -1.969e-8
0.151, -1.932e-8
0.150, -1.897e-8
0.149, -1.857e-8
0.148, -1.818e-8
0.147, -1.778e-8
0.146, -1.736e-8
0.145, -1.695e-8
0.144, -1.651e-8
0.143, -1.606e-8
0.142, -1.561e-8
0.141, -1.513e-8
0.140, -1.464e-8
0.139, -1.416e-8
0.138, -1.365e-8
0.137, -1.316e-8
0.136, -1.263e-8
0.135, -1.209e-8
0.134, -1.155e-8
0.133, -1.099e-8
0.132, -1.043e-8
0.131, -9.865e-9
0.130, -9.268e-9
0.129, -8.683e-9
0.128, -8.068e-9
0.127, -7.447e-9
0.126, -6.838e-9
0.125, -6.191e-9
0.124, -5.561e-9
0.123, -4.915e-9
0.122, -4.251e-9
0.121, -3.616e-9
0.120, -2.932e-9
0.119, -2.260e-9
0.118, -1.595e-9
0.117, -8.924e-10
0.116, -2.119e-10
0.115, 4.914e-10
0.114, 1.200e-9
0.113, 1.887e-9
0.112, 2.586e-9
0.111, 3.289e-9
0.110, 3.975e-9
0.109, 4.691e-9
0.108, 5.373e-9
0.107, 6.071e-9
0.106, 6.767e-9
0.105, 7.430e-9
0.104, 8.132e-9
0.103, 8.829e-9
0.102, 9.516e-9
0.101, 1.020e-8
0.100, 1.084e-8
0.099, 1.148e-8
0.098, 1.213e-8
0.097, 1.274e-8
0.096, 1.335e-8
0.095, 1.398e-8
0.094, 1.456e-8
0.093, 1.515e-8
0.092, 1.570e-8
0.091, 1.627e-8
0.090, 1.683e-8
0.089, 1.734e-8
0.088, 1.787e-8
0.087, 1.836e-8
0.086, 1.881e-8
0.085, 1.929e-8
0.084, 1.972e-8
0.083, 2.015e-8
0.082, 2.056e-8
0.081, 2.093e-8
0.080, 2.133e-8
0.079, 2.168e-8
0.078, 2.201e-8
0.077, 2.234e-8
0.076, 2.265e-8
0.075, 2.292e-8
0.074, 2.319e-8
0.073, 2.342e-8
0.072, 2.366e-8
0.071, 2.388e-8
0.070, 2.406e-8
0.069, 2.425e-8
0.068, 2.441e-8
0.067, 2.455e-8
0.066, 2.469e-8
0.065, 2.481e-8
0.064, 2.492e-8
0.063, 2.501e-8
0.062, 2.506e-8
0.061, 2.513e-8
0.060, 2.516e-8
0.059, 2.520e-8
0.058, 2.524e-8
0.057, 2.521e-8
0.056, 2.522e-8
0.055, 2.521e-8
0.054, 2.518e-8
0.053, 2.515e-8
0.052, 2.510e-8
0.051, 2.505e-8
0.050, 2.500e-8
0.049, 2.491e-8
0.048, 2.484e-8
0.047, 2.475e-8
0.046, 2.465e-8
0.045, 2.456e-8
0.044, 2.445e-8
0.043, 2.434e-8
0.042, 2.422e-8
0.041, 2.408e-8
0.040, 2.397e-8
0.039, 2.385e-8
0.038, 2.371e-8
0.037, 2.357e-8
0.036, 2.343e-8
0.035, 2.329e-8
0.034, 2.315e-8
0.033, 2.300e-8
0.032, 2.285e-8
0.031, 2.270e-8
0.030, 2.254e-8
0.029, 2.239e-8
0.028, 2.223e-8
0.027, 2.208e-8
0.026, 2.193e-8
0.025, 2.178e-8
0.024, 2.162e-8
0.023, 2.146e-8
0.022, 2.130e-8
0.021, 2.114e-8
0.020, 2.099e-8
0.019, 2.083e-8
0.018, 2.068e-8
0.017, 2.052e-8
0.016, 2.036e-8
0.015, 2.021e-8
0.014, 2.006e-8
0.013, 1.992e-8
0.012, 1.976e-8
0.011, 1.961e-8
0.010, 1.947e-8
0.009, 1.932e-8
0.008, 1.918e-8
0.007, 1.904e-8
0.006, 1.889e-8
0.005, 1.876e-8
0.004, 1.862e-8
0.003, 1.848e-8
0.002, 1.834e-8
0.001, 1.821e-8
0.000, 1.811e-8
-0.001, 1.798e-8
-0.002, 1.784e-8
-0.003, 1.771e-8
-0.004, 1.758e-8
-0.005, 1.746e-8
-0.006, 1.734e-8
-0.007, 1.721e-8
-0.008, 1.709e-8
-0.009, 1.698e-8
-0.010, 1.687e-8
-0.011, 1.676e-8
-0.012, 1.665e-8
-0.013, 1.654e-8
-0.014, 1.643e-8
-0.015, 1.632e-8
-0.016, 1.622e-8
-0.017, 1.612e-8
-0.018, 1.601e-8
-0.019, 1.592e-8
-0.020, 1.582e-8
-0.021, 1.573e-8
-0.022, 1.564e-8
-0.023, 1.554e-8
-0.024, 1.545e-8
-0.025, 1.537e-8
-0.026, 1.528e-8
-0.027, 1.520e-8
-0.028, 1.511e-8
-0.029, 1.503e-8
-0.030, 1.495e-8
-0.031, 1.487e-8
-0.032, 1.479e-8
-0.033, 1.472e-8
-0.034, 1.464e-8
-0.035, 1.458e-8
-0.036, 1.451e-8
-0.037, 1.444e-8
-0.038, 1.437e-8
-0.039, 1.430e-8
-0.040, 1.424e-8
-0.041, 1.418e-8
-0.042, 1.411e-8
-0.043, 1.405e-8
-0.044, 1.399e-8
-0.045, 1.393e-8
-0.046, 1.388e-8
-0.047, 1.382e-8
-0.048, 1.376e-8
-0.049, 1.371e-8
-0.050, 1.366e-8
-0.051, 1.361e-8
-0.052, 1.356e-8
-0.053, 1.351e-8
-0.054, 1.347e-8
-0.055, 1.342e-8
-0.056, 1.338e-8
-0.057, 1.333e-8
-0.058, 1.329e-8
-0.059, 1.325e-8
-0.060, 1.322e-8
-0.061, 1.318e-8
-0.062, 1.314e-8
-0.063, 1.310e-8
-0.064, 1.307e-8
-0.065, 1.304e-8
-0.066, 1.301e-8
-0.067, 1.298e-8
-0.068, 1.294e-8
-0.069, 1.292e-8
-0.070, 1.289e-8
-0.071, 1.286e-8
-0.072, 1.284e-8
-0.073, 1.281e-8
-0.074, 1.278e-8
-0.075, 1.277e-8
-0.076, 1.275e-8
-0.077, 1.273e-8
-0.078, 1.271e-8
-0.079, 1.268e-8
-0.080, 1.267e-8
-0.081, 1.266e-8
-0.082, 1.264e-8
-0.083, 1.262e-8
-0.084, 1.261e-8
-0.085, 1.260e-8
-0.086, 1.259e-8
-0.087, 1.258e-8
-0.088, 1.257e-8
-0.089, 1.257e-8
-0.090, 1.256e-8
-0.091, 1.256e-8
-0.092, 1.255e-8
-0.093, 1.254e-8
-0.094, 1.254e-8
-0.095, 1.254e-8
-0.096, 1.254e-8
-0.097, 1.254e-8
-0.098, 1.254e-8
-0.099, 1.254e-8
-0.100, 1.255e-8
-0.101, 1.256e-8
-0.102, 1.256e-8
-0.103, 1.257e-8
-0.104, 1.257e-8
-0.105, 1.258e-8
-0.106, 1.259e-8
-0.107, 1.260e-8
-0.108, 1.261e-8
-0.109, 1.262e-8
-0.110, 1.263e-8
-0.111, 1.265e-8
-0.112, 1.266e-8
-0.113, 1.268e-8
-0.114, 1.269e-8
-0.115, 1.272e-8
-0.116, 1.274e-8
-0.117, 1.275e-8
-0.118, 1.277e-8
-0.119, 1.279e-8
-0.120, 1.282e-8
-0.121, 1.284e-8
-0.122, 1.286e-8
-0.123, 1.288e-8
-0.124, 1.291e-8
-0.125, 1.294e-8
-0.126, 1.297e-8
-0.127, 1.300e-8
-0.128, 1.303e-8
-0.129, 1.306e-8
-0.130, 1.309e-8
-0.131, 1.313e-8
-0.132, 1.316e-8
-0.133, 1.319e-8
-0.134, 1.323e-8
-0.135, 1.327e-8
-0.136, 1.330e-8
-0.137, 1.334e-8
-0.138, 1.338e-8
-0.139, 1.342e-8
-0.140, 1.346e-8
-0.141, 1.351e-8
-0.142, 1.355e-8
-0.143, 1.359e-8
-0.144, 1.364e-8
-0.145, 1.369e-8
-0.146, 1.374e-8
-0.147, 1.378e-8
-0.148, 1.383e-8
-0.149, 1.388e-8
-0.150, 1.394e-8
-0.151, 1.399e-8
-0.152, 1.404e-8
-0.153, 1.410e-8
-0.154, 1.416e-8
-0.155, 1.422e-8
-0.156, 1.428e-8
-0.157, 1.433e-8
-0.158, 1.439e-8
-0.159, 1.445e-8
-0.160, 1.452e-8
-0.161, 1.458e-8
-0.162, 1.464e-8
-0.163, 1.470e-8
-0.164, 1.477e-8
-0.165, 1.484e-8
-0.166, 1.491e-8
-0.167, 1.498e-8
-0.168, 1.505e-8
-0.169, 1.513e-8
-0.170, 1.520e-8
-0.171, 1.527e-8
-0.172, 1.535e-8
-0.173, 1.542e-8
-0.174, 1.550e-8
-0.175, 1.558e-8
-0.176, 1.566e-8
-0.177, 1.574e-8
-0.178, 1.582e-8
-0.179, 1.591e-8
-0.180, 1.600e-8
-0.181, 1.608e-8
-0.182, 1.617e-8
-0.183, 1.625e-8
-0.184, 1.635e-8
-0.185, 1.645e-8
-0.186, 1.654e-8
-0.187, 1.663e-8
-0.188, 1.672e-8
-0.189, 1.682e-8
-0.190, 1.692e-8
-0.191, 1.701e-8
-0.192, 1.711e-8
-0.193, 1.721e-8
-0.194, 1.731e-8
-0.195, 1.742e-8
-0.196, 1.753e-8
-0.197, 1.763e-8
-0.198, 1.774e-8
-0.199, 1.785e-8
