Mar. 16, 2023   10:15:01
Cyclic Voltammetry
File: c:/users/oliverrz/desktop/electrolab/data/2023_03_16\fcmeoh_macros_1_mm\electrode6_cv_150mvs_1_mm.bin
Data Source:  Experiment
Instrument Model:  CHI760E
Header: CV
Note: 

Init E (V) = -0.2
High E (V) = 0.3
Low E (V) = -0.2
Final E (V) = -0.2
Init P/N = P
Scan Rate (V/s) = 0.15
Segment = 3
Sample Interval (V) = 0.001
Quiet Time (sec) = 2
Sensitivity (A/V) = 1e-7

Results:

Channel 1:
Segment 1:
Ep = 0.122V
ip = -8.061e-8A
Ah = -3.305e-8C

Segment 2:
Ep = 0.060V
ip = 7.625e-8A
Ah = 3.147e-8C

Segment 3:

Potential/V, Current/A

-0.200, 1.271e-8
-0.199, 1.179e-8
-0.198, 1.148e-8
-0.197, 1.137e-8
-0.196, 1.109e-8
-0.195, 1.099e-8
-0.194, 1.081e-8
-0.193, 1.059e-8
-0.192, 1.054e-8
-0.191, 1.029e-8
-0.190, 1.021e-8
-0.189, 1.007e-8
-0.188, 9.863e-9
-0.187, 9.827e-9
-0.186, 9.603e-9
-0.185, 9.526e-9
-0.184, 9.388e-9
-0.183, 9.216e-9
-0.182, 9.163e-9
-0.181, 8.959e-9
-0.180, 8.882e-9
-0.179, 8.754e-9
-0.178, 8.584e-9
-0.177, 8.540e-9
-0.176, 8.347e-9
-0.175, 8.297e-9
-0.174, 8.150e-9
-0.173, 8.009e-9
-0.172, 7.978e-9
-0.171, 7.762e-9
-0.170, 7.738e-9
-0.169, 7.589e-9
-0.168, 7.461e-9
-0.167, 7.446e-9
-0.166, 7.220e-9
-0.165, 7.206e-9
-0.164, 7.088e-9
-0.163, 6.930e-9
-0.162, 6.929e-9
-0.161, 6.720e-9
-0.160, 6.719e-9
-0.159, 6.588e-9
-0.158, 6.441e-9
-0.157, 6.456e-9
-0.156, 6.247e-9
-0.155, 6.238e-9
-0.154, 6.124e-9
-0.153, 5.972e-9
-0.152, 5.993e-9
-0.151, 5.804e-9
-0.150, 5.787e-9
-0.149, 5.687e-9
-0.148, 5.546e-9
-0.147, 5.559e-9
-0.146, 5.377e-9
-0.145, 5.364e-9
-0.144, 5.275e-9
-0.143, 5.144e-9
-0.142, 5.145e-9
-0.141, 4.972e-9
-0.140, 4.974e-9
-0.139, 4.871e-9
-0.138, 4.760e-9
-0.137, 4.758e-9
-0.136, 4.598e-9
-0.135, 4.602e-9
-0.134, 4.489e-9
-0.133, 4.394e-9
-0.132, 4.399e-9
-0.131, 4.239e-9
-0.130, 4.253e-9
-0.129, 4.135e-9
-0.128, 4.041e-9
-0.127, 4.071e-9
-0.126, 3.878e-9
-0.125, 3.917e-9
-0.124, 3.826e-9
-0.123, 3.698e-9
-0.122, 3.748e-9
-0.121, 3.559e-9
-0.120, 3.593e-9
-0.119, 3.509e-9
-0.118, 3.388e-9
-0.117, 3.435e-9
-0.116, 3.257e-9
-0.115, 3.289e-9
-0.114, 3.207e-9
-0.113, 3.087e-9
-0.112, 3.139e-9
-0.111, 2.973e-9
-0.110, 2.987e-9
-0.109, 2.935e-9
-0.108, 2.807e-9
-0.107, 2.851e-9
-0.106, 2.707e-9
-0.105, 2.698e-9
-0.104, 2.650e-9
-0.103, 2.538e-9
-0.102, 2.571e-9
-0.101, 2.426e-9
-0.100, 2.456e-9
-0.099, 2.370e-9
-0.098, 2.289e-9
-0.097, 2.325e-9
-0.096, 2.176e-9
-0.095, 2.211e-9
-0.094, 2.125e-9
-0.093, 2.039e-9
-0.092, 2.069e-9
-0.091, 1.938e-9
-0.090, 1.957e-9
-0.089, 1.864e-9
-0.088, 1.800e-9
-0.087, 1.833e-9
-0.086, 1.674e-9
-0.085, 1.729e-9
-0.084, 1.632e-9
-0.083, 1.554e-9
-0.082, 1.606e-9
-0.081, 1.433e-9
-0.080, 1.481e-9
-0.079, 1.417e-9
-0.078, 1.307e-9
-0.077, 1.356e-9
-0.076, 1.216e-9
-0.075, 1.238e-9
-0.074, 1.175e-9
-0.073, 1.076e-9
-0.072, 1.129e-9
-0.071, 9.841e-10
-0.070, 9.976e-10
-0.069, 9.469e-10
-0.068, 8.365e-10
-0.067, 8.962e-10
-0.066, 7.333e-10
-0.065, 7.574e-10
-0.064, 7.006e-10
-0.063, 5.911e-10
-0.062, 6.317e-10
-0.061, 4.965e-10
-0.060, 5.064e-10
-0.059, 4.323e-10
-0.058, 3.515e-10
-0.057, 3.651e-10
-0.056, 2.341e-10
-0.055, 2.651e-10
-0.054, 1.568e-10
-0.053, 7.969e-11
-0.052, 1.149e-10
-0.051, -5.372e-11
-0.050, -2.475e-11
-0.049, -1.081e-10
-0.048, -1.989e-10
-0.047, -1.790e-10
-0.046, -3.318e-10
-0.045, -3.146e-10
-0.044, -4.229e-10
-0.043, -5.052e-10
-0.042, -4.877e-10
-0.041, -6.675e-10
-0.040, -6.313e-10
-0.039, -7.400e-10
-0.038, -8.748e-10
-0.037, -8.194e-10
-0.036, -1.019e-9
-0.035, -1.011e-9
-0.034, -1.093e-9
-0.033, -1.252e-9
-0.032, -1.209e-9
-0.031, -1.398e-9
-0.030, -1.418e-9
-0.029, -1.518e-9
-0.028, -1.654e-9
-0.027, -1.668e-9
-0.026, -1.855e-9
-0.025, -1.881e-9
-0.024, -1.999e-9
-0.023, -2.151e-9
-0.022, -2.168e-9
-0.021, -2.365e-9
-0.020, -2.412e-9
-0.019, -2.536e-9
-0.018, -2.702e-9
-0.017, -2.754e-9
-0.016, -2.948e-9
-0.015, -3.017e-9
-0.014, -3.193e-9
-0.013, -3.361e-9
-0.012, -3.423e-9
-0.011, -3.648e-9
-0.010, -3.719e-9
-0.009, -3.925e-9
-0.008, -4.111e-9
-0.007, -4.179e-9
-0.006, -4.481e-9
-0.005, -4.561e-9
-0.004, -4.767e-9
-0.003, -5.009e-9
-0.002, -5.107e-9
-0.001, -5.419e-9
-0.000, -5.663e-9
0.001, -5.818e-9
0.002, -6.083e-9
0.003, -6.203e-9
0.004, -6.559e-9
0.005, -6.705e-9
0.006, -6.987e-9
0.007, -7.328e-9
0.008, -7.480e-9
0.009, -7.856e-9
0.010, -8.099e-9
0.011, -8.388e-9
0.012, -8.762e-9
0.013, -9.000e-9
0.014, -9.400e-9
0.015, -9.693e-9
0.016, -1.004e-8
0.017, -1.045e-8
0.018, -1.076e-8
0.019, -1.120e-8
0.020, -1.154e-8
0.021, -1.198e-8
0.022, -1.243e-8
0.023, -1.281e-8
0.024, -1.331e-8
0.025, -1.373e-8
0.026, -1.425e-8
0.027, -1.476e-8
0.028, -1.521e-8
0.029, -1.579e-8
0.030, -1.627e-8
0.031, -1.688e-8
0.032, -1.742e-8
0.033, -1.796e-8
0.034, -1.866e-8
0.035, -1.917e-8
0.036, -1.988e-8
0.037, -2.054e-8
0.038, -2.112e-8
0.039, -2.191e-8
0.040, -2.253e-8
0.041, -2.328e-8
0.042, -2.409e-8
0.043, -2.474e-8
0.044, -2.561e-8
0.045, -2.633e-8
0.046, -2.718e-8
0.047, -2.804e-8
0.048, -2.880e-8
0.049, -2.975e-8
0.050, -3.059e-8
0.051, -3.153e-8
0.052, -3.250e-8
0.053, -3.336e-8
0.054, -3.437e-8
0.055, -3.533e-8
0.056, -3.626e-8
0.057, -3.732e-8
0.058, -3.832e-8
0.059, -3.937e-8
0.060, -4.041e-8
0.061, -4.146e-8
0.062, -4.254e-8
0.063, -4.363e-8
0.064, -4.475e-8
0.065, -4.582e-8
0.066, -4.698e-8
0.067, -4.809e-8
0.068, -4.919e-8
0.069, -5.035e-8
0.070, -5.146e-8
0.071, -5.269e-8
0.072, -5.377e-8
0.073, -5.491e-8
0.074, -5.611e-8
0.075, -5.719e-8
0.076, -5.844e-8
0.077, -5.959e-8
0.078, -6.065e-8
0.079, -6.186e-8
0.080, -6.288e-8
0.081, -6.410e-8
0.082, -6.517e-8
0.083, -6.617e-8
0.084, -6.732e-8
0.085, -6.833e-8
0.086, -6.939e-8
0.087, -7.050e-8
0.088, -7.141e-8
0.089, -7.243e-8
0.090, -7.343e-8
0.091, -7.434e-8
0.092, -7.530e-8
0.093, -7.612e-8
0.094, -7.703e-8
0.095, -7.786e-8
0.096, -7.862e-8
0.097, -7.949e-8
0.098, -8.021e-8
0.099, -8.091e-8
0.100, -8.165e-8
0.101, -8.230e-8
0.102, -8.293e-8
0.103, -8.356e-8
0.104, -8.406e-8
0.105, -8.460e-8
0.106, -8.515e-8
0.107, -8.555e-8
0.108, -8.601e-8
0.109, -8.639e-8
0.110, -8.675e-8
0.111, -8.716e-8
0.112, -8.737e-8
0.113, -8.765e-8
0.114, -8.793e-8
0.115, -8.813e-8
0.116, -8.833e-8
0.117, -8.847e-8
0.118, -8.856e-8
0.119, -8.870e-8
0.120, -8.868e-8
0.121, -8.879e-8
0.122, -8.881e-8
0.123, -8.872e-8
0.124, -8.878e-8
0.125, -8.862e-8
0.126, -8.857e-8
0.127, -8.854e-8
0.128, -8.834e-8
0.129, -8.823e-8
0.130, -8.805e-8
0.131, -8.786e-8
0.132, -8.770e-8
0.133, -8.742e-8
0.134, -8.724e-8
0.135, -8.697e-8
0.136, -8.671e-8
0.137, -8.646e-8
0.138, -8.612e-8
0.139, -8.587e-8
0.140, -8.554e-8
0.141, -8.523e-8
0.142, -8.493e-8
0.143, -8.456e-8
0.144, -8.424e-8
0.145, -8.385e-8
0.146, -8.355e-8
0.147, -8.318e-8
0.148, -8.277e-8
0.149, -8.247e-8
0.150, -8.203e-8
0.151, -8.170e-8
0.152, -8.133e-8
0.153, -8.089e-8
0.154, -8.060e-8
0.155, -8.012e-8
0.156, -7.978e-8
0.157, -7.943e-8
0.158, -7.894e-8
0.159, -7.866e-8
0.160, -7.817e-8
0.161, -7.782e-8
0.162, -7.749e-8
0.163, -7.700e-8
0.164, -7.672e-8
0.165, -7.625e-8
0.166, -7.591e-8
0.167, -7.560e-8
0.168, -7.510e-8
0.169, -7.481e-8
0.170, -7.441e-8
0.171, -7.403e-8
0.172, -7.372e-8
0.173, -7.328e-8
0.174, -7.299e-8
0.175, -7.258e-8
0.176, -7.224e-8
0.177, -7.193e-8
0.178, -7.152e-8
0.179, -7.126e-8
0.180, -7.085e-8
0.181, -7.055e-8
0.182, -7.024e-8
0.183, -6.984e-8
0.184, -6.959e-8
0.185, -6.921e-8
0.186, -6.892e-8
0.187, -6.863e-8
0.188, -6.826e-8
0.189, -6.804e-8
0.190, -6.766e-8
0.191, -6.741e-8
0.192, -6.714e-8
0.193, -6.676e-8
0.194, -6.659e-8
0.195, -6.622e-8
0.196, -6.598e-8
0.197, -6.574e-8
0.198, -6.538e-8
0.199, -6.523e-8
0.200, -6.488e-8
0.201, -6.464e-8
0.202, -6.444e-8
0.203, -6.409e-8
0.204, -6.395e-8
0.205, -6.363e-8
0.206, -6.341e-8
0.207, -6.323e-8
0.208, -6.287e-8
0.209, -6.276e-8
0.210, -6.246e-8
0.211, -6.223e-8
0.212, -6.207e-8
0.213, -6.177e-8
0.214, -6.164e-8
0.215, -6.137e-8
0.216, -6.118e-8
0.217, -6.101e-8
0.218, -6.074e-8
0.219, -6.061e-8
0.220, -6.036e-8
0.221, -6.018e-8
0.222, -6.004e-8
0.223, -5.977e-8
0.224, -5.966e-8
0.225, -5.941e-8
0.226, -5.927e-8
0.227, -5.912e-8
0.228, -5.887e-8
0.229, -5.879e-8
0.230, -5.855e-8
0.231, -5.841e-8
0.232, -5.828e-8
0.233, -5.802e-8
0.234, -5.798e-8
0.235, -5.774e-8
0.236, -5.760e-8
0.237, -5.750e-8
0.238, -5.724e-8
0.239, -5.722e-8
0.240, -5.696e-8
0.241, -5.686e-8
0.242, -5.677e-8
0.243, -5.652e-8
0.244, -5.650e-8
0.245, -5.628e-8
0.246, -5.616e-8
0.247, -5.610e-8
0.248, -5.585e-8
0.249, -5.582e-8
0.250, -5.564e-8
0.251, -5.551e-8
0.252, -5.545e-8
0.253, -5.523e-8
0.254, -5.520e-8
0.255, -5.502e-8
0.256, -5.492e-8
0.257, -5.485e-8
0.258, -5.465e-8
0.259, -5.463e-8
0.260, -5.445e-8
0.261, -5.436e-8
0.262, -5.429e-8
0.263, -5.411e-8
0.264, -5.409e-8
0.265, -5.391e-8
0.266, -5.384e-8
0.267, -5.378e-8
0.268, -5.361e-8
0.269, -5.360e-8
0.270, -5.341e-8
0.271, -5.337e-8
0.272, -5.330e-8
0.273, -5.312e-8
0.274, -5.315e-8
0.275, -5.296e-8
0.276, -5.291e-8
0.277, -5.287e-8
0.278, -5.268e-8
0.279, -5.272e-8
0.280, -5.254e-8
0.281, -5.249e-8
0.282, -5.247e-8
0.283, -5.228e-8
0.284, -5.231e-8
0.285, -5.214e-8
0.286, -5.209e-8
0.287, -5.208e-8
0.288, -5.190e-8
0.289, -5.192e-8
0.290, -5.179e-8
0.291, -5.173e-8
0.292, -5.172e-8
0.293, -5.156e-8
0.294, -5.158e-8
0.295, -5.146e-8
0.296, -5.139e-8
0.297, -5.138e-8
0.298, -5.123e-8
0.299, -5.125e-8
0.300, -4.839e-8
0.299, -4.668e-8
0.298, -4.631e-8
0.297, -4.591e-8
0.296, -4.577e-8
0.295, -4.545e-8
0.294, -4.526e-8
0.293, -4.514e-8
0.292, -4.484e-8
0.291, -4.480e-8
0.290, -4.456e-8
0.289, -4.440e-8
0.288, -4.432e-8
0.287, -4.407e-8
0.286, -4.403e-8
0.285, -4.383e-8
0.284, -4.371e-8
0.283, -4.365e-8
0.282, -4.341e-8
0.281, -4.338e-8
0.280, -4.321e-8
0.279, -4.310e-8
0.278, -4.303e-8
0.277, -4.283e-8
0.276, -4.281e-8
0.275, -4.265e-8
0.274, -4.255e-8
0.273, -4.248e-8
0.272, -4.230e-8
0.271, -4.229e-8
0.270, -4.211e-8
0.269, -4.204e-8
0.268, -4.196e-8
0.267, -4.180e-8
0.266, -4.181e-8
0.265, -4.162e-8
0.264, -4.155e-8
0.263, -4.151e-8
0.262, -4.131e-8
0.261, -4.133e-8
0.260, -4.115e-8
0.259, -4.111e-8
0.258, -4.105e-8
0.257, -4.086e-8
0.256, -4.088e-8
0.255, -4.071e-8
0.254, -4.066e-8
0.253, -4.062e-8
0.252, -4.041e-8
0.251, -4.046e-8
0.250, -4.029e-8
0.249, -4.021e-8
0.248, -4.019e-8
0.247, -4.001e-8
0.246, -4.001e-8
0.245, -3.987e-8
0.244, -3.978e-8
0.243, -3.976e-8
0.242, -3.958e-8
0.241, -3.958e-8
0.240, -3.944e-8
0.239, -3.937e-8
0.238, -3.932e-8
0.237, -3.915e-8
0.236, -3.914e-8
0.235, -3.900e-8
0.234, -3.892e-8
0.233, -3.888e-8
0.232, -3.869e-8
0.231, -3.869e-8
0.230, -3.853e-8
0.229, -3.847e-8
0.228, -3.840e-8
0.227, -3.825e-8
0.226, -3.825e-8
0.225, -3.806e-8
0.224, -3.801e-8
0.223, -3.794e-8
0.222, -3.774e-8
0.221, -3.776e-8
0.220, -3.756e-8
0.219, -3.749e-8
0.218, -3.745e-8
0.217, -3.722e-8
0.216, -3.723e-8
0.215, -3.704e-8
0.214, -3.695e-8
0.213, -3.689e-8
0.212, -3.666e-8
0.211, -3.667e-8
0.210, -3.646e-8
0.209, -3.636e-8
0.208, -3.629e-8
0.207, -3.607e-8
0.206, -3.604e-8
0.205, -3.583e-8
0.204, -3.569e-8
0.203, -3.564e-8
0.202, -3.540e-8
0.201, -3.533e-8
0.200, -3.513e-8
0.199, -3.499e-8
0.198, -3.489e-8
0.197, -3.464e-8
0.196, -3.457e-8
0.195, -3.434e-8
0.194, -3.419e-8
0.193, -3.403e-8
0.192, -3.377e-8
0.191, -3.369e-8
0.190, -3.342e-8
0.189, -3.326e-8
0.188, -3.308e-8
0.187, -3.281e-8
0.186, -3.269e-8
0.185, -3.239e-8
0.184, -3.220e-8
0.183, -3.200e-8
0.182, -3.168e-8
0.181, -3.153e-8
0.180, -3.118e-8
0.179, -3.096e-8
0.178, -3.073e-8
0.177, -3.035e-8
0.176, -3.019e-8
0.175, -2.980e-8
0.174, -2.952e-8
0.173, -2.927e-8
0.172, -2.883e-8
0.171, -2.863e-8
0.170, -2.823e-8
0.169, -2.787e-8
0.168, -2.759e-8
0.167, -2.711e-8
0.166, -2.680e-8
0.165, -2.637e-8
0.164, -2.596e-8
0.163, -2.562e-8
0.162, -2.509e-8
0.161, -2.473e-8
0.160, -2.423e-8
0.159, -2.378e-8
0.158, -2.333e-8
0.157, -2.275e-8
0.156, -2.232e-8
0.155, -2.173e-8
0.154, -2.122e-8
0.153, -2.068e-8
0.152, -2.007e-8
0.151, -1.955e-8
0.150, -1.891e-8
0.149, -1.830e-8
0.148, -1.768e-8
0.147, -1.701e-8
0.146, -1.640e-8
0.145, -1.563e-8
0.144, -1.501e-8
0.143, -1.427e-8
0.142, -1.348e-8
0.141, -1.279e-8
0.140, -1.193e-8
0.139, -1.122e-8
0.138, -1.047e-8
0.137, -9.534e-9
0.136, -8.785e-9
0.135, -7.850e-9
0.134, -7.024e-9
0.133, -6.130e-9
0.132, -5.131e-9
0.131, -4.332e-9
0.130, -3.303e-9
0.129, -2.350e-9
0.128, -1.419e-9
0.127, -3.200e-10
0.126, 5.903e-10
0.125, 1.656e-9
0.124, 2.735e-9
0.123, 3.708e-9
0.122, 4.830e-9
0.121, 5.884e-9
0.120, 6.982e-9
0.119, 8.076e-9
0.118, 9.154e-9
0.117, 1.032e-8
0.116, 1.146e-8
0.115, 1.258e-8
0.114, 1.369e-8
0.113, 1.486e-8
0.112, 1.599e-8
0.111, 1.714e-8
0.110, 1.832e-8
0.109, 1.944e-8
0.108, 2.062e-8
0.107, 2.173e-8
0.106, 2.286e-8
0.105, 2.407e-8
0.104, 2.515e-8
0.103, 2.633e-8
0.102, 2.746e-8
0.101, 2.850e-8
0.100, 2.968e-8
0.099, 3.064e-8
0.098, 3.173e-8
0.097, 3.281e-8
0.096, 3.377e-8
0.095, 3.485e-8
0.094, 3.578e-8
0.093, 3.673e-8
0.092, 3.776e-8
0.091, 3.857e-8
0.090, 3.954e-8
0.089, 4.042e-8
0.088, 4.118e-8
0.087, 4.211e-8
0.086, 4.280e-8
0.085, 4.361e-8
0.084, 4.435e-8
0.083, 4.493e-8
0.082, 4.569e-8
0.081, 4.629e-8
0.080, 4.691e-8
0.079, 4.749e-8
0.078, 4.803e-8
0.077, 4.858e-8
0.076, 4.907e-8
0.075, 4.943e-8
0.074, 4.987e-8
0.073, 5.026e-8
0.072, 5.061e-8
0.071, 5.091e-8
0.070, 5.122e-8
0.069, 5.144e-8
0.068, 5.173e-8
0.067, 5.188e-8
0.066, 5.203e-8
0.065, 5.222e-8
0.064, 5.230e-8
0.063, 5.240e-8
0.062, 5.250e-8
0.061, 5.247e-8
0.060, 5.256e-8
0.059, 5.247e-8
0.058, 5.243e-8
0.057, 5.247e-8
0.056, 5.227e-8
0.055, 5.230e-8
0.054, 5.212e-8
0.053, 5.196e-8
0.052, 5.191e-8
0.051, 5.165e-8
0.050, 5.153e-8
0.049, 5.130e-8
0.048, 5.104e-8
0.047, 5.090e-8
0.046, 5.060e-8
0.045, 5.037e-8
0.044, 5.012e-8
0.043, 4.979e-8
0.042, 4.958e-8
0.041, 4.926e-8
0.040, 4.899e-8
0.039, 4.867e-8
0.038, 4.832e-8
0.037, 4.808e-8
0.036, 4.769e-8
0.035, 4.739e-8
0.034, 4.704e-8
0.033, 4.670e-8
0.032, 4.640e-8
0.031, 4.601e-8
0.030, 4.572e-8
0.029, 4.534e-8
0.028, 4.499e-8
0.027, 4.468e-8
0.026, 4.429e-8
0.025, 4.401e-8
0.024, 4.360e-8
0.023, 4.325e-8
0.022, 4.297e-8
0.021, 4.252e-8
0.020, 4.226e-8
0.019, 4.186e-8
0.018, 4.149e-8
0.017, 4.126e-8
0.016, 4.079e-8
0.015, 4.055e-8
0.014, 4.018e-8
0.013, 3.980e-8
0.012, 3.958e-8
0.011, 3.913e-8
0.010, 3.888e-8
0.009, 3.855e-8
0.008, 3.817e-8
0.007, 3.796e-8
0.006, 3.755e-8
0.005, 3.731e-8
0.004, 3.701e-8
0.003, 3.663e-8
0.002, 3.643e-8
0.001, 3.606e-8
0.000, 3.593e-8
-0.001, 3.555e-8
-0.002, 3.522e-8
-0.003, 3.502e-8
-0.004, 3.467e-8
-0.005, 3.444e-8
-0.006, 3.416e-8
-0.007, 3.387e-8
-0.008, 3.368e-8
-0.009, 3.335e-8
-0.010, 3.317e-8
-0.011, 3.288e-8
-0.012, 3.262e-8
-0.013, 3.244e-8
-0.014, 3.211e-8
-0.015, 3.196e-8
-0.016, 3.169e-8
-0.017, 3.142e-8
-0.018, 3.130e-8
-0.019, 3.097e-8
-0.020, 3.085e-8
-0.021, 3.061e-8
-0.022, 3.035e-8
-0.023, 3.026e-8
-0.024, 2.994e-8
-0.025, 2.982e-8
-0.026, 2.962e-8
-0.027, 2.937e-8
-0.028, 2.929e-8
-0.029, 2.899e-8
-0.030, 2.889e-8
-0.031, 2.870e-8
-0.032, 2.846e-8
-0.033, 2.840e-8
-0.034, 2.813e-8
-0.035, 2.803e-8
-0.036, 2.787e-8
-0.037, 2.764e-8
-0.038, 2.758e-8
-0.039, 2.736e-8
-0.040, 2.725e-8
-0.041, 2.708e-8
-0.042, 2.690e-8
-0.043, 2.685e-8
-0.044, 2.662e-8
-0.045, 2.654e-8
-0.046, 2.640e-8
-0.047, 2.623e-8
-0.048, 2.618e-8
-0.049, 2.596e-8
-0.050, 2.591e-8
-0.051, 2.577e-8
-0.052, 2.561e-8
-0.053, 2.557e-8
-0.054, 2.536e-8
-0.055, 2.534e-8
-0.056, 2.519e-8
-0.057, 2.504e-8
-0.058, 2.504e-8
-0.059, 2.483e-8
-0.060, 2.481e-8
-0.061, 2.468e-8
-0.062, 2.454e-8
-0.063, 2.456e-8
-0.064, 2.435e-8
-0.065, 2.434e-8
-0.066, 2.423e-8
-0.067, 2.408e-8
-0.068, 2.411e-8
-0.069, 2.392e-8
-0.070, 2.391e-8
-0.071, 2.383e-8
-0.072, 2.369e-8
-0.073, 2.371e-8
-0.074, 2.355e-8
-0.075, 2.354e-8
-0.076, 2.347e-8
-0.077, 2.334e-8
-0.078, 2.337e-8
-0.079, 2.322e-8
-0.080, 2.322e-8
-0.081, 2.315e-8
-0.082, 2.304e-8
-0.083, 2.307e-8
-0.084, 2.295e-8
-0.085, 2.292e-8
-0.086, 2.287e-8
-0.087, 2.279e-8
-0.088, 2.282e-8
-0.089, 2.268e-8
-0.090, 2.272e-8
-0.091, 2.264e-8
-0.092, 2.257e-8
-0.093, 2.261e-8
-0.094, 2.246e-8
-0.095, 2.252e-8
-0.096, 2.246e-8
-0.097, 2.238e-8
-0.098, 2.244e-8
-0.099, 2.232e-8
-0.100, 2.237e-8
-0.101, 2.231e-8
-0.102, 2.225e-8
-0.103, 2.233e-8
-0.104, 2.219e-8
-0.105, 2.225e-8
-0.106, 2.221e-8
-0.107, 2.213e-8
-0.108, 2.224e-8
-0.109, 2.209e-8
-0.110, 2.216e-8
-0.111, 2.215e-8
-0.112, 2.206e-8
-0.113, 2.217e-8
-0.114, 2.206e-8
-0.115, 2.212e-8
-0.116, 2.211e-8
-0.117, 2.204e-8
-0.118, 2.214e-8
-0.119, 2.205e-8
-0.120, 2.212e-8
-0.121, 2.210e-8
-0.122, 2.205e-8
-0.123, 2.215e-8
-0.124, 2.208e-8
-0.125, 2.213e-8
-0.126, 2.214e-8
-0.127, 2.210e-8
-0.128, 2.221e-8
-0.129, 2.213e-8
-0.130, 2.221e-8
-0.131, 2.221e-8
-0.132, 2.219e-8
-0.133, 2.228e-8
-0.134, 2.220e-8
-0.135, 2.233e-8
-0.136, 2.230e-8
-0.137, 2.229e-8
-0.138, 2.242e-8
-0.139, 2.233e-8
-0.140, 2.246e-8
-0.141, 2.246e-8
-0.142, 2.243e-8
-0.143, 2.258e-8
-0.144, 2.251e-8
-0.145, 2.261e-8
-0.146, 2.264e-8
-0.147, 2.261e-8
-0.148, 2.278e-8
-0.149, 2.270e-8
-0.150, 2.282e-8
-0.151, 2.285e-8
-0.152, 2.284e-8
-0.153, 2.301e-8
-0.154, 2.294e-8
-0.155, 2.305e-8
-0.156, 2.312e-8
-0.157, 2.308e-8
-0.158, 2.325e-8
-0.159, 2.323e-8
-0.160, 2.332e-8
-0.161, 2.338e-8
-0.162, 2.340e-8
-0.163, 2.353e-8
-0.164, 2.354e-8
-0.165, 2.364e-8
-0.166, 2.370e-8
-0.167, 2.372e-8
-0.168, 2.389e-8
-0.169, 2.386e-8
-0.170, 2.400e-8
-0.171, 2.406e-8
-0.172, 2.409e-8
-0.173, 2.424e-8
-0.174, 2.425e-8
-0.175, 2.440e-8
-0.176, 2.445e-8
-0.177, 2.449e-8
-0.178, 2.468e-8
-0.179, 2.466e-8
-0.180, 2.484e-8
-0.181, 2.489e-8
-0.182, 2.492e-8
-0.183, 2.514e-8
-0.184, 2.511e-8
-0.185, 2.528e-8
-0.186, 2.537e-8
-0.187, 2.540e-8
-0.188, 2.562e-8
-0.189, 2.561e-8
-0.190, 2.577e-8
-0.191, 2.588e-8
-0.192, 2.592e-8
-0.193, 2.614e-8
-0.194, 2.613e-8
-0.195, 2.631e-8
-0.196, 2.643e-8
-0.197, 2.646e-8
-0.198, 2.668e-8
-0.199, 2.671e-8
