Mar. 16, 2023   10:14:02
Cyclic Voltammetry
File: c:/users/oliverrz/desktop/electrolab/data/2023_03_16\fcmeoh_macros_1_mm\electrode5_cv_250mvs_1_mm.bin
Data Source:  Experiment
Instrument Model:  CHI760E
Header: CV
Note: 

Init E (V) = -0.2
High E (V) = 0.3
Low E (V) = -0.2
Final E (V) = -0.2
Init P/N = P
Scan Rate (V/s) = 0.25
Segment = 3
Sample Interval (V) = 0.001
Quiet Time (sec) = 2
Sensitivity (A/V) = 1e-7

Results:

Channel 1:
Segment 1:
Ep = 0.119V
ip = -1.050e-7A
Ah = -2.534e-8C

Segment 2:
Ep = 0.058V
ip = 9.729e-8A
Ah = 2.434e-8C

Segment 3:

Potential/V, Current/A

-0.200, 1.124e-8
-0.199, 9.359e-9
-0.198, 8.867e-9
-0.197, 8.621e-9
-0.196, 8.560e-9
-0.195, 8.406e-9
-0.194, 8.098e-9
-0.193, 7.821e-9
-0.192, 7.883e-9
-0.191, 7.790e-9
-0.190, 7.513e-9
-0.189, 7.298e-9
-0.188, 7.267e-9
-0.187, 7.298e-9
-0.186, 7.052e-9
-0.185, 6.775e-9
-0.184, 6.806e-9
-0.183, 6.837e-9
-0.182, 6.621e-9
-0.181, 6.375e-9
-0.180, 6.283e-9
-0.179, 6.406e-9
-0.178, 6.221e-9
-0.177, 5.944e-9
-0.176, 5.883e-9
-0.175, 5.975e-9
-0.174, 5.852e-9
-0.173, 5.606e-9
-0.172, 5.452e-9
-0.171, 5.575e-9
-0.170, 5.514e-9
-0.169, 5.237e-9
-0.168, 5.114e-9
-0.167, 5.175e-9
-0.166, 5.145e-9
-0.165, 4.960e-9
-0.164, 4.683e-9
-0.163, 4.806e-9
-0.162, 4.837e-9
-0.161, 4.622e-9
-0.160, 4.406e-9
-0.159, 4.375e-9
-0.158, 4.499e-9
-0.157, 4.345e-9
-0.156, 4.068e-9
-0.155, 4.068e-9
-0.154, 4.160e-9
-0.153, 4.037e-9
-0.152, 3.791e-9
-0.151, 3.729e-9
-0.150, 3.852e-9
-0.149, 3.791e-9
-0.148, 3.514e-9
-0.147, 3.422e-9
-0.146, 3.545e-9
-0.145, 3.483e-9
-0.144, 3.268e-9
-0.143, 3.145e-9
-0.142, 3.206e-9
-0.141, 3.237e-9
-0.140, 3.022e-9
-0.139, 2.837e-9
-0.138, 2.960e-9
-0.137, 2.960e-9
-0.136, 2.806e-9
-0.135, 2.591e-9
-0.134, 2.622e-9
-0.133, 2.745e-9
-0.132, 2.560e-9
-0.131, 2.376e-9
-0.130, 2.376e-9
-0.129, 2.437e-9
-0.128, 2.376e-9
-0.127, 2.099e-9
-0.126, 2.068e-9
-0.125, 2.253e-9
-0.124, 2.130e-9
-0.123, 1.945e-9
-0.122, 1.853e-9
-0.121, 1.945e-9
-0.120, 1.976e-9
-0.119, 1.699e-9
-0.118, 1.607e-9
-0.117, 1.730e-9
-0.116, 1.730e-9
-0.115, 1.576e-9
-0.114, 1.360e-9
-0.113, 1.453e-9
-0.112, 1.545e-9
-0.111, 1.360e-9
-0.110, 1.176e-9
-0.109, 1.237e-9
-0.108, 1.330e-9
-0.107, 1.176e-9
-0.106, 9.913e-10
-0.105, 9.605e-10
-0.104, 1.145e-9
-0.103, 9.913e-10
-0.102, 8.067e-10
-0.101, 7.759e-10
-0.100, 9.298e-10
-0.099, 8.375e-10
-0.098, 6.221e-10
-0.097, 5.298e-10
-0.096, 7.144e-10
-0.095, 6.836e-10
-0.094, 4.375e-10
-0.093, 3.452e-10
-0.092, 4.375e-10
-0.091, 4.991e-10
-0.090, 2.837e-10
-0.089, 9.911e-11
-0.088, 2.529e-10
-0.087, 3.145e-10
-0.086, 1.299e-10
-0.085, -2.395e-11
-0.084, -2.395e-11
-0.083, 1.299e-10
-0.082, 6.813e-12
-0.081, -2.393e-10
-0.080, -2.085e-10
-0.079, -8.548e-11
-0.078, -1.778e-10
-0.077, -3.931e-10
-0.076, -4.239e-10
-0.075, -2.701e-10
-0.074, -3.316e-10
-0.073, -6.085e-10
-0.072, -6.393e-10
-0.071, -5.162e-10
-0.070, -5.470e-10
-0.069, -7.315e-10
-0.068, -8.854e-10
-0.067, -7.315e-10
-0.066, -7.008e-10
-0.065, -9.161e-10
-0.064, -1.070e-9
-0.063, -1.008e-9
-0.062, -9.469e-10
-0.061, -1.070e-9
-0.060, -1.316e-9
-0.059, -1.224e-9
-0.058, -1.131e-9
-0.057, -1.316e-9
-0.056, -1.501e-9
-0.055, -1.531e-9
-0.054, -1.378e-9
-0.053, -1.501e-9
-0.052, -1.808e-9
-0.051, -1.778e-9
-0.050, -1.655e-9
-0.049, -1.747e-9
-0.048, -1.993e-9
-0.047, -2.116e-9
-0.046, -1.962e-9
-0.045, -1.993e-9
-0.044, -2.270e-9
-0.043, -2.362e-9
-0.042, -2.331e-9
-0.041, -2.301e-9
-0.040, -2.516e-9
-0.039, -2.731e-9
-0.038, -2.670e-9
-0.037, -2.639e-9
-0.036, -2.854e-9
-0.035, -3.070e-9
-0.034, -3.070e-9
-0.033, -3.039e-9
-0.032, -3.224e-9
-0.031, -3.470e-9
-0.030, -3.531e-9
-0.029, -3.439e-9
-0.028, -3.623e-9
-0.027, -3.931e-9
-0.026, -3.993e-9
-0.025, -3.962e-9
-0.024, -4.085e-9
-0.023, -4.393e-9
-0.022, -4.577e-9
-0.021, -4.485e-9
-0.020, -4.639e-9
-0.019, -4.916e-9
-0.018, -5.131e-9
-0.017, -5.162e-9
-0.016, -5.192e-9
-0.015, -5.562e-9
-0.014, -5.839e-9
-0.013, -5.839e-9
-0.012, -5.962e-9
-0.011, -6.239e-9
-0.010, -6.577e-9
-0.009, -6.700e-9
-0.008, -6.700e-9
-0.007, -7.069e-9
-0.006, -7.438e-9
-0.005, -7.592e-9
-0.004, -7.684e-9
-0.003, -7.961e-9
-0.002, -8.423e-9
-0.001, -8.669e-9
-0.000, -8.915e-9
0.001, -9.100e-9
0.002, -9.530e-9
0.003, -9.869e-9
0.004, -1.002e-8
0.005, -1.027e-8
0.006, -1.076e-8
0.007, -1.119e-8
0.008, -1.138e-8
0.009, -1.171e-8
0.010, -1.221e-8
0.011, -1.267e-8
0.012, -1.301e-8
0.013, -1.325e-8
0.014, -1.384e-8
0.015, -1.445e-8
0.016, -1.476e-8
0.017, -1.513e-8
0.018, -1.571e-8
0.019, -1.633e-8
0.020, -1.688e-8
0.021, -1.719e-8
0.022, -1.784e-8
0.023, -1.858e-8
0.024, -1.913e-8
0.025, -1.962e-8
0.026, -2.027e-8
0.027, -2.104e-8
0.028, -2.177e-8
0.029, -2.224e-8
0.030, -2.297e-8
0.031, -2.387e-8
0.032, -2.464e-8
0.033, -2.528e-8
0.034, -2.602e-8
0.035, -2.694e-8
0.036, -2.790e-8
0.037, -2.860e-8
0.038, -2.940e-8
0.039, -3.048e-8
0.040, -3.147e-8
0.041, -3.239e-8
0.042, -3.322e-8
0.043, -3.430e-8
0.044, -3.543e-8
0.045, -3.642e-8
0.046, -3.734e-8
0.047, -3.854e-8
0.048, -3.971e-8
0.049, -4.091e-8
0.050, -4.190e-8
0.051, -4.313e-8
0.052, -4.454e-8
0.053, -4.568e-8
0.054, -4.676e-8
0.055, -4.811e-8
0.056, -4.946e-8
0.057, -5.088e-8
0.058, -5.202e-8
0.059, -5.331e-8
0.060, -5.485e-8
0.061, -5.623e-8
0.062, -5.755e-8
0.063, -5.888e-8
0.064, -6.039e-8
0.065, -6.198e-8
0.066, -6.328e-8
0.067, -6.460e-8
0.068, -6.623e-8
0.069, -6.768e-8
0.070, -6.921e-8
0.071, -7.051e-8
0.072, -7.205e-8
0.073, -7.364e-8
0.074, -7.506e-8
0.075, -7.638e-8
0.076, -7.795e-8
0.077, -7.949e-8
0.078, -8.094e-8
0.079, -8.226e-8
0.080, -8.367e-8
0.081, -8.518e-8
0.082, -8.663e-8
0.083, -8.780e-8
0.084, -8.921e-8
0.085, -9.057e-8
0.086, -9.198e-8
0.087, -9.318e-8
0.088, -9.426e-8
0.089, -9.570e-8
0.090, -9.693e-8
0.091, -9.798e-8
0.092, -9.909e-8
0.093, -1.002e-7
0.094, -1.014e-7
0.095, -1.024e-7
0.096, -1.031e-7
0.097, -1.042e-7
0.098, -1.052e-7
0.099, -1.060e-7
0.100, -1.067e-7
0.101, -1.075e-7
0.102, -1.085e-7
0.103, -1.092e-7
0.104, -1.096e-7
0.105, -1.103e-7
0.106, -1.109e-7
0.107, -1.115e-7
0.108, -1.119e-7
0.109, -1.122e-7
0.110, -1.127e-7
0.111, -1.132e-7
0.112, -1.133e-7
0.113, -1.136e-7
0.114, -1.139e-7
0.115, -1.142e-7
0.116, -1.143e-7
0.117, -1.143e-7
0.118, -1.145e-7
0.119, -1.147e-7
0.120, -1.146e-7
0.121, -1.144e-7
0.122, -1.144e-7
0.123, -1.144e-7
0.124, -1.144e-7
0.125, -1.140e-7
0.126, -1.139e-7
0.127, -1.139e-7
0.128, -1.136e-7
0.129, -1.133e-7
0.130, -1.129e-7
0.131, -1.127e-7
0.132, -1.125e-7
0.133, -1.120e-7
0.134, -1.117e-7
0.135, -1.114e-7
0.136, -1.111e-7
0.137, -1.106e-7
0.138, -1.100e-7
0.139, -1.097e-7
0.140, -1.094e-7
0.141, -1.088e-7
0.142, -1.083e-7
0.143, -1.079e-7
0.144, -1.075e-7
0.145, -1.070e-7
0.146, -1.063e-7
0.147, -1.059e-7
0.148, -1.055e-7
0.149, -1.050e-7
0.150, -1.042e-7
0.151, -1.038e-7
0.152, -1.034e-7
0.153, -1.029e-7
0.154, -1.022e-7
0.155, -1.016e-7
0.156, -1.013e-7
0.157, -1.007e-7
0.158, -1.000e-7
0.159, -9.949e-8
0.160, -9.906e-8
0.161, -9.866e-8
0.162, -9.801e-8
0.163, -9.733e-8
0.164, -9.696e-8
0.165, -9.653e-8
0.166, -9.595e-8
0.167, -9.533e-8
0.168, -9.484e-8
0.169, -9.453e-8
0.170, -9.395e-8
0.171, -9.324e-8
0.172, -9.290e-8
0.173, -9.247e-8
0.174, -9.201e-8
0.175, -9.137e-8
0.176, -9.084e-8
0.177, -9.060e-8
0.178, -9.013e-8
0.179, -8.952e-8
0.180, -8.903e-8
0.181, -8.872e-8
0.182, -8.835e-8
0.183, -8.774e-8
0.184, -8.721e-8
0.185, -8.694e-8
0.186, -8.663e-8
0.187, -8.604e-8
0.188, -8.555e-8
0.189, -8.521e-8
0.190, -8.497e-8
0.191, -8.447e-8
0.192, -8.392e-8
0.193, -8.361e-8
0.194, -8.340e-8
0.195, -8.294e-8
0.196, -8.241e-8
0.197, -8.211e-8
0.198, -8.192e-8
0.199, -8.155e-8
0.200, -8.097e-8
0.201, -8.066e-8
0.202, -8.047e-8
0.203, -8.017e-8
0.204, -7.967e-8
0.205, -7.931e-8
0.206, -7.912e-8
0.207, -7.891e-8
0.208, -7.835e-8
0.209, -7.804e-8
0.210, -7.783e-8
0.211, -7.761e-8
0.212, -7.724e-8
0.213, -7.678e-8
0.214, -7.663e-8
0.215, -7.651e-8
0.216, -7.608e-8
0.217, -7.571e-8
0.218, -7.549e-8
0.219, -7.540e-8
0.220, -7.509e-8
0.221, -7.460e-8
0.222, -7.444e-8
0.223, -7.435e-8
0.224, -7.404e-8
0.225, -7.364e-8
0.226, -7.340e-8
0.227, -7.331e-8
0.228, -7.315e-8
0.229, -7.269e-8
0.230, -7.244e-8
0.231, -7.238e-8
0.232, -7.223e-8
0.233, -7.186e-8
0.234, -7.155e-8
0.235, -7.146e-8
0.236, -7.140e-8
0.237, -7.100e-8
0.238, -7.069e-8
0.239, -7.063e-8
0.240, -7.054e-8
0.241, -7.029e-8
0.242, -6.989e-8
0.243, -6.980e-8
0.244, -6.983e-8
0.245, -6.949e-8
0.246, -6.915e-8
0.247, -6.906e-8
0.248, -6.900e-8
0.249, -6.888e-8
0.250, -6.845e-8
0.251, -6.832e-8
0.252, -6.832e-8
0.253, -6.817e-8
0.254, -6.783e-8
0.255, -6.765e-8
0.256, -6.765e-8
0.257, -6.755e-8
0.258, -6.725e-8
0.259, -6.700e-8
0.260, -6.700e-8
0.261, -6.694e-8
0.262, -6.666e-8
0.263, -6.642e-8
0.264, -6.638e-8
0.265, -6.638e-8
0.266, -6.614e-8
0.267, -6.583e-8
0.268, -6.580e-8
0.269, -6.583e-8
0.270, -6.562e-8
0.271, -6.534e-8
0.272, -6.522e-8
0.273, -6.531e-8
0.274, -6.518e-8
0.275, -6.482e-8
0.276, -6.475e-8
0.277, -6.478e-8
0.278, -6.466e-8
0.279, -6.442e-8
0.280, -6.420e-8
0.281, -6.429e-8
0.282, -6.426e-8
0.283, -6.395e-8
0.284, -6.383e-8
0.285, -6.380e-8
0.286, -6.380e-8
0.287, -6.358e-8
0.288, -6.331e-8
0.289, -6.340e-8
0.290, -6.340e-8
0.291, -6.318e-8
0.292, -6.297e-8
0.293, -6.294e-8
0.294, -6.303e-8
0.295, -6.285e-8
0.296, -6.254e-8
0.297, -6.254e-8
0.298, -6.260e-8
0.299, -6.251e-8
0.300, -5.955e-8
0.299, -5.608e-8
0.298, -5.555e-8
0.297, -5.512e-8
0.296, -5.457e-8
0.295, -5.414e-8
0.294, -5.405e-8
0.293, -5.380e-8
0.292, -5.331e-8
0.291, -5.306e-8
0.290, -5.291e-8
0.289, -5.282e-8
0.288, -5.248e-8
0.287, -5.208e-8
0.286, -5.208e-8
0.285, -5.199e-8
0.284, -5.168e-8
0.283, -5.137e-8
0.282, -5.122e-8
0.281, -5.128e-8
0.280, -5.103e-8
0.279, -5.066e-8
0.278, -5.057e-8
0.277, -5.060e-8
0.276, -5.042e-8
0.275, -5.008e-8
0.274, -4.992e-8
0.273, -4.992e-8
0.272, -4.983e-8
0.271, -4.946e-8
0.270, -4.931e-8
0.269, -4.934e-8
0.268, -4.925e-8
0.267, -4.897e-8
0.266, -4.876e-8
0.265, -4.876e-8
0.264, -4.876e-8
0.263, -4.845e-8
0.262, -4.820e-8
0.261, -4.823e-8
0.260, -4.820e-8
0.259, -4.802e-8
0.258, -4.771e-8
0.257, -4.765e-8
0.256, -4.771e-8
0.255, -4.753e-8
0.254, -4.725e-8
0.253, -4.716e-8
0.252, -4.722e-8
0.251, -4.709e-8
0.250, -4.676e-8
0.249, -4.663e-8
0.248, -4.673e-8
0.247, -4.660e-8
0.246, -4.629e-8
0.245, -4.617e-8
0.244, -4.620e-8
0.243, -4.614e-8
0.242, -4.583e-8
0.241, -4.565e-8
0.240, -4.571e-8
0.239, -4.565e-8
0.238, -4.543e-8
0.237, -4.519e-8
0.236, -4.519e-8
0.235, -4.522e-8
0.234, -4.500e-8
0.233, -4.469e-8
0.232, -4.469e-8
0.231, -4.469e-8
0.230, -4.451e-8
0.229, -4.423e-8
0.228, -4.411e-8
0.227, -4.420e-8
0.226, -4.402e-8
0.225, -4.374e-8
0.224, -4.365e-8
0.223, -4.362e-8
0.222, -4.356e-8
0.221, -4.325e-8
0.220, -4.303e-8
0.219, -4.313e-8
0.218, -4.300e-8
0.217, -4.270e-8
0.216, -4.251e-8
0.215, -4.248e-8
0.214, -4.248e-8
0.213, -4.217e-8
0.212, -4.190e-8
0.211, -4.190e-8
0.210, -4.183e-8
0.209, -4.162e-8
0.208, -4.128e-8
0.207, -4.119e-8
0.206, -4.119e-8
0.205, -4.094e-8
0.204, -4.060e-8
0.203, -4.048e-8
0.202, -4.048e-8
0.201, -4.026e-8
0.200, -3.990e-8
0.199, -3.971e-8
0.198, -3.968e-8
0.197, -3.953e-8
0.196, -3.910e-8
0.195, -3.888e-8
0.194, -3.879e-8
0.193, -3.863e-8
0.192, -3.826e-8
0.191, -3.790e-8
0.190, -3.783e-8
0.189, -3.774e-8
0.188, -3.728e-8
0.187, -3.694e-8
0.186, -3.679e-8
0.185, -3.660e-8
0.184, -3.630e-8
0.183, -3.577e-8
0.182, -3.562e-8
0.181, -3.547e-8
0.180, -3.503e-8
0.179, -3.457e-8
0.178, -3.430e-8
0.177, -3.411e-8
0.176, -3.377e-8
0.175, -3.316e-8
0.174, -3.285e-8
0.173, -3.260e-8
0.172, -3.224e-8
0.171, -3.168e-8
0.170, -3.119e-8
0.169, -3.091e-8
0.168, -3.054e-8
0.167, -2.990e-8
0.166, -2.937e-8
0.165, -2.904e-8
0.164, -2.860e-8
0.163, -2.799e-8
0.162, -2.731e-8
0.161, -2.688e-8
0.160, -2.645e-8
0.159, -2.577e-8
0.158, -2.507e-8
0.157, -2.451e-8
0.156, -2.402e-8
0.155, -2.334e-8
0.154, -2.248e-8
0.153, -2.184e-8
0.152, -2.131e-8
0.151, -2.051e-8
0.150, -1.962e-8
0.149, -1.891e-8
0.148, -1.824e-8
0.147, -1.750e-8
0.146, -1.645e-8
0.145, -1.562e-8
0.144, -1.491e-8
0.143, -1.399e-8
0.142, -1.298e-8
0.141, -1.196e-8
0.140, -1.113e-8
0.139, -1.027e-8
0.138, -9.069e-9
0.137, -7.961e-9
0.136, -7.038e-9
0.135, -6.023e-9
0.134, -4.916e-9
0.133, -3.654e-9
0.132, -2.547e-9
0.131, -1.593e-9
0.130, -2.701e-10
0.129, 1.084e-9
0.128, 2.253e-9
0.127, 3.391e-9
0.126, 4.652e-9
0.125, 6.160e-9
0.124, 7.390e-9
0.123, 8.590e-9
0.122, 1.001e-8
0.121, 1.145e-8
0.120, 1.277e-8
0.119, 1.419e-8
0.118, 1.545e-8
0.117, 1.708e-8
0.116, 1.862e-8
0.115, 1.985e-8
0.114, 2.130e-8
0.113, 2.280e-8
0.112, 2.440e-8
0.111, 2.585e-8
0.110, 2.714e-8
0.109, 2.874e-8
0.108, 3.037e-8
0.107, 3.169e-8
0.106, 3.317e-8
0.105, 3.465e-8
0.104, 3.628e-8
0.103, 3.772e-8
0.102, 3.905e-8
0.101, 4.052e-8
0.100, 4.212e-8
0.099, 4.339e-8
0.098, 4.474e-8
0.097, 4.606e-8
0.096, 4.760e-8
0.095, 4.898e-8
0.094, 5.009e-8
0.093, 5.138e-8
0.092, 5.280e-8
0.091, 5.403e-8
0.090, 5.517e-8
0.089, 5.628e-8
0.088, 5.745e-8
0.087, 5.871e-8
0.086, 5.957e-8
0.085, 6.055e-8
0.084, 6.169e-8
0.083, 6.261e-8
0.082, 6.357e-8
0.081, 6.434e-8
0.080, 6.517e-8
0.079, 6.618e-8
0.078, 6.677e-8
0.077, 6.741e-8
0.076, 6.818e-8
0.075, 6.883e-8
0.074, 6.947e-8
0.073, 6.984e-8
0.072, 7.027e-8
0.071, 7.110e-8
0.070, 7.129e-8
0.069, 7.166e-8
0.068, 7.200e-8
0.067, 7.230e-8
0.066, 7.270e-8
0.065, 7.277e-8
0.064, 7.289e-8
0.063, 7.320e-8
0.062, 7.332e-8
0.061, 7.332e-8
0.060, 7.326e-8
0.059, 7.329e-8
0.058, 7.354e-8
0.057, 7.323e-8
0.056, 7.310e-8
0.055, 7.307e-8
0.054, 7.304e-8
0.053, 7.283e-8
0.052, 7.255e-8
0.051, 7.230e-8
0.050, 7.230e-8
0.049, 7.197e-8
0.048, 7.150e-8
0.047, 7.129e-8
0.046, 7.107e-8
0.045, 7.077e-8
0.044, 7.031e-8
0.043, 6.981e-8
0.042, 6.966e-8
0.041, 6.935e-8
0.040, 6.877e-8
0.039, 6.834e-8
0.038, 6.800e-8
0.037, 6.766e-8
0.036, 6.714e-8
0.035, 6.649e-8
0.034, 6.621e-8
0.033, 6.587e-8
0.032, 6.526e-8
0.031, 6.474e-8
0.030, 6.424e-8
0.029, 6.397e-8
0.028, 6.344e-8
0.027, 6.277e-8
0.026, 6.237e-8
0.025, 6.203e-8
0.024, 6.148e-8
0.023, 6.092e-8
0.022, 6.037e-8
0.021, 6.009e-8
0.020, 5.963e-8
0.019, 5.895e-8
0.018, 5.843e-8
0.017, 5.812e-8
0.016, 5.769e-8
0.015, 5.714e-8
0.014, 5.652e-8
0.013, 5.618e-8
0.012, 5.588e-8
0.011, 5.526e-8
0.010, 5.468e-8
0.009, 5.434e-8
0.008, 5.400e-8
0.007, 5.351e-8
0.006, 5.289e-8
0.005, 5.252e-8
0.004, 5.231e-8
0.003, 5.178e-8
0.002, 5.123e-8
0.001, 5.083e-8
0.000, 5.074e-8
-0.001, 5.025e-8
-0.002, 4.963e-8
-0.003, 4.920e-8
-0.004, 4.905e-8
-0.005, 4.865e-8
-0.006, 4.812e-8
-0.007, 4.766e-8
-0.008, 4.745e-8
-0.009, 4.717e-8
-0.010, 4.668e-8
-0.011, 4.622e-8
-0.012, 4.600e-8
-0.013, 4.579e-8
-0.014, 4.535e-8
-0.015, 4.483e-8
-0.016, 4.462e-8
-0.017, 4.446e-8
-0.018, 4.406e-8
-0.019, 4.360e-8
-0.020, 4.335e-8
-0.021, 4.323e-8
-0.022, 4.286e-8
-0.023, 4.243e-8
-0.024, 4.212e-8
-0.025, 4.206e-8
-0.026, 4.179e-8
-0.027, 4.129e-8
-0.028, 4.105e-8
-0.029, 4.092e-8
-0.030, 4.071e-8
-0.031, 4.031e-8
-0.032, 3.994e-8
-0.033, 3.991e-8
-0.034, 3.972e-8
-0.035, 3.932e-8
-0.036, 3.902e-8
-0.037, 3.886e-8
-0.038, 3.883e-8
-0.039, 3.846e-8
-0.040, 3.803e-8
-0.041, 3.800e-8
-0.042, 3.791e-8
-0.043, 3.763e-8
-0.044, 3.726e-8
-0.045, 3.708e-8
-0.046, 3.711e-8
-0.047, 3.683e-8
-0.048, 3.646e-8
-0.049, 3.634e-8
-0.050, 3.631e-8
-0.051, 3.613e-8
-0.052, 3.579e-8
-0.053, 3.557e-8
-0.054, 3.563e-8
-0.055, 3.545e-8
-0.056, 3.514e-8
-0.057, 3.493e-8
-0.058, 3.493e-8
-0.059, 3.483e-8
-0.060, 3.453e-8
-0.061, 3.428e-8
-0.062, 3.428e-8
-0.063, 3.425e-8
-0.064, 3.400e-8
-0.065, 3.373e-8
-0.066, 3.366e-8
-0.067, 3.369e-8
-0.068, 3.348e-8
-0.069, 3.317e-8
-0.070, 3.311e-8
-0.071, 3.320e-8
-0.072, 3.299e-8
-0.073, 3.274e-8
-0.074, 3.262e-8
-0.075, 3.268e-8
-0.076, 3.259e-8
-0.077, 3.228e-8
-0.078, 3.216e-8
-0.079, 3.225e-8
-0.080, 3.213e-8
-0.081, 3.191e-8
-0.082, 3.169e-8
-0.083, 3.179e-8
-0.084, 3.179e-8
-0.085, 3.151e-8
-0.086, 3.133e-8
-0.087, 3.139e-8
-0.088, 3.142e-8
-0.089, 3.123e-8
-0.090, 3.099e-8
-0.091, 3.102e-8
-0.092, 3.111e-8
-0.093, 3.093e-8
-0.094, 3.071e-8
-0.095, 3.068e-8
-0.096, 3.080e-8
-0.097, 3.068e-8
-0.098, 3.040e-8
-0.099, 3.040e-8
-0.100, 3.053e-8
-0.101, 3.043e-8
-0.102, 3.025e-8
-0.103, 3.013e-8
-0.104, 3.025e-8
-0.105, 3.025e-8
-0.106, 3.000e-8
-0.107, 2.988e-8
-0.108, 3.003e-8
-0.109, 3.003e-8
-0.110, 2.988e-8
-0.111, 2.970e-8
-0.112, 2.979e-8
-0.113, 2.991e-8
-0.114, 2.970e-8
-0.115, 2.954e-8
-0.116, 2.960e-8
-0.117, 2.970e-8
-0.118, 2.960e-8
-0.119, 2.942e-8
-0.120, 2.942e-8
-0.121, 2.960e-8
-0.122, 2.951e-8
-0.123, 2.930e-8
-0.124, 2.933e-8
-0.125, 2.945e-8
-0.126, 2.945e-8
-0.127, 2.923e-8
-0.128, 2.920e-8
-0.129, 2.939e-8
-0.130, 2.939e-8
-0.131, 2.920e-8
-0.132, 2.914e-8
-0.133, 2.930e-8
-0.134, 2.936e-8
-0.135, 2.923e-8
-0.136, 2.905e-8
-0.137, 2.923e-8
-0.138, 2.933e-8
-0.139, 2.920e-8
-0.140, 2.908e-8
-0.141, 2.917e-8
-0.142, 2.933e-8
-0.143, 2.926e-8
-0.144, 2.908e-8
-0.145, 2.917e-8
-0.146, 2.933e-8
-0.147, 2.930e-8
-0.148, 2.917e-8
-0.149, 2.917e-8
-0.150, 2.939e-8
-0.151, 2.939e-8
-0.152, 2.920e-8
-0.153, 2.923e-8
-0.154, 2.942e-8
-0.155, 2.945e-8
-0.156, 2.933e-8
-0.157, 2.926e-8
-0.158, 2.951e-8
-0.159, 2.957e-8
-0.160, 2.945e-8
-0.161, 2.939e-8
-0.162, 2.954e-8
-0.163, 2.973e-8
-0.164, 2.963e-8
-0.165, 2.948e-8
-0.166, 2.966e-8
-0.167, 2.985e-8
-0.168, 2.979e-8
-0.169, 2.966e-8
-0.170, 2.976e-8
-0.171, 3.000e-8
-0.172, 3.000e-8
-0.173, 2.985e-8
-0.174, 2.994e-8
-0.175, 3.019e-8
-0.176, 3.019e-8
-0.177, 3.010e-8
-0.178, 3.013e-8
-0.179, 3.034e-8
-0.180, 3.043e-8
-0.181, 3.034e-8
-0.182, 3.031e-8
-0.183, 3.059e-8
-0.184, 3.068e-8
-0.185, 3.065e-8
-0.186, 3.059e-8
-0.187, 3.080e-8
-0.188, 3.099e-8
-0.189, 3.089e-8
-0.190, 3.086e-8
-0.191, 3.105e-8
-0.192, 3.123e-8
-0.193, 3.126e-8
-0.194, 3.117e-8
-0.195, 3.133e-8
-0.196, 3.160e-8
-0.197, 3.160e-8
-0.198, 3.154e-8
-0.199, 3.163e-8
