Mar. 16, 2023   10:10:50
Cyclic Voltammetry
File: c:/users/oliverrz/desktop/electrolab/data/2023_03_16\fcmeoh_macros_1_mm\electrode3_cv_100mvs_1_mm.bin
Data Source:  Experiment
Instrument Model:  CHI760E
Header: CV
Note: 

Init E (V) = -0.2
High E (V) = 0.3
Low E (V) = -0.2
Final E (V) = -0.2
Init P/N = P
Scan Rate (V/s) = 0.1
Segment = 3
Sample Interval (V) = 0.001
Quiet Time (sec) = 2
Sensitivity (A/V) = 1e-7

Results:

Channel 1:
Segment 1:
Ep = 0.126V
ip = -6.621e-8A
Ah = -4.169e-8C

Segment 2:
Ep = 0.058V
ip = 6.287e-8A
Ah = 4.056e-8C

Segment 3:

Potential/V, Current/A

-0.200, 1.292e-8
-0.199, 1.200e-8
-0.198, 1.163e-8
-0.197, 1.136e-8
-0.196, 1.123e-8
-0.195, 1.100e-8
-0.194, 1.088e-8
-0.193, 1.072e-8
-0.192, 1.054e-8
-0.191, 1.046e-8
-0.190, 1.026e-8
-0.189, 1.016e-8
-0.188, 1.003e-8
-0.187, 9.863e-9
-0.186, 9.796e-9
-0.185, 9.610e-9
-0.184, 9.527e-9
-0.183, 9.406e-9
-0.182, 9.250e-9
-0.181, 9.199e-9
-0.180, 9.015e-9
-0.179, 8.939e-9
-0.178, 8.830e-9
-0.177, 8.674e-9
-0.176, 8.634e-9
-0.175, 8.456e-9
-0.174, 8.386e-9
-0.173, 8.286e-9
-0.172, 8.137e-9
-0.171, 8.109e-9
-0.170, 7.943e-9
-0.169, 7.874e-9
-0.168, 7.785e-9
-0.167, 7.642e-9
-0.166, 7.610e-9
-0.165, 7.455e-9
-0.164, 7.392e-9
-0.163, 7.311e-9
-0.162, 7.172e-9
-0.161, 7.148e-9
-0.160, 6.998e-9
-0.159, 6.942e-9
-0.158, 6.863e-9
-0.157, 6.731e-9
-0.156, 6.704e-9
-0.155, 6.566e-9
-0.154, 6.511e-9
-0.153, 6.433e-9
-0.152, 6.312e-9
-0.151, 6.292e-9
-0.150, 6.155e-9
-0.149, 6.109e-9
-0.148, 6.030e-9
-0.147, 5.917e-9
-0.146, 5.906e-9
-0.145, 5.765e-9
-0.144, 5.727e-9
-0.143, 5.657e-9
-0.142, 5.534e-9
-0.141, 5.532e-9
-0.140, 5.393e-9
-0.139, 5.361e-9
-0.138, 5.300e-9
-0.137, 5.182e-9
-0.136, 5.185e-9
-0.135, 5.050e-9
-0.134, 5.017e-9
-0.133, 4.959e-9
-0.132, 4.844e-9
-0.131, 4.850e-9
-0.130, 4.724e-9
-0.129, 4.688e-9
-0.128, 4.630e-9
-0.127, 4.518e-9
-0.126, 4.525e-9
-0.125, 4.407e-9
-0.124, 4.378e-9
-0.123, 4.335e-9
-0.122, 4.222e-9
-0.121, 4.225e-9
-0.120, 4.115e-9
-0.119, 4.082e-9
-0.118, 4.039e-9
-0.117, 3.935e-9
-0.116, 3.941e-9
-0.115, 3.827e-9
-0.114, 3.801e-9
-0.113, 3.756e-9
-0.112, 3.662e-9
-0.111, 3.669e-9
-0.110, 3.556e-9
-0.109, 3.537e-9
-0.108, 3.491e-9
-0.107, 3.396e-9
-0.106, 3.412e-9
-0.105, 3.297e-9
-0.104, 3.281e-9
-0.103, 3.233e-9
-0.102, 3.133e-9
-0.101, 3.154e-9
-0.100, 3.047e-9
-0.099, 3.031e-9
-0.098, 2.995e-9
-0.097, 2.893e-9
-0.096, 2.920e-9
-0.095, 2.807e-9
-0.094, 2.792e-9
-0.093, 2.760e-9
-0.092, 2.659e-9
-0.091, 2.683e-9
-0.090, 2.578e-9
-0.089, 2.555e-9
-0.088, 2.533e-9
-0.087, 2.432e-9
-0.086, 2.457e-9
-0.085, 2.355e-9
-0.084, 2.334e-9
-0.083, 2.313e-9
-0.082, 2.215e-9
-0.081, 2.239e-9
-0.080, 2.139e-9
-0.079, 2.116e-9
-0.078, 2.090e-9
-0.077, 1.994e-9
-0.076, 2.010e-9
-0.075, 1.916e-9
-0.074, 1.898e-9
-0.073, 1.867e-9
-0.072, 1.778e-9
-0.071, 1.799e-9
-0.070, 1.702e-9
-0.069, 1.683e-9
-0.068, 1.652e-9
-0.067, 1.557e-9
-0.066, 1.585e-9
-0.065, 1.477e-9
-0.064, 1.465e-9
-0.063, 1.431e-9
-0.062, 1.329e-9
-0.061, 1.361e-9
-0.060, 1.250e-9
-0.059, 1.240e-9
-0.058, 1.208e-9
-0.057, 1.105e-9
-0.056, 1.135e-9
-0.055, 1.023e-9
-0.054, 1.002e-9
-0.053, 9.764e-10
-0.052, 8.617e-10
-0.051, 8.895e-10
-0.050, 7.792e-10
-0.049, 7.476e-10
-0.048, 7.255e-10
-0.047, 6.116e-10
-0.046, 6.294e-10
-0.045, 5.200e-10
-0.044, 4.849e-10
-0.043, 4.558e-10
-0.042, 3.383e-10
-0.041, 3.527e-10
-0.040, 2.463e-10
-0.039, 1.997e-10
-0.038, 1.592e-10
-0.037, 4.855e-11
-0.036, 4.727e-11
-0.035, -6.112e-11
-0.034, -1.024e-10
-0.033, -1.539e-10
-0.032, -2.660e-10
-0.031, -2.742e-10
-0.030, -3.996e-10
-0.029, -4.479e-10
-0.028, -5.062e-10
-0.027, -6.282e-10
-0.026, -6.436e-10
-0.025, -7.854e-10
-0.024, -8.364e-10
-0.023, -9.051e-10
-0.022, -1.044e-9
-0.021, -1.059e-9
-0.020, -1.207e-9
-0.019, -1.273e-9
-0.018, -1.347e-9
-0.017, -1.504e-9
-0.016, -1.528e-9
-0.015, -1.694e-9
-0.014, -1.779e-9
-0.013, -1.869e-9
-0.012, -2.046e-9
-0.011, -2.087e-9
-0.010, -2.257e-9
-0.009, -2.366e-9
-0.008, -2.461e-9
-0.007, -2.657e-9
-0.006, -2.723e-9
-0.005, -2.908e-9
-0.004, -3.047e-9
-0.003, -3.162e-9
-0.002, -3.374e-9
-0.001, -3.469e-9
-0.000, -3.733e-9
0.001, -3.864e-9
0.002, -3.997e-9
0.003, -4.228e-9
0.004, -4.350e-9
0.005, -4.584e-9
0.006, -4.765e-9
0.007, -4.950e-9
0.008, -5.209e-9
0.009, -5.360e-9
0.010, -5.629e-9
0.011, -5.849e-9
0.012, -6.069e-9
0.013, -6.365e-9
0.014, -6.558e-9
0.015, -6.875e-9
0.016, -7.119e-9
0.017, -7.393e-9
0.018, -7.730e-9
0.019, -7.965e-9
0.020, -8.324e-9
0.021, -8.619e-9
0.022, -8.921e-9
0.023, -9.326e-9
0.024, -9.596e-9
0.025, -1.001e-8
0.026, -1.037e-8
0.027, -1.073e-8
0.028, -1.118e-8
0.029, -1.150e-8
0.030, -1.197e-8
0.031, -1.239e-8
0.032, -1.280e-8
0.033, -1.332e-8
0.034, -1.371e-8
0.035, -1.423e-8
0.036, -1.473e-8
0.037, -1.520e-8
0.038, -1.579e-8
0.039, -1.627e-8
0.040, -1.685e-8
0.041, -1.742e-8
0.042, -1.796e-8
0.043, -1.860e-8
0.044, -1.916e-8
0.045, -1.980e-8
0.046, -2.044e-8
0.047, -2.107e-8
0.048, -2.177e-8
0.049, -2.241e-8
0.050, -2.314e-8
0.051, -2.388e-8
0.052, -2.459e-8
0.053, -2.536e-8
0.054, -2.607e-8
0.055, -2.688e-8
0.056, -2.764e-8
0.057, -2.844e-8
0.058, -2.927e-8
0.059, -3.005e-8
0.060, -3.094e-8
0.061, -3.177e-8
0.062, -3.261e-8
0.063, -3.354e-8
0.064, -3.437e-8
0.065, -3.531e-8
0.066, -3.621e-8
0.067, -3.708e-8
0.068, -3.805e-8
0.069, -3.891e-8
0.070, -3.991e-8
0.071, -4.083e-8
0.072, -4.172e-8
0.073, -4.275e-8
0.074, -4.364e-8
0.075, -4.459e-8
0.076, -4.558e-8
0.077, -4.649e-8
0.078, -4.751e-8
0.079, -4.842e-8
0.080, -4.935e-8
0.081, -5.031e-8
0.082, -5.120e-8
0.083, -5.216e-8
0.084, -5.305e-8
0.085, -5.395e-8
0.086, -5.487e-8
0.087, -5.572e-8
0.088, -5.662e-8
0.089, -5.745e-8
0.090, -5.831e-8
0.091, -5.913e-8
0.092, -5.993e-8
0.093, -6.071e-8
0.094, -6.147e-8
0.095, -6.221e-8
0.096, -6.295e-8
0.097, -6.365e-8
0.098, -6.436e-8
0.099, -6.497e-8
0.100, -6.563e-8
0.101, -6.623e-8
0.102, -6.682e-8
0.103, -6.744e-8
0.104, -6.792e-8
0.105, -6.845e-8
0.106, -6.891e-8
0.107, -6.934e-8
0.108, -6.982e-8
0.109, -7.014e-8
0.110, -7.056e-8
0.111, -7.093e-8
0.112, -7.121e-8
0.113, -7.156e-8
0.114, -7.176e-8
0.115, -7.205e-8
0.116, -7.229e-8
0.117, -7.243e-8
0.118, -7.265e-8
0.119, -7.275e-8
0.120, -7.288e-8
0.121, -7.299e-8
0.122, -7.302e-8
0.123, -7.313e-8
0.124, -7.312e-8
0.125, -7.314e-8
0.126, -7.316e-8
0.127, -7.309e-8
0.128, -7.310e-8
0.129, -7.301e-8
0.130, -7.295e-8
0.131, -7.285e-8
0.132, -7.271e-8
0.133, -7.262e-8
0.134, -7.244e-8
0.135, -7.232e-8
0.136, -7.215e-8
0.137, -7.195e-8
0.138, -7.180e-8
0.139, -7.154e-8
0.140, -7.138e-8
0.141, -7.116e-8
0.142, -7.090e-8
0.143, -7.072e-8
0.144, -7.041e-8
0.145, -7.020e-8
0.146, -6.992e-8
0.147, -6.963e-8
0.148, -6.943e-8
0.149, -6.908e-8
0.150, -6.884e-8
0.151, -6.856e-8
0.152, -6.823e-8
0.153, -6.802e-8
0.154, -6.767e-8
0.155, -6.741e-8
0.156, -6.712e-8
0.157, -6.677e-8
0.158, -6.655e-8
0.159, -6.620e-8
0.160, -6.592e-8
0.161, -6.564e-8
0.162, -6.529e-8
0.163, -6.506e-8
0.164, -6.471e-8
0.165, -6.443e-8
0.166, -6.415e-8
0.167, -6.382e-8
0.168, -6.358e-8
0.169, -6.323e-8
0.170, -6.297e-8
0.171, -6.268e-8
0.172, -6.236e-8
0.173, -6.212e-8
0.174, -6.179e-8
0.175, -6.155e-8
0.176, -6.126e-8
0.177, -6.096e-8
0.178, -6.074e-8
0.179, -6.042e-8
0.180, -6.019e-8
0.181, -5.992e-8
0.182, -5.962e-8
0.183, -5.942e-8
0.184, -5.910e-8
0.185, -5.889e-8
0.186, -5.864e-8
0.187, -5.835e-8
0.188, -5.817e-8
0.189, -5.786e-8
0.190, -5.766e-8
0.191, -5.744e-8
0.192, -5.716e-8
0.193, -5.700e-8
0.194, -5.671e-8
0.195, -5.652e-8
0.196, -5.631e-8
0.197, -5.605e-8
0.198, -5.590e-8
0.199, -5.563e-8
0.200, -5.545e-8
0.201, -5.526e-8
0.202, -5.501e-8
0.203, -5.487e-8
0.204, -5.461e-8
0.205, -5.445e-8
0.206, -5.426e-8
0.207, -5.403e-8
0.208, -5.390e-8
0.209, -5.366e-8
0.210, -5.351e-8
0.211, -5.334e-8
0.212, -5.312e-8
0.213, -5.301e-8
0.214, -5.278e-8
0.215, -5.265e-8
0.216, -5.248e-8
0.217, -5.228e-8
0.218, -5.218e-8
0.219, -5.196e-8
0.220, -5.184e-8
0.221, -5.168e-8
0.222, -5.149e-8
0.223, -5.141e-8
0.224, -5.119e-8
0.225, -5.109e-8
0.226, -5.095e-8
0.227, -5.077e-8
0.228, -5.070e-8
0.229, -5.050e-8
0.230, -5.041e-8
0.231, -5.028e-8
0.232, -5.010e-8
0.233, -5.004e-8
0.234, -4.985e-8
0.235, -4.976e-8
0.236, -4.965e-8
0.237, -4.947e-8
0.238, -4.943e-8
0.239, -4.925e-8
0.240, -4.916e-8
0.241, -4.905e-8
0.242, -4.889e-8
0.243, -4.884e-8
0.244, -4.868e-8
0.245, -4.860e-8
0.246, -4.850e-8
0.247, -4.835e-8
0.248, -4.831e-8
0.249, -4.815e-8
0.250, -4.808e-8
0.251, -4.799e-8
0.252, -4.785e-8
0.253, -4.782e-8
0.254, -4.766e-8
0.255, -4.760e-8
0.256, -4.752e-8
0.257, -4.738e-8
0.258, -4.736e-8
0.259, -4.721e-8
0.260, -4.716e-8
0.261, -4.708e-8
0.262, -4.695e-8
0.263, -4.694e-8
0.264, -4.679e-8
0.265, -4.674e-8
0.266, -4.667e-8
0.267, -4.654e-8
0.268, -4.654e-8
0.269, -4.640e-8
0.270, -4.635e-8
0.271, -4.629e-8
0.272, -4.616e-8
0.273, -4.617e-8
0.274, -4.604e-8
0.275, -4.599e-8
0.276, -4.594e-8
0.277, -4.582e-8
0.278, -4.583e-8
0.279, -4.570e-8
0.280, -4.567e-8
0.281, -4.563e-8
0.282, -4.552e-8
0.283, -4.553e-8
0.284, -4.541e-8
0.285, -4.537e-8
0.286, -4.533e-8
0.287, -4.523e-8
0.288, -4.524e-8
0.289, -4.513e-8
0.290, -4.511e-8
0.291, -4.506e-8
0.292, -4.497e-8
0.293, -4.499e-8
0.294, -4.488e-8
0.295, -4.487e-8
0.296, -4.482e-8
0.297, -4.473e-8
0.298, -4.476e-8
0.299, -4.465e-8
0.300, -4.381e-8
0.299, -4.234e-8
0.298, -4.180e-8
0.297, -4.159e-8
0.296, -4.132e-8
0.295, -4.115e-8
0.294, -4.100e-8
0.293, -4.079e-8
0.292, -4.070e-8
0.291, -4.051e-8
0.290, -4.039e-8
0.289, -4.028e-8
0.288, -4.010e-8
0.287, -4.004e-8
0.286, -3.986e-8
0.285, -3.977e-8
0.284, -3.967e-8
0.283, -3.952e-8
0.282, -3.947e-8
0.281, -3.930e-8
0.280, -3.923e-8
0.279, -3.914e-8
0.278, -3.899e-8
0.277, -3.896e-8
0.276, -3.881e-8
0.275, -3.874e-8
0.274, -3.865e-8
0.273, -3.851e-8
0.272, -3.849e-8
0.271, -3.834e-8
0.270, -3.828e-8
0.269, -3.821e-8
0.268, -3.806e-8
0.267, -3.806e-8
0.266, -3.791e-8
0.265, -3.786e-8
0.264, -3.780e-8
0.263, -3.765e-8
0.262, -3.765e-8
0.261, -3.751e-8
0.260, -3.745e-8
0.259, -3.740e-8
0.258, -3.726e-8
0.257, -3.725e-8
0.256, -3.711e-8
0.255, -3.705e-8
0.254, -3.700e-8
0.253, -3.687e-8
0.252, -3.686e-8
0.251, -3.673e-8
0.250, -3.668e-8
0.249, -3.662e-8
0.248, -3.649e-8
0.247, -3.648e-8
0.246, -3.636e-8
0.245, -3.630e-8
0.244, -3.625e-8
0.243, -3.612e-8
0.242, -3.611e-8
0.241, -3.598e-8
0.240, -3.593e-8
0.239, -3.588e-8
0.238, -3.574e-8
0.237, -3.573e-8
0.236, -3.560e-8
0.235, -3.555e-8
0.234, -3.549e-8
0.233, -3.536e-8
0.232, -3.535e-8
0.231, -3.521e-8
0.230, -3.515e-8
0.229, -3.510e-8
0.228, -3.496e-8
0.227, -3.495e-8
0.226, -3.482e-8
0.225, -3.476e-8
0.224, -3.469e-8
0.223, -3.454e-8
0.222, -3.453e-8
0.221, -3.438e-8
0.220, -3.431e-8
0.219, -3.425e-8
0.218, -3.410e-8
0.217, -3.407e-8
0.216, -3.393e-8
0.215, -3.385e-8
0.214, -3.379e-8
0.213, -3.364e-8
0.212, -3.360e-8
0.211, -3.345e-8
0.210, -3.336e-8
0.209, -3.328e-8
0.208, -3.312e-8
0.207, -3.307e-8
0.206, -3.292e-8
0.205, -3.281e-8
0.204, -3.271e-8
0.203, -3.254e-8
0.202, -3.249e-8
0.201, -3.231e-8
0.200, -3.220e-8
0.199, -3.209e-8
0.198, -3.191e-8
0.197, -3.183e-8
0.196, -3.164e-8
0.195, -3.152e-8
0.194, -3.140e-8
0.193, -3.119e-8
0.192, -3.110e-8
0.191, -3.088e-8
0.190, -3.074e-8
0.189, -3.060e-8
0.188, -3.036e-8
0.187, -3.025e-8
0.186, -3.002e-8
0.185, -2.985e-8
0.184, -2.968e-8
0.183, -2.942e-8
0.182, -2.929e-8
0.181, -2.902e-8
0.180, -2.882e-8
0.179, -2.863e-8
0.178, -2.834e-8
0.177, -2.817e-8
0.176, -2.789e-8
0.175, -2.764e-8
0.174, -2.743e-8
0.173, -2.710e-8
0.172, -2.689e-8
0.171, -2.657e-8
0.170, -2.629e-8
0.169, -2.603e-8
0.168, -2.566e-8
0.167, -2.540e-8
0.166, -2.504e-8
0.165, -2.472e-8
0.164, -2.440e-8
0.163, -2.400e-8
0.162, -2.369e-8
0.161, -2.327e-8
0.160, -2.290e-8
0.159, -2.252e-8
0.158, -2.206e-8
0.157, -2.170e-8
0.156, -2.122e-8
0.155, -2.079e-8
0.154, -2.036e-8
0.153, -1.983e-8
0.152, -1.941e-8
0.151, -1.887e-8
0.150, -1.839e-8
0.149, -1.790e-8
0.148, -1.730e-8
0.147, -1.682e-8
0.146, -1.621e-8
0.145, -1.565e-8
0.144, -1.509e-8
0.143, -1.442e-8
0.142, -1.386e-8
0.141, -1.318e-8
0.140, -1.252e-8
0.139, -1.191e-8
0.138, -1.117e-8
0.137, -1.054e-8
0.136, -9.795e-9
0.135, -9.068e-9
0.134, -8.392e-9
0.133, -7.566e-9
0.132, -6.838e-9
0.131, -6.044e-9
0.130, -5.231e-9
0.129, -4.467e-9
0.128, -3.592e-9
0.127, -2.805e-9
0.126, -1.949e-9
0.125, -1.085e-9
0.124, -2.502e-10
0.123, 6.776e-10
0.122, 1.531e-9
0.121, 2.450e-9
0.120, 3.365e-9
0.119, 4.252e-9
0.118, 5.193e-9
0.117, 6.097e-9
0.116, 7.068e-9
0.115, 8.007e-9
0.114, 8.940e-9
0.113, 9.912e-9
0.112, 1.082e-8
0.111, 1.181e-8
0.110, 1.273e-8
0.109, 1.367e-8
0.108, 1.466e-8
0.107, 1.555e-8
0.106, 1.655e-8
0.105, 1.747e-8
0.104, 1.838e-8
0.103, 1.938e-8
0.102, 2.026e-8
0.101, 2.118e-8
0.100, 2.208e-8
0.099, 2.290e-8
0.098, 2.384e-8
0.097, 2.463e-8
0.096, 2.549e-8
0.095, 2.634e-8
0.094, 2.709e-8
0.093, 2.793e-8
0.092, 2.866e-8
0.091, 2.942e-8
0.090, 3.019e-8
0.089, 3.084e-8
0.088, 3.156e-8
0.087, 3.222e-8
0.086, 3.284e-8
0.085, 3.348e-8
0.084, 3.405e-8
0.083, 3.463e-8
0.082, 3.515e-8
0.081, 3.570e-8
0.080, 3.618e-8
0.079, 3.661e-8
0.078, 3.709e-8
0.077, 3.750e-8
0.076, 3.791e-8
0.075, 3.825e-8
0.074, 3.857e-8
0.073, 3.891e-8
0.072, 3.915e-8
0.071, 3.945e-8
0.070, 3.968e-8
0.069, 3.985e-8
0.068, 4.011e-8
0.067, 4.022e-8
0.066, 4.040e-8
0.065, 4.051e-8
0.064, 4.058e-8
0.063, 4.074e-8
0.062, 4.071e-8
0.061, 4.079e-8
0.060, 4.082e-8
0.059, 4.077e-8
0.058, 4.083e-8
0.057, 4.072e-8
0.056, 4.071e-8
0.055, 4.066e-8
0.054, 4.052e-8
0.053, 4.050e-8
0.052, 4.035e-8
0.051, 4.026e-8
0.050, 4.013e-8
0.049, 3.992e-8
0.048, 3.983e-8
0.047, 3.962e-8
0.046, 3.946e-8
0.045, 3.928e-8
0.044, 3.906e-8
0.043, 3.890e-8
0.042, 3.864e-8
0.041, 3.846e-8
0.040, 3.824e-8
0.039, 3.799e-8
0.038, 3.780e-8
0.037, 3.752e-8
0.036, 3.731e-8
0.035, 3.706e-8
0.034, 3.678e-8
0.033, 3.659e-8
0.032, 3.627e-8
0.031, 3.606e-8
0.030, 3.580e-8
0.029, 3.550e-8
0.028, 3.531e-8
0.027, 3.500e-8
0.026, 3.478e-8
0.025, 3.452e-8
0.024, 3.422e-8
0.023, 3.403e-8
0.022, 3.370e-8
0.021, 3.348e-8
0.020, 3.323e-8
0.019, 3.292e-8
0.018, 3.274e-8
0.017, 3.243e-8
0.016, 3.220e-8
0.015, 3.195e-8
0.014, 3.166e-8
0.013, 3.148e-8
0.012, 3.119e-8
0.011, 3.097e-8
0.010, 3.074e-8
0.009, 3.045e-8
0.008, 3.029e-8
0.007, 3.000e-8
0.006, 2.980e-8
0.005, 2.958e-8
0.004, 2.932e-8
0.003, 2.915e-8
0.002, 2.888e-8
0.001, 2.870e-8
0.000, 2.854e-8
-0.001, 2.827e-8
-0.002, 2.811e-8
-0.003, 2.784e-8
-0.004, 2.768e-8
-0.005, 2.748e-8
-0.006, 2.724e-8
-0.007, 2.712e-8
-0.008, 2.686e-8
-0.009, 2.672e-8
-0.010, 2.653e-8
-0.011, 2.631e-8
-0.012, 2.620e-8
-0.013, 2.596e-8
-0.014, 2.583e-8
-0.015, 2.566e-8
-0.016, 2.545e-8
-0.017, 2.535e-8
-0.018, 2.513e-8
-0.019, 2.501e-8
-0.020, 2.487e-8
-0.021, 2.466e-8
-0.022, 2.458e-8
-0.023, 2.437e-8
-0.024, 2.426e-8
-0.025, 2.412e-8
-0.026, 2.394e-8
-0.027, 2.387e-8
-0.028, 2.368e-8
-0.029, 2.357e-8
-0.030, 2.346e-8
-0.031, 2.328e-8
-0.032, 2.322e-8
-0.033, 2.304e-8
-0.034, 2.295e-8
-0.035, 2.285e-8
-0.036, 2.269e-8
-0.037, 2.264e-8
-0.038, 2.247e-8
-0.039, 2.239e-8
-0.040, 2.230e-8
-0.041, 2.215e-8
-0.042, 2.212e-8
-0.043, 2.196e-8
-0.044, 2.190e-8
-0.045, 2.181e-8
-0.046, 2.167e-8
-0.047, 2.165e-8
-0.048, 2.149e-8
-0.049, 2.144e-8
-0.050, 2.136e-8
-0.051, 2.124e-8
-0.052, 2.123e-8
-0.053, 2.108e-8
-0.054, 2.104e-8
-0.055, 2.097e-8
-0.056, 2.085e-8
-0.057, 2.085e-8
-0.058, 2.072e-8
-0.059, 2.068e-8
-0.060, 2.063e-8
-0.061, 2.051e-8
-0.062, 2.052e-8
-0.063, 2.040e-8
-0.064, 2.036e-8
-0.065, 2.033e-8
-0.066, 2.021e-8
-0.067, 2.023e-8
-0.068, 2.012e-8
-0.069, 2.009e-8
-0.070, 2.006e-8
-0.071, 1.996e-8
-0.072, 1.999e-8
-0.073, 1.988e-8
-0.074, 1.987e-8
-0.075, 1.984e-8
-0.076, 1.975e-8
-0.077, 1.978e-8
-0.078, 1.969e-8
-0.079, 1.968e-8
-0.080, 1.965e-8
-0.081, 1.957e-8
-0.082, 1.961e-8
-0.083, 1.952e-8
-0.084, 1.952e-8
-0.085, 1.950e-8
-0.086, 1.943e-8
-0.087, 1.948e-8
-0.088, 1.939e-8
-0.089, 1.940e-8
-0.090, 1.940e-8
-0.091, 1.932e-8
-0.092, 1.938e-8
-0.093, 1.930e-8
-0.094, 1.931e-8
-0.095, 1.932e-8
-0.096, 1.925e-8
-0.097, 1.931e-8
-0.098, 1.924e-8
-0.099, 1.926e-8
-0.100, 1.927e-8
-0.101, 1.921e-8
-0.102, 1.928e-8
-0.103, 1.922e-8
-0.104, 1.924e-8
-0.105, 1.926e-8
-0.106, 1.921e-8
-0.107, 1.928e-8
-0.108, 1.923e-8
-0.109, 1.925e-8
-0.110, 1.928e-8
-0.111, 1.923e-8
-0.112, 1.930e-8
-0.113, 1.927e-8
-0.114, 1.930e-8
-0.115, 1.933e-8
-0.116, 1.929e-8
-0.117, 1.937e-8
-0.118, 1.933e-8
-0.119, 1.937e-8
-0.120, 1.941e-8
-0.121, 1.938e-8
-0.122, 1.946e-8
-0.123, 1.943e-8
-0.124, 1.948e-8
-0.125, 1.952e-8
-0.126, 1.949e-8
-0.127, 1.959e-8
-0.128, 1.957e-8
-0.129, 1.962e-8
-0.130, 1.967e-8
-0.131, 1.964e-8
-0.132, 1.975e-8
-0.133, 1.972e-8
-0.134, 1.978e-8
-0.135, 1.984e-8
-0.136, 1.982e-8
-0.137, 1.993e-8
-0.138, 1.992e-8
-0.139, 1.998e-8
-0.140, 2.005e-8
-0.141, 2.004e-8
-0.142, 2.015e-8
-0.143, 2.014e-8
-0.144, 2.021e-8
-0.145, 2.029e-8
-0.146, 2.027e-8
-0.147, 2.040e-8
-0.148, 2.040e-8
-0.149, 2.047e-8
-0.150, 2.055e-8
-0.151, 2.055e-8
-0.152, 2.068e-8
-0.153, 2.069e-8
-0.154, 2.077e-8
-0.155, 2.085e-8
-0.156, 2.086e-8
-0.157, 2.099e-8
-0.158, 2.101e-8
-0.159, 2.109e-8
-0.160, 2.118e-8
-0.161, 2.120e-8
-0.162, 2.134e-8
-0.163, 2.136e-8
-0.164, 2.145e-8
-0.165, 2.155e-8
-0.166, 2.158e-8
-0.167, 2.172e-8
-0.168, 2.175e-8
-0.169, 2.185e-8
-0.170, 2.195e-8
-0.171, 2.198e-8
-0.172, 2.214e-8
-0.173, 2.217e-8
-0.174, 2.227e-8
-0.175, 2.239e-8
-0.176, 2.242e-8
-0.177, 2.258e-8
-0.178, 2.262e-8
-0.179, 2.273e-8
-0.180, 2.286e-8
-0.181, 2.290e-8
-0.182, 2.306e-8
-0.183, 2.311e-8
-0.184, 2.323e-8
-0.185, 2.337e-8
-0.186, 2.341e-8
-0.187, 2.358e-8
-0.188, 2.365e-8
-0.189, 2.376e-8
-0.190, 2.391e-8
-0.191, 2.396e-8
-0.192, 2.414e-8
-0.193, 2.421e-8
-0.194, 2.434e-8
-0.195, 2.448e-8
-0.196, 2.455e-8
-0.197, 2.474e-8
-0.198, 2.482e-8
-0.199, 2.495e-8
