Mar. 16, 2023   10:08:23
Cyclic Voltammetry
File: c:/users/oliverrz/desktop/electrolab/data/2023_03_16\fcmeoh_macros_1_mm\electrode1_cv_150mvs_1_mm.bin
Data Source:  Experiment
Instrument Model:  CHI760E
Header: CV
Note: 

Init E (V) = -0.2
High E (V) = 0.3
Low E (V) = -0.2
Final E (V) = -0.2
Init P/N = P
Scan Rate (V/s) = 0.15
Segment = 3
Sample Interval (V) = 0.001
Quiet Time (sec) = 2
Sensitivity (A/V) = 1e-7

Results:

Channel 1:
Segment 1:
Ep = 0.129V
ip = -8.196e-8A
Ah = -3.443e-8C

Segment 2:
Ep = 0.068V
ip = 7.455e-8A
Ah = 2.964e-8C

Segment 3:

Potential/V, Current/A

-0.200, 6.477e-9
-0.199, 5.527e-9
-0.198, 5.386e-9
-0.197, 5.239e-9
-0.196, 5.041e-9
-0.195, 5.040e-9
-0.194, 4.847e-9
-0.193, 4.788e-9
-0.192, 4.706e-9
-0.191, 4.570e-9
-0.190, 4.567e-9
-0.189, 4.423e-9
-0.188, 4.392e-9
-0.187, 4.310e-9
-0.186, 4.197e-9
-0.185, 4.198e-9
-0.184, 4.056e-9
-0.183, 4.064e-9
-0.182, 3.963e-9
-0.181, 3.852e-9
-0.180, 3.889e-9
-0.179, 3.720e-9
-0.178, 3.732e-9
-0.177, 3.656e-9
-0.176, 3.558e-9
-0.175, 3.588e-9
-0.174, 3.427e-9
-0.173, 3.452e-9
-0.172, 3.378e-9
-0.171, 3.265e-9
-0.170, 3.318e-9
-0.169, 3.140e-9
-0.168, 3.182e-9
-0.167, 3.111e-9
-0.166, 2.981e-9
-0.165, 3.059e-9
-0.164, 2.901e-9
-0.163, 2.908e-9
-0.162, 2.869e-9
-0.161, 2.732e-9
-0.160, 2.802e-9
-0.159, 2.658e-9
-0.158, 2.663e-9
-0.157, 2.618e-9
-0.156, 2.506e-9
-0.155, 2.573e-9
-0.154, 2.410e-9
-0.153, 2.429e-9
-0.152, 2.390e-9
-0.151, 2.286e-9
-0.150, 2.333e-9
-0.149, 2.197e-9
-0.148, 2.218e-9
-0.147, 2.163e-9
-0.146, 2.075e-9
-0.145, 2.108e-9
-0.144, 1.986e-9
-0.143, 2.018e-9
-0.142, 1.946e-9
-0.141, 1.851e-9
-0.140, 1.912e-9
-0.139, 1.777e-9
-0.138, 1.807e-9
-0.137, 1.751e-9
-0.136, 1.654e-9
-0.135, 1.726e-9
-0.134, 1.573e-9
-0.133, 1.619e-9
-0.132, 1.550e-9
-0.131, 1.462e-9
-0.130, 1.534e-9
-0.129, 1.374e-9
-0.128, 1.422e-9
-0.127, 1.373e-9
-0.126, 1.269e-9
-0.125, 1.346e-9
-0.124, 1.206e-9
-0.123, 1.234e-9
-0.122, 1.199e-9
-0.121, 1.092e-9
-0.120, 1.171e-9
-0.119, 1.034e-9
-0.118, 1.053e-9
-0.117, 1.024e-9
-0.116, 9.280e-10
-0.115, 9.923e-10
-0.114, 8.592e-10
-0.113, 8.854e-10
-0.112, 8.546e-10
-0.111, 7.637e-10
-0.110, 8.155e-10
-0.109, 7.023e-10
-0.108, 7.285e-10
-0.107, 6.787e-10
-0.106, 6.115e-10
-0.105, 6.485e-10
-0.104, 5.400e-10
-0.103, 5.555e-10
-0.102, 5.043e-10
-0.101, 4.332e-10
-0.100, 4.999e-10
-0.099, 3.670e-10
-0.098, 4.208e-10
-0.097, 3.492e-10
-0.096, 2.845e-10
-0.095, 3.498e-10
-0.094, 2.072e-10
-0.093, 2.532e-10
-0.092, 2.090e-10
-0.091, 1.241e-10
-0.090, 1.908e-10
-0.089, 4.554e-11
-0.088, 1.104e-10
-0.087, 5.899e-11
-0.086, -3.546e-11
-0.085, 5.138e-11
-0.084, -9.548e-11
-0.083, -5.032e-11
-0.082, -8.048e-11
-0.081, -1.946e-10
-0.080, -9.659e-11
-0.079, -2.320e-10
-0.078, -2.128e-10
-0.077, -2.420e-10
-0.076, -3.324e-10
-0.075, -2.767e-10
-0.074, -3.903e-10
-0.073, -3.654e-10
-0.072, -3.892e-10
-0.071, -4.817e-10
-0.070, -4.355e-10
-0.069, -5.533e-10
-0.068, -5.134e-10
-0.067, -5.610e-10
-0.066, -6.406e-10
-0.065, -5.987e-10
-0.064, -7.170e-10
-0.063, -6.742e-10
-0.062, -7.437e-10
-0.061, -8.083e-10
-0.060, -7.584e-10
-0.059, -8.919e-10
-0.058, -8.440e-10
-0.057, -9.284e-10
-0.056, -9.850e-10
-0.055, -9.344e-10
-0.054, -1.082e-9
-0.053, -1.033e-9
-0.052, -1.110e-9
-0.051, -1.194e-9
-0.050, -1.127e-9
-0.049, -1.283e-9
-0.048, -1.241e-9
-0.047, -1.293e-9
-0.046, -1.408e-9
-0.045, -1.337e-9
-0.044, -1.497e-9
-0.043, -1.462e-9
-0.042, -1.532e-9
-0.041, -1.639e-9
-0.040, -1.578e-9
-0.039, -1.731e-9
-0.038, -1.727e-9
-0.037, -1.787e-9
-0.036, -1.894e-9
-0.035, -1.848e-9
-0.034, -2.012e-9
-0.033, -2.010e-9
-0.032, -2.060e-9
-0.031, -2.190e-9
-0.030, -2.175e-9
-0.029, -2.310e-9
-0.028, -2.327e-9
-0.027, -2.404e-9
-0.026, -2.526e-9
-0.025, -2.529e-9
-0.024, -2.676e-9
-0.023, -2.681e-9
-0.022, -2.808e-9
-0.021, -2.922e-9
-0.020, -2.903e-9
-0.019, -3.114e-9
-0.018, -3.109e-9
-0.017, -3.237e-9
-0.016, -3.379e-9
-0.015, -3.383e-9
-0.014, -3.591e-9
-0.013, -3.611e-9
-0.012, -3.751e-9
-0.011, -3.908e-9
-0.010, -3.918e-9
-0.009, -4.172e-9
-0.008, -4.189e-9
-0.007, -4.351e-9
-0.006, -4.543e-9
-0.005, -4.571e-9
-0.004, -4.834e-9
-0.003, -4.890e-9
-0.002, -5.067e-9
-0.001, -5.285e-9
-0.000, -5.457e-9
0.001, -5.628e-9
0.002, -5.753e-9
0.003, -5.934e-9
0.004, -6.159e-9
0.005, -6.274e-9
0.006, -6.561e-9
0.007, -6.708e-9
0.008, -6.922e-9
0.009, -7.204e-9
0.010, -7.353e-9
0.011, -7.675e-9
0.012, -7.870e-9
0.013, -8.133e-9
0.014, -8.430e-9
0.015, -8.641e-9
0.016, -8.961e-9
0.017, -9.210e-9
0.018, -9.551e-9
0.019, -9.867e-9
0.020, -1.013e-8
0.021, -1.054e-8
0.022, -1.078e-8
0.023, -1.121e-8
0.024, -1.156e-8
0.025, -1.188e-8
0.026, -1.238e-8
0.027, -1.269e-8
0.028, -1.313e-8
0.029, -1.360e-8
0.030, -1.394e-8
0.031, -1.450e-8
0.032, -1.486e-8
0.033, -1.541e-8
0.034, -1.593e-8
0.035, -1.635e-8
0.036, -1.699e-8
0.037, -1.743e-8
0.038, -1.803e-8
0.039, -1.865e-8
0.040, -1.913e-8
0.041, -1.984e-8
0.042, -2.041e-8
0.043, -2.105e-8
0.044, -2.176e-8
0.045, -2.236e-8
0.046, -2.309e-8
0.047, -2.378e-8
0.048, -2.452e-8
0.049, -2.528e-8
0.050, -2.602e-8
0.051, -2.686e-8
0.052, -2.761e-8
0.053, -2.846e-8
0.054, -2.927e-8
0.055, -3.014e-8
0.056, -3.102e-8
0.057, -3.188e-8
0.058, -3.282e-8
0.059, -3.373e-8
0.060, -3.468e-8
0.061, -3.563e-8
0.062, -3.656e-8
0.063, -3.763e-8
0.064, -3.861e-8
0.065, -3.961e-8
0.066, -4.072e-8
0.067, -4.166e-8
0.068, -4.280e-8
0.069, -4.385e-8
0.070, -4.486e-8
0.071, -4.607e-8
0.072, -4.706e-8
0.073, -4.824e-8
0.074, -4.936e-8
0.075, -5.043e-8
0.076, -5.165e-8
0.077, -5.271e-8
0.078, -5.389e-8
0.079, -5.507e-8
0.080, -5.613e-8
0.081, -5.729e-8
0.082, -5.842e-8
0.083, -5.954e-8
0.084, -6.072e-8
0.085, -6.177e-8
0.086, -6.290e-8
0.087, -6.404e-8
0.088, -6.510e-8
0.089, -6.619e-8
0.090, -6.728e-8
0.091, -6.828e-8
0.092, -6.935e-8
0.093, -7.037e-8
0.094, -7.137e-8
0.095, -7.234e-8
0.096, -7.327e-8
0.097, -7.420e-8
0.098, -7.518e-8
0.099, -7.597e-8
0.100, -7.691e-8
0.101, -7.769e-8
0.102, -7.850e-8
0.103, -7.939e-8
0.104, -8.007e-8
0.105, -8.076e-8
0.106, -8.147e-8
0.107, -8.205e-8
0.108, -8.277e-8
0.109, -8.331e-8
0.110, -8.382e-8
0.111, -8.444e-8
0.112, -8.482e-8
0.113, -8.535e-8
0.114, -8.581e-8
0.115, -8.616e-8
0.116, -8.657e-8
0.117, -8.683e-8
0.118, -8.715e-8
0.119, -8.747e-8
0.120, -8.761e-8
0.121, -8.789e-8
0.122, -8.803e-8
0.123, -8.816e-8
0.124, -8.835e-8
0.125, -8.836e-8
0.126, -8.843e-8
0.127, -8.850e-8
0.128, -8.852e-8
0.129, -8.852e-8
0.130, -8.845e-8
0.131, -8.839e-8
0.132, -8.831e-8
0.133, -8.820e-8
0.134, -8.806e-8
0.135, -8.794e-8
0.136, -8.776e-8
0.137, -8.755e-8
0.138, -8.740e-8
0.139, -8.714e-8
0.140, -8.692e-8
0.141, -8.671e-8
0.142, -8.637e-8
0.143, -8.620e-8
0.144, -8.586e-8
0.145, -8.552e-8
0.146, -8.531e-8
0.147, -8.487e-8
0.148, -8.461e-8
0.149, -8.428e-8
0.150, -8.387e-8
0.151, -8.364e-8
0.152, -8.317e-8
0.153, -8.287e-8
0.154, -8.255e-8
0.155, -8.211e-8
0.156, -8.182e-8
0.157, -8.136e-8
0.158, -8.101e-8
0.159, -8.068e-8
0.160, -8.018e-8
0.161, -7.990e-8
0.162, -7.946e-8
0.163, -7.908e-8
0.164, -7.874e-8
0.165, -7.827e-8
0.166, -7.796e-8
0.167, -7.752e-8
0.168, -7.715e-8
0.169, -7.679e-8
0.170, -7.635e-8
0.171, -7.604e-8
0.172, -7.560e-8
0.173, -7.525e-8
0.174, -7.490e-8
0.175, -7.448e-8
0.176, -7.417e-8
0.177, -7.374e-8
0.178, -7.343e-8
0.179, -7.307e-8
0.180, -7.265e-8
0.181, -7.238e-8
0.182, -7.193e-8
0.183, -7.167e-8
0.184, -7.131e-8
0.185, -7.089e-8
0.186, -7.068e-8
0.187, -7.023e-8
0.188, -6.995e-8
0.189, -6.966e-8
0.190, -6.925e-8
0.191, -6.904e-8
0.192, -6.863e-8
0.193, -6.837e-8
0.194, -6.809e-8
0.195, -6.770e-8
0.196, -6.751e-8
0.197, -6.713e-8
0.198, -6.688e-8
0.199, -6.663e-8
0.200, -6.625e-8
0.201, -6.608e-8
0.202, -6.574e-8
0.203, -6.549e-8
0.204, -6.527e-8
0.205, -6.493e-8
0.206, -6.475e-8
0.207, -6.444e-8
0.208, -6.420e-8
0.209, -6.397e-8
0.210, -6.368e-8
0.211, -6.352e-8
0.212, -6.319e-8
0.213, -6.301e-8
0.214, -6.279e-8
0.215, -6.250e-8
0.216, -6.235e-8
0.217, -6.206e-8
0.218, -6.188e-8
0.219, -6.168e-8
0.220, -6.140e-8
0.221, -6.129e-8
0.222, -6.098e-8
0.223, -6.086e-8
0.224, -6.064e-8
0.225, -6.038e-8
0.226, -6.031e-8
0.227, -6.001e-8
0.228, -5.987e-8
0.229, -5.972e-8
0.230, -5.945e-8
0.231, -5.940e-8
0.232, -5.911e-8
0.233, -5.898e-8
0.234, -5.885e-8
0.235, -5.860e-8
0.236, -5.853e-8
0.237, -5.827e-8
0.238, -5.816e-8
0.239, -5.803e-8
0.240, -5.778e-8
0.241, -5.774e-8
0.242, -5.750e-8
0.243, -5.739e-8
0.244, -5.728e-8
0.245, -5.705e-8
0.246, -5.700e-8
0.247, -5.680e-8
0.248, -5.668e-8
0.249, -5.656e-8
0.250, -5.638e-8
0.251, -5.633e-8
0.252, -5.612e-8
0.253, -5.603e-8
0.254, -5.592e-8
0.255, -5.573e-8
0.256, -5.570e-8
0.257, -5.549e-8
0.258, -5.543e-8
0.259, -5.532e-8
0.260, -5.514e-8
0.261, -5.512e-8
0.262, -5.491e-8
0.263, -5.487e-8
0.264, -5.476e-8
0.265, -5.457e-8
0.266, -5.460e-8
0.267, -5.436e-8
0.268, -5.433e-8
0.269, -5.425e-8
0.270, -5.406e-8
0.271, -5.410e-8
0.272, -5.388e-8
0.273, -5.384e-8
0.274, -5.379e-8
0.275, -5.361e-8
0.276, -5.362e-8
0.277, -5.345e-8
0.278, -5.340e-8
0.279, -5.335e-8
0.280, -5.317e-8
0.281, -5.322e-8
0.282, -5.305e-8
0.283, -5.300e-8
0.284, -5.296e-8
0.285, -5.280e-8
0.286, -5.282e-8
0.287, -5.268e-8
0.288, -5.263e-8
0.289, -5.258e-8
0.290, -5.246e-8
0.291, -5.247e-8
0.292, -5.232e-8
0.293, -5.231e-8
0.294, -5.225e-8
0.295, -5.213e-8
0.296, -5.216e-8
0.297, -5.200e-8
0.298, -5.201e-8
0.299, -5.195e-8
0.300, -4.908e-8
0.299, -4.749e-8
0.298, -4.700e-8
0.297, -4.674e-8
0.296, -4.651e-8
0.295, -4.619e-8
0.294, -4.609e-8
0.293, -4.581e-8
0.292, -4.566e-8
0.291, -4.551e-8
0.290, -4.527e-8
0.289, -4.520e-8
0.288, -4.496e-8
0.287, -4.485e-8
0.286, -4.473e-8
0.285, -4.452e-8
0.284, -4.447e-8
0.283, -4.425e-8
0.282, -4.417e-8
0.281, -4.403e-8
0.280, -4.386e-8
0.279, -4.384e-8
0.278, -4.361e-8
0.277, -4.357e-8
0.276, -4.344e-8
0.275, -4.328e-8
0.274, -4.326e-8
0.273, -4.303e-8
0.272, -4.300e-8
0.271, -4.289e-8
0.270, -4.271e-8
0.269, -4.272e-8
0.268, -4.250e-8
0.267, -4.248e-8
0.266, -4.238e-8
0.265, -4.220e-8
0.264, -4.222e-8
0.263, -4.201e-8
0.262, -4.197e-8
0.261, -4.189e-8
0.260, -4.170e-8
0.259, -4.173e-8
0.258, -4.153e-8
0.257, -4.148e-8
0.256, -4.141e-8
0.255, -4.123e-8
0.254, -4.125e-8
0.253, -4.106e-8
0.252, -4.101e-8
0.251, -4.095e-8
0.250, -4.079e-8
0.249, -4.078e-8
0.248, -4.061e-8
0.247, -4.056e-8
0.246, -4.048e-8
0.245, -4.033e-8
0.244, -4.031e-8
0.243, -4.013e-8
0.242, -4.010e-8
0.241, -3.999e-8
0.240, -3.985e-8
0.239, -3.985e-8
0.238, -3.964e-8
0.237, -3.962e-8
0.236, -3.952e-8
0.235, -3.937e-8
0.234, -3.937e-8
0.233, -3.915e-8
0.232, -3.914e-8
0.231, -3.902e-8
0.230, -3.887e-8
0.229, -3.887e-8
0.228, -3.864e-8
0.227, -3.862e-8
0.226, -3.852e-8
0.225, -3.833e-8
0.224, -3.835e-8
0.223, -3.812e-8
0.222, -3.807e-8
0.221, -3.798e-8
0.220, -3.777e-8
0.219, -3.777e-8
0.218, -3.755e-8
0.217, -3.749e-8
0.216, -3.737e-8
0.215, -3.718e-8
0.214, -3.716e-8
0.213, -3.693e-8
0.212, -3.685e-8
0.211, -3.674e-8
0.210, -3.653e-8
0.209, -3.648e-8
0.208, -3.625e-8
0.207, -3.615e-8
0.206, -3.601e-8
0.205, -3.578e-8
0.204, -3.571e-8
0.203, -3.548e-8
0.202, -3.537e-8
0.201, -3.518e-8
0.200, -3.498e-8
0.199, -3.489e-8
0.198, -3.460e-8
0.197, -3.449e-8
0.196, -3.428e-8
0.195, -3.404e-8
0.194, -3.394e-8
0.193, -3.362e-8
0.192, -3.346e-8
0.191, -3.324e-8
0.190, -3.296e-8
0.189, -3.282e-8
0.188, -3.248e-8
0.187, -3.231e-8
0.186, -3.205e-8
0.185, -3.172e-8
0.184, -3.157e-8
0.183, -3.118e-8
0.182, -3.097e-8
0.181, -3.066e-8
0.180, -3.028e-8
0.179, -3.009e-8
0.178, -2.966e-8
0.177, -2.938e-8
0.176, -2.908e-8
0.175, -2.865e-8
0.174, -2.838e-8
0.173, -2.794e-8
0.172, -2.760e-8
0.171, -2.722e-8
0.170, -2.677e-8
0.169, -2.643e-8
0.168, -2.592e-8
0.167, -2.553e-8
0.166, -2.507e-8
0.165, -2.457e-8
0.164, -2.414e-8
0.163, -2.361e-8
0.162, -2.313e-8
0.161, -2.260e-8
0.160, -2.204e-8
0.159, -2.154e-8
0.158, -2.091e-8
0.157, -2.040e-8
0.156, -1.975e-8
0.155, -1.913e-8
0.154, -1.857e-8
0.153, -1.780e-8
0.152, -1.726e-8
0.151, -1.654e-8
0.150, -1.581e-8
0.149, -1.517e-8
0.148, -1.433e-8
0.147, -1.368e-8
0.146, -1.289e-8
0.145, -1.205e-8
0.144, -1.135e-8
0.143, -1.045e-8
0.142, -9.654e-9
0.141, -8.792e-9
0.140, -7.846e-9
0.139, -7.079e-9
0.138, -6.067e-9
0.137, -5.211e-9
0.136, -4.262e-9
0.135, -3.267e-9
0.134, -2.363e-9
0.133, -1.345e-9
0.132, -3.264e-10
0.131, 6.352e-10
0.130, 1.718e-9
0.129, 2.763e-9
0.128, 3.864e-9
0.127, 4.884e-9
0.126, 6.006e-9
0.125, 7.043e-9
0.124, 8.181e-9
0.123, 9.293e-9
0.122, 1.034e-8
0.121, 1.155e-8
0.120, 1.264e-8
0.119, 1.376e-8
0.118, 1.495e-8
0.117, 1.601e-8
0.116, 1.726e-8
0.115, 1.834e-8
0.114, 1.948e-8
0.113, 2.066e-8
0.112, 2.171e-8
0.111, 2.289e-8
0.110, 2.401e-8
0.109, 2.507e-8
0.108, 2.630e-8
0.107, 2.724e-8
0.106, 2.838e-8
0.105, 2.947e-8
0.104, 3.045e-8
0.103, 3.159e-8
0.102, 3.257e-8
0.101, 3.355e-8
0.100, 3.458e-8
0.099, 3.543e-8
0.098, 3.644e-8
0.097, 3.731e-8
0.096, 3.819e-8
0.095, 3.910e-8
0.094, 3.986e-8
0.093, 4.068e-8
0.092, 4.146e-8
0.091, 4.218e-8
0.090, 4.295e-8
0.089, 4.361e-8
0.088, 4.426e-8
0.087, 4.490e-8
0.086, 4.547e-8
0.085, 4.606e-8
0.084, 4.661e-8
0.083, 4.706e-8
0.082, 4.754e-8
0.081, 4.803e-8
0.080, 4.836e-8
0.079, 4.878e-8
0.078, 4.915e-8
0.077, 4.942e-8
0.076, 4.979e-8
0.075, 4.995e-8
0.074, 5.017e-8
0.073, 5.043e-8
0.072, 5.052e-8
0.071, 5.068e-8
0.070, 5.079e-8
0.069, 5.082e-8
0.068, 5.101e-8
0.067, 5.089e-8
0.066, 5.099e-8
0.065, 5.100e-8
0.064, 5.088e-8
0.063, 5.093e-8
0.062, 5.076e-8
0.061, 5.068e-8
0.060, 5.063e-8
0.059, 5.039e-8
0.058, 5.032e-8
0.057, 5.010e-8
0.056, 4.993e-8
0.055, 4.976e-8
0.054, 4.947e-8
0.053, 4.933e-8
0.052, 4.905e-8
0.051, 4.881e-8
0.050, 4.855e-8
0.049, 4.826e-8
0.048, 4.800e-8
0.047, 4.768e-8
0.046, 4.739e-8
0.045, 4.709e-8
0.044, 4.676e-8
0.043, 4.649e-8
0.042, 4.610e-8
0.041, 4.582e-8
0.040, 4.551e-8
0.039, 4.511e-8
0.038, 4.486e-8
0.037, 4.443e-8
0.036, 4.414e-8
0.035, 4.379e-8
0.034, 4.338e-8
0.033, 4.315e-8
0.032, 4.268e-8
0.031, 4.240e-8
0.030, 4.208e-8
0.029, 4.163e-8
0.028, 4.141e-8
0.027, 4.096e-8
0.026, 4.066e-8
0.025, 4.035e-8
0.024, 3.990e-8
0.023, 3.966e-8
0.022, 3.925e-8
0.021, 3.891e-8
0.020, 3.864e-8
0.019, 3.820e-8
0.018, 3.797e-8
0.017, 3.759e-8
0.016, 3.725e-8
0.015, 3.699e-8
0.014, 3.660e-8
0.013, 3.637e-8
0.012, 3.600e-8
0.011, 3.569e-8
0.010, 3.543e-8
0.009, 3.504e-8
0.008, 3.485e-8
0.007, 3.448e-8
0.006, 3.421e-8
0.005, 3.395e-8
0.004, 3.361e-8
0.003, 3.340e-8
0.002, 3.306e-8
0.001, 3.282e-8
0.000, 3.268e-8
-0.001, 3.225e-8
-0.002, 3.208e-8
-0.003, 3.173e-8
-0.004, 3.151e-8
-0.005, 3.128e-8
-0.006, 3.094e-8
-0.007, 3.081e-8
-0.008, 3.048e-8
-0.009, 3.028e-8
-0.010, 3.009e-8
-0.011, 2.976e-8
-0.012, 2.966e-8
-0.013, 2.935e-8
-0.014, 2.914e-8
-0.015, 2.899e-8
-0.016, 2.867e-8
-0.017, 2.858e-8
-0.018, 2.829e-8
-0.019, 2.810e-8
-0.020, 2.797e-8
-0.021, 2.767e-8
-0.022, 2.758e-8
-0.023, 2.733e-8
-0.024, 2.715e-8
-0.025, 2.702e-8
-0.026, 2.675e-8
-0.027, 2.668e-8
-0.028, 2.644e-8
-0.029, 2.627e-8
-0.030, 2.613e-8
-0.031, 2.591e-8
-0.032, 2.584e-8
-0.033, 2.560e-8
-0.034, 2.547e-8
-0.035, 2.535e-8
-0.036, 2.512e-8
-0.037, 2.506e-8
-0.038, 2.484e-8
-0.039, 2.474e-8
-0.040, 2.462e-8
-0.041, 2.438e-8
-0.042, 2.437e-8
-0.043, 2.414e-8
-0.044, 2.404e-8
-0.045, 2.394e-8
-0.046, 2.372e-8
-0.047, 2.372e-8
-0.048, 2.350e-8
-0.049, 2.342e-8
-0.050, 2.333e-8
-0.051, 2.313e-8
-0.052, 2.313e-8
-0.053, 2.292e-8
-0.054, 2.284e-8
-0.055, 2.278e-8
-0.056, 2.257e-8
-0.057, 2.259e-8
-0.058, 2.240e-8
-0.059, 2.231e-8
-0.060, 2.227e-8
-0.061, 2.207e-8
-0.062, 2.208e-8
-0.063, 2.192e-8
-0.064, 2.185e-8
-0.065, 2.180e-8
-0.066, 2.162e-8
-0.067, 2.164e-8
-0.068, 2.148e-8
-0.069, 2.141e-8
-0.070, 2.137e-8
-0.071, 2.121e-8
-0.072, 2.123e-8
-0.073, 2.108e-8
-0.074, 2.103e-8
-0.075, 2.099e-8
-0.076, 2.084e-8
-0.077, 2.087e-8
-0.078, 2.071e-8
-0.079, 2.068e-8
-0.080, 2.064e-8
-0.081, 2.049e-8
-0.082, 2.054e-8
-0.083, 2.039e-8
-0.084, 2.037e-8
-0.085, 2.033e-8
-0.086, 2.017e-8
-0.087, 2.025e-8
-0.088, 2.010e-8
-0.089, 2.008e-8
-0.090, 2.005e-8
-0.091, 1.992e-8
-0.092, 2.000e-8
-0.093, 1.983e-8
-0.094, 1.982e-8
-0.095, 1.982e-8
-0.096, 1.967e-8
-0.097, 1.974e-8
-0.098, 1.962e-8
-0.099, 1.958e-8
-0.100, 1.961e-8
-0.101, 1.945e-8
-0.102, 1.954e-8
-0.103, 1.942e-8
-0.104, 1.940e-8
-0.105, 1.941e-8
-0.106, 1.928e-8
-0.107, 1.934e-8
-0.108, 1.925e-8
-0.109, 1.922e-8
-0.110, 1.923e-8
-0.111, 1.913e-8
-0.112, 1.919e-8
-0.113, 1.909e-8
-0.114, 1.909e-8
-0.115, 1.910e-8
-0.116, 1.899e-8
-0.117, 1.907e-8
-0.118, 1.896e-8
-0.119, 1.898e-8
-0.120, 1.898e-8
-0.121, 1.888e-8
-0.122, 1.897e-8
-0.123, 1.886e-8
-0.124, 1.889e-8
-0.125, 1.888e-8
-0.126, 1.878e-8
-0.127, 1.890e-8
-0.128, 1.878e-8
-0.129, 1.880e-8
-0.130, 1.883e-8
-0.131, 1.871e-8
-0.132, 1.883e-8
-0.133, 1.871e-8
-0.134, 1.875e-8
-0.135, 1.879e-8
-0.136, 1.867e-8
-0.137, 1.879e-8
-0.138, 1.870e-8
-0.139, 1.872e-8
-0.140, 1.876e-8
-0.141, 1.865e-8
-0.142, 1.877e-8
-0.143, 1.869e-8
-0.144, 1.871e-8
-0.145, 1.875e-8
-0.146, 1.866e-8
-0.147, 1.877e-8
-0.148, 1.871e-8
-0.149, 1.873e-8
-0.150, 1.876e-8
-0.151, 1.869e-8
-0.152, 1.880e-8
-0.153, 1.873e-8
-0.154, 1.877e-8
-0.155, 1.880e-8
-0.156, 1.874e-8
-0.157, 1.885e-8
-0.158, 1.877e-8
-0.159, 1.884e-8
-0.160, 1.885e-8
-0.161, 1.879e-8
-0.162, 1.892e-8
-0.163, 1.883e-8
-0.164, 1.892e-8
-0.165, 1.894e-8
-0.166, 1.887e-8
-0.167, 1.902e-8
-0.168, 1.893e-8
-0.169, 1.899e-8
-0.170, 1.904e-8
-0.171, 1.897e-8
-0.172, 1.913e-8
-0.173, 1.903e-8
-0.174, 1.911e-8
-0.175, 1.917e-8
-0.176, 1.909e-8
-0.177, 1.924e-8
-0.178, 1.918e-8
-0.179, 1.924e-8
-0.180, 1.932e-8
-0.181, 1.922e-8
-0.182, 1.938e-8
-0.183, 1.935e-8
-0.184, 1.938e-8
-0.185, 1.945e-8
-0.186, 1.940e-8
-0.187, 1.954e-8
-0.188, 1.951e-8
-0.189, 1.956e-8
-0.190, 1.963e-8
-0.191, 1.959e-8
-0.192, 1.974e-8
-0.193, 1.968e-8
-0.194, 1.976e-8
-0.195, 1.983e-8
-0.196, 1.979e-8
-0.197, 1.993e-8
-0.198, 1.989e-8
-0.199, 1.998e-8
