Mar. 16, 2023   10:11:13
Cyclic Voltammetry
File: c:/users/oliverrz/desktop/electrolab/data/2023_03_16\fcmeoh_macros_1_mm\electrode3_cv_200mvs_1_mm.bin
Data Source:  Experiment
Instrument Model:  CHI760E
Header: CV
Note: 

Init E (V) = -0.2
High E (V) = 0.3
Low E (V) = -0.2
Final E (V) = -0.2
Init P/N = P
Scan Rate (V/s) = 0.2
Segment = 3
Sample Interval (V) = 0.001
Quiet Time (sec) = 2
Sensitivity (A/V) = 1e-7

Results:

Channel 1:
Segment 1:
Ep = 0.119V
ip = -8.120e-8A
Ah = -2.369e-8C

Segment 2:
Ep = 0.059V
ip = 7.940e-8A
Ah = 2.543e-8C

Segment 3:

Potential/V, Current/A

-0.200, 2.589e-8
-0.199, 2.409e-8
-0.198, 2.333e-8
-0.197, 2.280e-8
-0.196, 2.255e-8
-0.195, 2.220e-8
-0.194, 2.167e-8
-0.193, 2.144e-8
-0.192, 2.124e-8
-0.191, 2.077e-8
-0.190, 2.044e-8
-0.189, 2.037e-8
-0.188, 1.992e-8
-0.187, 1.958e-8
-0.186, 1.950e-8
-0.185, 1.919e-8
-0.184, 1.878e-8
-0.183, 1.863e-8
-0.182, 1.847e-8
-0.181, 1.808e-8
-0.180, 1.779e-8
-0.179, 1.775e-8
-0.178, 1.739e-8
-0.177, 1.702e-8
-0.176, 1.702e-8
-0.175, 1.675e-8
-0.174, 1.632e-8
-0.173, 1.626e-8
-0.172, 1.608e-8
-0.171, 1.571e-8
-0.170, 1.550e-8
-0.169, 1.545e-8
-0.168, 1.511e-8
-0.167, 1.482e-8
-0.166, 1.475e-8
-0.165, 1.457e-8
-0.164, 1.415e-8
-0.163, 1.410e-8
-0.162, 1.398e-8
-0.161, 1.358e-8
-0.160, 1.342e-8
-0.159, 1.338e-8
-0.158, 1.305e-8
-0.157, 1.278e-8
-0.156, 1.275e-8
-0.155, 1.256e-8
-0.154, 1.219e-8
-0.153, 1.211e-8
-0.152, 1.203e-8
-0.151, 1.167e-8
-0.150, 1.147e-8
-0.149, 1.150e-8
-0.148, 1.116e-8
-0.147, 1.091e-8
-0.146, 1.092e-8
-0.145, 1.069e-8
-0.144, 1.037e-8
-0.143, 1.032e-8
-0.142, 1.020e-8
-0.141, 9.882e-9
-0.140, 9.691e-9
-0.139, 9.732e-9
-0.138, 9.420e-9
-0.137, 9.149e-9
-0.136, 9.196e-9
-0.135, 9.000e-9
-0.134, 8.642e-9
-0.133, 8.637e-9
-0.132, 8.517e-9
-0.131, 8.217e-9
-0.130, 8.059e-9
-0.129, 8.066e-9
-0.128, 7.770e-9
-0.127, 7.529e-9
-0.126, 7.545e-9
-0.125, 7.401e-9
-0.124, 7.041e-9
-0.123, 7.044e-9
-0.122, 6.974e-9
-0.121, 6.624e-9
-0.120, 6.516e-9
-0.119, 6.548e-9
-0.118, 6.236e-9
-0.117, 6.032e-9
-0.116, 6.044e-9
-0.115, 5.889e-9
-0.114, 5.581e-9
-0.113, 5.548e-9
-0.112, 5.506e-9
-0.111, 5.185e-9
-0.110, 5.047e-9
-0.109, 5.116e-9
-0.108, 4.797e-9
-0.107, 4.598e-9
-0.106, 4.667e-9
-0.105, 4.455e-9
-0.104, 4.184e-9
-0.103, 4.169e-9
-0.102, 4.078e-9
-0.101, 3.811e-9
-0.100, 3.669e-9
-0.099, 3.737e-9
-0.098, 3.472e-9
-0.097, 3.231e-9
-0.096, 3.314e-9
-0.095, 3.158e-9
-0.094, 2.826e-9
-0.093, 2.863e-9
-0.092, 2.769e-9
-0.091, 2.508e-9
-0.090, 2.383e-9
-0.089, 2.420e-9
-0.088, 2.186e-9
-0.087, 1.964e-9
-0.086, 2.012e-9
-0.085, 1.886e-9
-0.084, 1.549e-9
-0.083, 1.604e-9
-0.082, 1.544e-9
-0.081, 1.220e-9
-0.080, 1.139e-9
-0.079, 1.192e-9
-0.078, 9.082e-10
-0.077, 7.184e-10
-0.076, 7.612e-10
-0.075, 6.245e-10
-0.074, 3.323e-10
-0.073, 3.280e-10
-0.072, 3.035e-10
-0.071, 6.025e-12
-0.070, -1.253e-10
-0.069, -3.522e-11
-0.068, -3.246e-10
-0.067, -5.002e-10
-0.066, -4.422e-10
-0.065, -6.198e-10
-0.064, -8.922e-10
-0.063, -8.756e-10
-0.062, -9.399e-10
-0.061, -1.207e-9
-0.060, -1.328e-9
-0.059, -1.264e-9
-0.058, -1.520e-9
-0.057, -1.763e-9
-0.056, -1.657e-9
-0.055, -1.827e-9
-0.054, -2.143e-9
-0.053, -2.088e-9
-0.052, -2.195e-9
-0.051, -2.464e-9
-0.050, -2.572e-9
-0.049, -2.536e-9
-0.048, -2.773e-9
-0.047, -3.007e-9
-0.046, -2.959e-9
-0.045, -3.091e-9
-0.044, -3.424e-9
-0.043, -3.407e-9
-0.042, -3.454e-9
-0.041, -3.796e-9
-0.040, -3.871e-9
-0.039, -3.832e-9
-0.038, -4.143e-9
-0.037, -4.332e-9
-0.036, -4.305e-9
-0.035, -4.476e-9
-0.034, -4.795e-9
-0.033, -4.820e-9
-0.032, -4.871e-9
-0.031, -5.201e-9
-0.030, -5.346e-9
-0.029, -5.288e-9
-0.028, -5.643e-9
-0.027, -5.842e-9
-0.026, -5.832e-9
-0.025, -6.064e-9
-0.024, -6.346e-9
-0.023, -6.390e-9
-0.022, -6.506e-9
-0.021, -6.835e-9
-0.020, -7.021e-9
-0.019, -6.996e-9
-0.018, -7.340e-9
-0.017, -7.631e-9
-0.016, -7.599e-9
-0.015, -7.845e-9
-0.014, -8.252e-9
-0.013, -8.279e-9
-0.012, -8.459e-9
-0.011, -8.811e-9
-0.010, -9.001e-9
-0.009, -9.086e-9
-0.008, -9.440e-9
-0.007, -9.737e-9
-0.006, -9.804e-9
-0.005, -1.007e-8
-0.004, -1.052e-8
-0.003, -1.059e-8
-0.002, -1.082e-8
-0.001, -1.128e-8
-0.000, -1.168e-8
0.001, -1.167e-8
0.002, -1.211e-8
0.003, -1.245e-8
0.004, -1.258e-8
0.005, -1.295e-8
0.006, -1.341e-8
0.007, -1.361e-8
0.008, -1.389e-8
0.009, -1.440e-8
0.010, -1.474e-8
0.011, -1.493e-8
0.012, -1.550e-8
0.013, -1.594e-8
0.014, -1.614e-8
0.015, -1.664e-8
0.016, -1.717e-8
0.017, -1.748e-8
0.018, -1.789e-8
0.019, -1.848e-8
0.020, -1.895e-8
0.021, -1.925e-8
0.022, -1.989e-8
0.023, -2.050e-8
0.024, -2.080e-8
0.025, -2.142e-8
0.026, -2.215e-8
0.027, -2.256e-8
0.028, -2.313e-8
0.029, -2.385e-8
0.030, -2.444e-8
0.031, -2.495e-8
0.032, -2.568e-8
0.033, -2.644e-8
0.034, -2.695e-8
0.035, -2.769e-8
0.036, -2.859e-8
0.037, -2.916e-8
0.038, -2.989e-8
0.039, -3.085e-8
0.040, -3.156e-8
0.041, -3.223e-8
0.042, -3.321e-8
0.043, -3.414e-8
0.044, -3.486e-8
0.045, -3.574e-8
0.046, -3.680e-8
0.047, -3.762e-8
0.048, -3.849e-8
0.049, -3.960e-8
0.050, -4.060e-8
0.051, -4.144e-8
0.052, -4.265e-8
0.053, -4.370e-8
0.054, -4.459e-8
0.055, -4.576e-8
0.056, -4.694e-8
0.057, -4.792e-8
0.058, -4.906e-8
0.059, -5.028e-8
0.060, -5.147e-8
0.061, -5.243e-8
0.062, -5.379e-8
0.063, -5.509e-8
0.064, -5.602e-8
0.065, -5.743e-8
0.066, -5.870e-8
0.067, -5.983e-8
0.068, -6.109e-8
0.069, -6.242e-8
0.070, -6.368e-8
0.071, -6.486e-8
0.072, -6.617e-8
0.073, -6.752e-8
0.074, -6.860e-8
0.075, -6.993e-8
0.076, -7.139e-8
0.077, -7.251e-8
0.078, -7.372e-8
0.079, -7.509e-8
0.080, -7.626e-8
0.081, -7.739e-8
0.082, -7.875e-8
0.083, -7.995e-8
0.084, -8.106e-8
0.085, -8.223e-8
0.086, -8.347e-8
0.087, -8.455e-8
0.088, -8.556e-8
0.089, -8.681e-8
0.090, -8.788e-8
0.091, -8.873e-8
0.092, -8.995e-8
0.093, -9.087e-8
0.094, -9.169e-8
0.095, -9.275e-8
0.096, -9.365e-8
0.097, -9.445e-8
0.098, -9.527e-8
0.099, -9.614e-8
0.100, -9.692e-8
0.101, -9.745e-8
0.102, -9.835e-8
0.103, -9.910e-8
0.104, -9.947e-8
0.105, -1.002e-7
0.106, -1.007e-7
0.107, -1.011e-7
0.108, -1.016e-7
0.109, -1.021e-7
0.110, -1.025e-7
0.111, -1.028e-7
0.112, -1.031e-7
0.113, -1.035e-7
0.114, -1.036e-7
0.115, -1.039e-7
0.116, -1.042e-7
0.117, -1.042e-7
0.118, -1.043e-7
0.119, -1.045e-7
0.120, -1.044e-7
0.121, -1.044e-7
0.122, -1.045e-7
0.123, -1.045e-7
0.124, -1.043e-7
0.125, -1.042e-7
0.126, -1.042e-7
0.127, -1.040e-7
0.128, -1.038e-7
0.129, -1.037e-7
0.130, -1.035e-7
0.131, -1.030e-7
0.132, -1.030e-7
0.133, -1.027e-7
0.134, -1.022e-7
0.135, -1.021e-7
0.136, -1.018e-7
0.137, -1.013e-7
0.138, -1.010e-7
0.139, -1.007e-7
0.140, -1.003e-7
0.141, -9.978e-8
0.142, -9.953e-8
0.143, -9.919e-8
0.144, -9.853e-8
0.145, -9.820e-8
0.146, -9.791e-8
0.147, -9.730e-8
0.148, -9.685e-8
0.149, -9.653e-8
0.150, -9.603e-8
0.151, -9.547e-8
0.152, -9.509e-8
0.153, -9.473e-8
0.154, -9.407e-8
0.155, -9.364e-8
0.156, -9.336e-8
0.157, -9.267e-8
0.158, -9.220e-8
0.159, -9.189e-8
0.160, -9.135e-8
0.161, -9.076e-8
0.162, -9.043e-8
0.163, -9.000e-8
0.164, -8.938e-8
0.165, -8.897e-8
0.166, -8.866e-8
0.167, -8.807e-8
0.168, -8.756e-8
0.169, -8.726e-8
0.170, -8.679e-8
0.171, -8.615e-8
0.172, -8.591e-8
0.173, -8.549e-8
0.174, -8.487e-8
0.175, -8.455e-8
0.176, -8.421e-8
0.177, -8.366e-8
0.178, -8.323e-8
0.179, -8.297e-8
0.180, -8.253e-8
0.181, -8.197e-8
0.182, -8.173e-8
0.183, -8.141e-8
0.184, -8.080e-8
0.185, -8.049e-8
0.186, -8.029e-8
0.187, -7.971e-8
0.188, -7.936e-8
0.189, -7.913e-8
0.190, -7.871e-8
0.191, -7.824e-8
0.192, -7.802e-8
0.193, -7.775e-8
0.194, -7.722e-8
0.195, -7.693e-8
0.196, -7.678e-8
0.197, -7.626e-8
0.198, -7.592e-8
0.199, -7.579e-8
0.200, -7.540e-8
0.201, -7.495e-8
0.202, -7.483e-8
0.203, -7.456e-8
0.204, -7.411e-8
0.205, -7.388e-8
0.206, -7.377e-8
0.207, -7.331e-8
0.208, -7.299e-8
0.209, -7.290e-8
0.210, -7.259e-8
0.211, -7.216e-8
0.212, -7.208e-8
0.213, -7.187e-8
0.214, -7.142e-8
0.215, -7.127e-8
0.216, -7.117e-8
0.217, -7.077e-8
0.218, -7.051e-8
0.219, -7.043e-8
0.220, -7.017e-8
0.221, -6.977e-8
0.222, -6.972e-8
0.223, -6.959e-8
0.224, -6.916e-8
0.225, -6.901e-8
0.226, -6.899e-8
0.227, -6.859e-8
0.228, -6.839e-8
0.229, -6.836e-8
0.230, -6.813e-8
0.231, -6.779e-8
0.232, -6.776e-8
0.233, -6.763e-8
0.234, -6.726e-8
0.235, -6.715e-8
0.236, -6.716e-8
0.237, -6.677e-8
0.238, -6.661e-8
0.239, -6.663e-8
0.240, -6.638e-8
0.241, -6.610e-8
0.242, -6.612e-8
0.243, -6.599e-8
0.244, -6.568e-8
0.245, -6.559e-8
0.246, -6.560e-8
0.247, -6.530e-8
0.248, -6.512e-8
0.249, -6.516e-8
0.250, -6.499e-8
0.251, -6.468e-8
0.252, -6.474e-8
0.253, -6.466e-8
0.254, -6.433e-8
0.255, -6.432e-8
0.256, -6.434e-8
0.257, -6.406e-8
0.258, -6.393e-8
0.259, -6.399e-8
0.260, -6.383e-8
0.261, -6.356e-8
0.262, -6.362e-8
0.263, -6.360e-8
0.264, -6.329e-8
0.265, -6.327e-8
0.266, -6.335e-8
0.267, -6.306e-8
0.268, -6.298e-8
0.269, -6.306e-8
0.270, -6.291e-8
0.271, -6.272e-8
0.272, -6.277e-8
0.273, -6.274e-8
0.274, -6.251e-8
0.275, -6.249e-8
0.276, -6.258e-8
0.277, -6.234e-8
0.278, -6.224e-8
0.279, -6.240e-8
0.280, -6.224e-8
0.281, -6.206e-8
0.282, -6.217e-8
0.283, -6.216e-8
0.284, -6.192e-8
0.285, -6.196e-8
0.286, -6.206e-8
0.287, -6.186e-8
0.288, -6.178e-8
0.289, -6.193e-8
0.290, -6.185e-8
0.291, -6.164e-8
0.292, -6.181e-8
0.293, -6.182e-8
0.294, -6.160e-8
0.295, -6.168e-8
0.296, -6.179e-8
0.297, -6.159e-8
0.298, -6.157e-8
0.299, -6.172e-8
0.300, -5.818e-8
0.299, -5.511e-8
0.298, -5.453e-8
0.297, -5.399e-8
0.296, -5.333e-8
0.295, -5.296e-8
0.294, -5.272e-8
0.293, -5.218e-8
0.292, -5.180e-8
0.291, -5.167e-8
0.290, -5.129e-8
0.289, -5.083e-8
0.288, -5.074e-8
0.287, -5.050e-8
0.286, -5.004e-8
0.285, -4.988e-8
0.284, -4.975e-8
0.283, -4.935e-8
0.282, -4.910e-8
0.281, -4.905e-8
0.280, -4.877e-8
0.279, -4.838e-8
0.278, -4.836e-8
0.277, -4.820e-8
0.276, -4.778e-8
0.275, -4.769e-8
0.274, -4.764e-8
0.273, -4.725e-8
0.272, -4.708e-8
0.271, -4.705e-8
0.270, -4.679e-8
0.269, -4.648e-8
0.268, -4.645e-8
0.267, -4.635e-8
0.266, -4.599e-8
0.265, -4.587e-8
0.264, -4.589e-8
0.263, -4.552e-8
0.262, -4.536e-8
0.261, -4.538e-8
0.260, -4.512e-8
0.259, -4.485e-8
0.258, -4.487e-8
0.257, -4.473e-8
0.256, -4.440e-8
0.255, -4.433e-8
0.254, -4.433e-8
0.253, -4.400e-8
0.252, -4.382e-8
0.251, -4.388e-8
0.250, -4.365e-8
0.249, -4.335e-8
0.248, -4.341e-8
0.247, -4.327e-8
0.246, -4.295e-8
0.245, -4.290e-8
0.244, -4.288e-8
0.243, -4.257e-8
0.242, -4.243e-8
0.241, -4.244e-8
0.240, -4.226e-8
0.239, -4.196e-8
0.238, -4.200e-8
0.237, -4.189e-8
0.236, -4.154e-8
0.235, -4.151e-8
0.234, -4.151e-8
0.233, -4.116e-8
0.232, -4.104e-8
0.231, -4.105e-8
0.230, -4.084e-8
0.229, -4.057e-8
0.228, -4.057e-8
0.227, -4.051e-8
0.226, -4.015e-8
0.225, -4.008e-8
0.224, -4.011e-8
0.223, -3.974e-8
0.222, -3.961e-8
0.221, -3.963e-8
0.220, -3.938e-8
0.219, -3.911e-8
0.218, -3.912e-8
0.217, -3.899e-8
0.216, -3.865e-8
0.215, -3.857e-8
0.214, -3.857e-8
0.213, -3.821e-8
0.212, -3.802e-8
0.211, -3.805e-8
0.210, -3.779e-8
0.209, -3.748e-8
0.208, -3.751e-8
0.207, -3.732e-8
0.206, -3.696e-8
0.205, -3.686e-8
0.204, -3.681e-8
0.203, -3.645e-8
0.202, -3.625e-8
0.201, -3.622e-8
0.200, -3.594e-8
0.199, -3.560e-8
0.198, -3.556e-8
0.197, -3.538e-8
0.196, -3.496e-8
0.195, -3.488e-8
0.194, -3.476e-8
0.193, -3.434e-8
0.192, -3.410e-8
0.191, -3.401e-8
0.190, -3.369e-8
0.189, -3.333e-8
0.188, -3.321e-8
0.187, -3.300e-8
0.186, -3.254e-8
0.185, -3.234e-8
0.184, -3.220e-8
0.183, -3.170e-8
0.182, -3.142e-8
0.181, -3.128e-8
0.180, -3.084e-8
0.179, -3.041e-8
0.178, -3.024e-8
0.177, -2.991e-8
0.176, -2.939e-8
0.175, -2.912e-8
0.174, -2.889e-8
0.173, -2.833e-8
0.172, -2.791e-8
0.171, -2.772e-8
0.170, -2.720e-8
0.169, -2.665e-8
0.168, -2.640e-8
0.167, -2.594e-8
0.166, -2.531e-8
0.165, -2.495e-8
0.164, -2.456e-8
0.163, -2.392e-8
0.162, -2.341e-8
0.161, -2.303e-8
0.160, -2.242e-8
0.159, -2.173e-8
0.158, -2.134e-8
0.157, -2.078e-8
0.156, -1.997e-8
0.155, -1.950e-8
0.154, -1.894e-8
0.153, -1.814e-8
0.152, -1.750e-8
0.151, -1.694e-8
0.150, -1.618e-8
0.149, -1.536e-8
0.148, -1.474e-8
0.147, -1.404e-8
0.146, -1.310e-8
0.145, -1.239e-8
0.144, -1.173e-8
0.143, -1.070e-8
0.142, -9.893e-9
0.141, -9.166e-9
0.140, -8.153e-9
0.139, -7.187e-9
0.138, -6.404e-9
0.137, -5.482e-9
0.136, -4.377e-9
0.135, -3.462e-9
0.134, -2.585e-9
0.133, -1.425e-9
0.132, -3.844e-10
0.131, 4.917e-10
0.130, 1.689e-9
0.129, 2.861e-9
0.128, 3.845e-9
0.127, 4.984e-9
0.126, 6.233e-9
0.125, 7.278e-9
0.124, 8.395e-9
0.123, 9.691e-9
0.122, 1.085e-8
0.121, 1.196e-8
0.120, 1.324e-8
0.119, 1.457e-8
0.118, 1.562e-8
0.117, 1.687e-8
0.116, 1.833e-8
0.115, 1.943e-8
0.114, 2.067e-8
0.113, 2.209e-8
0.112, 2.327e-8
0.111, 2.449e-8
0.110, 2.580e-8
0.109, 2.709e-8
0.108, 2.832e-8
0.107, 2.949e-8
0.106, 3.095e-8
0.105, 3.207e-8
0.104, 3.323e-8
0.103, 3.470e-8
0.102, 3.585e-8
0.101, 3.692e-8
0.100, 3.820e-8
0.099, 3.936e-8
0.098, 4.045e-8
0.097, 4.157e-8
0.096, 4.279e-8
0.095, 4.379e-8
0.094, 4.480e-8
0.093, 4.598e-8
0.092, 4.698e-8
0.091, 4.783e-8
0.090, 4.892e-8
0.089, 4.991e-8
0.088, 5.065e-8
0.087, 5.156e-8
0.086, 5.251e-8
0.085, 5.319e-8
0.084, 5.395e-8
0.083, 5.480e-8
0.082, 5.548e-8
0.081, 5.607e-8
0.080, 5.674e-8
0.079, 5.750e-8
0.078, 5.789e-8
0.077, 5.846e-8
0.076, 5.917e-8
0.075, 5.941e-8
0.074, 5.983e-8
0.073, 6.036e-8
0.072, 6.065e-8
0.071, 6.094e-8
0.070, 6.127e-8
0.069, 6.158e-8
0.068, 6.176e-8
0.067, 6.186e-8
0.066, 6.225e-8
0.065, 6.227e-8
0.064, 6.228e-8
0.063, 6.258e-8
0.062, 6.258e-8
0.061, 6.246e-8
0.060, 6.262e-8
0.059, 6.263e-8
0.058, 6.245e-8
0.057, 6.239e-8
0.056, 6.246e-8
0.055, 6.226e-8
0.054, 6.200e-8
0.053, 6.204e-8
0.052, 6.189e-8
0.051, 6.153e-8
0.050, 6.145e-8
0.049, 6.133e-8
0.048, 6.092e-8
0.047, 6.070e-8
0.046, 6.061e-8
0.045, 6.019e-8
0.044, 5.989e-8
0.043, 5.971e-8
0.042, 5.941e-8
0.041, 5.898e-8
0.040, 5.873e-8
0.039, 5.856e-8
0.038, 5.804e-8
0.037, 5.769e-8
0.036, 5.758e-8
0.035, 5.705e-8
0.034, 5.665e-8
0.033, 5.649e-8
0.032, 5.608e-8
0.031, 5.559e-8
0.030, 5.532e-8
0.029, 5.503e-8
0.028, 5.458e-8
0.027, 5.417e-8
0.026, 5.401e-8
0.025, 5.354e-8
0.024, 5.306e-8
0.023, 5.290e-8
0.022, 5.251e-8
0.021, 5.199e-8
0.020, 5.179e-8
0.019, 5.148e-8
0.018, 5.099e-8
0.017, 5.065e-8
0.016, 5.048e-8
0.015, 5.005e-8
0.014, 4.959e-8
0.013, 4.946e-8
0.012, 4.914e-8
0.011, 4.859e-8
0.010, 4.840e-8
0.009, 4.821e-8
0.008, 4.769e-8
0.007, 4.740e-8
0.006, 4.727e-8
0.005, 4.685e-8
0.004, 4.648e-8
0.003, 4.635e-8
0.002, 4.606e-8
0.001, 4.563e-8
0.000, 4.560e-8
-0.001, 4.533e-8
-0.002, 4.488e-8
-0.003, 4.460e-8
-0.004, 4.456e-8
-0.005, 4.413e-8
-0.006, 4.382e-8
-0.007, 4.377e-8
-0.008, 4.350e-8
-0.009, 4.312e-8
-0.010, 4.300e-8
-0.011, 4.286e-8
-0.012, 4.250e-8
-0.013, 4.227e-8
-0.014, 4.226e-8
-0.015, 4.194e-8
-0.016, 4.161e-8
-0.017, 4.164e-8
-0.018, 4.140e-8
-0.019, 4.104e-8
-0.020, 4.102e-8
-0.021, 4.089e-8
-0.022, 4.056e-8
-0.023, 4.043e-8
-0.024, 4.041e-8
-0.025, 4.016e-8
-0.026, 3.989e-8
-0.027, 3.991e-8
-0.028, 3.978e-8
-0.029, 3.943e-8
-0.030, 3.942e-8
-0.031, 3.939e-8
-0.032, 3.907e-8
-0.033, 3.897e-8
-0.034, 3.902e-8
-0.035, 3.877e-8
-0.036, 3.859e-8
-0.037, 3.861e-8
-0.038, 3.852e-8
-0.039, 3.824e-8
-0.040, 3.825e-8
-0.041, 3.828e-8
-0.042, 3.799e-8
-0.043, 3.790e-8
-0.044, 3.803e-8
-0.045, 3.778e-8
-0.046, 3.761e-8
-0.047, 3.775e-8
-0.048, 3.763e-8
-0.049, 3.740e-8
-0.050, 3.746e-8
-0.051, 3.749e-8
-0.052, 3.728e-8
-0.053, 3.720e-8
-0.054, 3.734e-8
-0.055, 3.718e-8
-0.056, 3.702e-8
-0.057, 3.717e-8
-0.058, 3.711e-8
-0.059, 3.689e-8
-0.060, 3.702e-8
-0.061, 3.706e-8
-0.062, 3.684e-8
-0.063, 3.685e-8
-0.064, 3.701e-8
-0.065, 3.686e-8
-0.066, 3.675e-8
-0.067, 3.691e-8
-0.068, 3.693e-8
-0.069, 3.670e-8
-0.070, 3.684e-8
-0.071, 3.695e-8
-0.072, 3.675e-8
-0.073, 3.678e-8
-0.074, 3.698e-8
-0.075, 3.684e-8
-0.076, 3.679e-8
-0.077, 3.698e-8
-0.078, 3.698e-8
-0.079, 3.685e-8
-0.080, 3.699e-8
-0.081, 3.712e-8
-0.082, 3.697e-8
-0.083, 3.699e-8
-0.084, 3.726e-8
-0.085, 3.713e-8
-0.086, 3.709e-8
-0.087, 3.735e-8
-0.088, 3.735e-8
-0.089, 3.726e-8
-0.090, 3.744e-8
-0.091, 3.755e-8
-0.092, 3.749e-8
-0.093, 3.752e-8
-0.094, 3.779e-8
-0.095, 3.773e-8
-0.096, 3.769e-8
-0.097, 3.797e-8
-0.098, 3.801e-8
-0.099, 3.790e-8
-0.100, 3.817e-8
-0.101, 3.829e-8
-0.102, 3.825e-8
-0.103, 3.834e-8
-0.104, 3.860e-8
-0.105, 3.856e-8
-0.106, 3.857e-8
-0.107, 3.884e-8
-0.108, 3.896e-8
-0.109, 3.885e-8
-0.110, 3.911e-8
-0.111, 3.931e-8
-0.112, 3.923e-8
-0.113, 3.939e-8
-0.114, 3.969e-8
-0.115, 3.964e-8
-0.116, 3.972e-8
-0.117, 4.001e-8
-0.118, 4.010e-8
-0.119, 4.008e-8
-0.120, 4.034e-8
-0.121, 4.056e-8
-0.122, 4.052e-8
-0.123, 4.066e-8
-0.124, 4.104e-8
-0.125, 4.099e-8
-0.126, 4.107e-8
-0.127, 4.143e-8
-0.128, 4.153e-8
-0.129, 4.154e-8
-0.130, 4.181e-8
-0.131, 4.203e-8
-0.132, 4.206e-8
-0.133, 4.220e-8
-0.134, 4.256e-8
-0.135, 4.259e-8
-0.136, 4.268e-8
-0.137, 4.305e-8
-0.138, 4.318e-8
-0.139, 4.320e-8
-0.140, 4.354e-8
-0.141, 4.376e-8
-0.142, 4.378e-8
-0.143, 4.399e-8
-0.144, 4.435e-8
-0.145, 4.442e-8
-0.146, 4.452e-8
-0.147, 4.488e-8
-0.148, 4.510e-8
-0.149, 4.507e-8
-0.150, 4.544e-8
-0.151, 4.572e-8
-0.152, 4.575e-8
-0.153, 4.599e-8
-0.154, 4.637e-8
-0.155, 4.642e-8
-0.156, 4.660e-8
-0.157, 4.695e-8
-0.158, 4.715e-8
-0.159, 4.723e-8
-0.160, 4.755e-8
-0.161, 4.789e-8
-0.162, 4.794e-8
-0.163, 4.816e-8
-0.164, 4.860e-8
-0.165, 4.865e-8
-0.166, 4.885e-8
-0.167, 4.925e-8
-0.168, 4.945e-8
-0.169, 4.953e-8
-0.170, 4.990e-8
-0.171, 5.019e-8
-0.172, 5.031e-8
-0.173, 5.052e-8
-0.174, 5.097e-8
-0.175, 5.109e-8
-0.176, 5.122e-8
-0.177, 5.170e-8
-0.178, 5.190e-8
-0.179, 5.199e-8
-0.180, 5.240e-8
-0.181, 5.267e-8
-0.182, 5.279e-8
-0.183, 5.307e-8
-0.184, 5.350e-8
-0.185, 5.361e-8
-0.186, 5.380e-8
-0.187, 5.422e-8
-0.188, 5.449e-8
-0.189, 5.453e-8
-0.190, 5.498e-8
-0.191, 5.530e-8
-0.192, 5.540e-8
-0.193, 5.569e-8
-0.194, 5.614e-8
-0.195, 5.624e-8
-0.196, 5.648e-8
-0.197, 5.689e-8
-0.198, 5.713e-8
-0.199, 5.724e-8
