Mar. 16, 2023   10:13:53
Cyclic Voltammetry
File: c:/users/oliverrz/desktop/electrolab/data/2023_03_16\fcmeoh_macros_1_mm\electrode5_cv_200mvs_1_mm.bin
Data Source:  Experiment
Instrument Model:  CHI760E
Header: CV
Note: 

Init E (V) = -0.2
High E (V) = 0.3
Low E (V) = -0.2
Final E (V) = -0.2
Init P/N = P
Scan Rate (V/s) = 0.2
Segment = 3
Sample Interval (V) = 0.001
Quiet Time (sec) = 2
Sensitivity (A/V) = 1e-7

Results:

Channel 1:
Segment 1:
Ep = 0.119V
ip = -9.426e-8A
Ah = -2.850e-8C

Segment 2:
Ep = 0.059V
ip = 8.799e-8A
Ah = 2.703e-8C

Segment 3:

Potential/V, Current/A

-0.200, 1.092e-8
-0.199, 9.935e-9
-0.198, 9.579e-9
-0.197, 9.209e-9
-0.196, 9.140e-9
-0.195, 9.070e-9
-0.194, 8.726e-9
-0.193, 8.593e-9
-0.192, 8.643e-9
-0.191, 8.365e-9
-0.190, 8.112e-9
-0.189, 8.241e-9
-0.188, 8.041e-9
-0.187, 7.773e-9
-0.186, 7.802e-9
-0.185, 7.750e-9
-0.184, 7.466e-9
-0.183, 7.389e-9
-0.182, 7.441e-9
-0.181, 7.216e-9
-0.180, 7.004e-9
-0.179, 7.106e-9
-0.178, 6.972e-9
-0.177, 6.698e-9
-0.176, 6.756e-9
-0.175, 6.736e-9
-0.174, 6.432e-9
-0.173, 6.402e-9
-0.172, 6.461e-9
-0.171, 6.242e-9
-0.170, 6.064e-9
-0.169, 6.155e-9
-0.168, 6.051e-9
-0.167, 5.780e-9
-0.166, 5.837e-9
-0.165, 5.844e-9
-0.164, 5.548e-9
-0.163, 5.517e-9
-0.162, 5.603e-9
-0.161, 5.368e-9
-0.160, 5.217e-9
-0.159, 5.338e-9
-0.158, 5.199e-9
-0.157, 4.971e-9
-0.156, 5.034e-9
-0.155, 5.039e-9
-0.154, 4.765e-9
-0.153, 4.714e-9
-0.152, 4.832e-9
-0.151, 4.618e-9
-0.150, 4.435e-9
-0.149, 4.595e-9
-0.148, 4.457e-9
-0.147, 4.242e-9
-0.146, 4.314e-9
-0.145, 4.308e-9
-0.144, 4.070e-9
-0.143, 4.034e-9
-0.142, 4.127e-9
-0.141, 3.929e-9
-0.140, 3.757e-9
-0.139, 3.924e-9
-0.138, 3.807e-9
-0.137, 3.553e-9
-0.136, 3.663e-9
-0.135, 3.671e-9
-0.134, 3.414e-9
-0.133, 3.405e-9
-0.132, 3.508e-9
-0.131, 3.311e-9
-0.130, 3.161e-9
-0.129, 3.300e-9
-0.128, 3.195e-9
-0.127, 2.972e-9
-0.126, 3.059e-9
-0.125, 3.091e-9
-0.124, 2.831e-9
-0.123, 2.833e-9
-0.122, 2.941e-9
-0.121, 2.734e-9
-0.120, 2.609e-9
-0.119, 2.753e-9
-0.118, 2.643e-9
-0.117, 2.444e-9
-0.116, 2.512e-9
-0.115, 2.553e-9
-0.114, 2.315e-9
-0.113, 2.292e-9
-0.112, 2.428e-9
-0.111, 2.230e-9
-0.110, 2.083e-9
-0.109, 2.265e-9
-0.108, 2.134e-9
-0.107, 1.942e-9
-0.106, 2.034e-9
-0.105, 2.054e-9
-0.104, 1.833e-9
-0.103, 1.808e-9
-0.102, 1.917e-9
-0.101, 1.754e-9
-0.100, 1.605e-9
-0.099, 1.779e-9
-0.098, 1.683e-9
-0.097, 1.456e-9
-0.096, 1.570e-9
-0.095, 1.610e-9
-0.094, 1.341e-9
-0.093, 1.365e-9
-0.092, 1.475e-9
-0.091, 1.291e-9
-0.090, 1.162e-9
-0.089, 1.318e-9
-0.088, 1.231e-9
-0.087, 1.021e-9
-0.086, 1.108e-9
-0.085, 1.164e-9
-0.084, 9.077e-10
-0.083, 9.143e-10
-0.082, 1.037e-9
-0.081, 8.420e-10
-0.080, 7.204e-10
-0.079, 8.785e-10
-0.078, 7.721e-10
-0.077, 5.576e-10
-0.076, 6.606e-10
-0.075, 7.040e-10
-0.074, 4.471e-10
-0.073, 4.425e-10
-0.072, 5.826e-10
-0.071, 3.869e-10
-0.070, 2.411e-10
-0.069, 4.178e-10
-0.068, 2.957e-10
-0.067, 1.046e-10
-0.066, 2.015e-10
-0.065, 2.011e-10
-0.064, -1.435e-11
-0.063, -2.853e-11
-0.062, 7.770e-11
-0.061, -1.011e-10
-0.060, -2.505e-10
-0.059, -8.120e-11
-0.058, -1.890e-10
-0.057, -4.330e-10
-0.056, -3.086e-10
-0.055, -2.938e-10
-0.054, -5.591e-10
-0.053, -5.640e-10
-0.052, -4.695e-10
-0.051, -6.672e-10
-0.050, -8.057e-10
-0.049, -6.778e-10
-0.048, -7.769e-10
-0.047, -1.006e-9
-0.046, -9.334e-10
-0.045, -9.096e-10
-0.044, -1.193e-9
-0.043, -1.201e-9
-0.042, -1.112e-9
-0.041, -1.346e-9
-0.040, -1.481e-9
-0.039, -1.358e-9
-0.038, -1.503e-9
-0.037, -1.744e-9
-0.036, -1.681e-9
-0.035, -1.692e-9
-0.034, -1.962e-9
-0.033, -2.030e-9
-0.032, -1.936e-9
-0.031, -2.175e-9
-0.030, -2.372e-9
-0.029, -2.246e-9
-0.028, -2.427e-9
-0.027, -2.678e-9
-0.026, -2.650e-9
-0.025, -2.707e-9
-0.024, -2.985e-9
-0.023, -3.062e-9
-0.022, -3.043e-9
-0.021, -3.297e-9
-0.020, -3.528e-9
-0.019, -3.439e-9
-0.018, -3.625e-9
-0.017, -3.965e-9
-0.016, -3.925e-9
-0.015, -4.026e-9
-0.014, -4.376e-9
-0.013, -4.490e-9
-0.012, -4.516e-9
-0.011, -4.813e-9
-0.010, -5.074e-9
-0.009, -5.076e-9
-0.008, -5.301e-9
-0.007, -5.667e-9
-0.006, -5.741e-9
-0.005, -5.859e-9
-0.004, -6.280e-9
-0.003, -6.459e-9
-0.002, -6.520e-9
-0.001, -6.941e-9
-0.000, -7.387e-9
0.001, -7.351e-9
0.002, -7.681e-9
0.003, -8.083e-9
0.004, -8.249e-9
0.005, -8.471e-9
0.006, -8.949e-9
0.007, -9.233e-9
0.008, -9.377e-9
0.009, -9.856e-9
0.010, -1.030e-8
0.011, -1.044e-8
0.012, -1.090e-8
0.013, -1.141e-8
0.014, -1.167e-8
0.015, -1.203e-8
0.016, -1.261e-8
0.017, -1.300e-8
0.018, -1.331e-8
0.019, -1.388e-8
0.020, -1.448e-8
0.021, -1.475e-8
0.022, -1.531e-8
0.023, -1.602e-8
0.024, -1.639e-8
0.025, -1.692e-8
0.026, -1.767e-8
0.027, -1.820e-8
0.028, -1.868e-8
0.029, -1.941e-8
0.030, -2.013e-8
0.031, -2.065e-8
0.032, -2.133e-8
0.033, -2.220e-8
0.034, -2.279e-8
0.035, -2.346e-8
0.036, -2.441e-8
0.037, -2.512e-8
0.038, -2.581e-8
0.039, -2.679e-8
0.040, -2.766e-8
0.041, -2.834e-8
0.042, -2.929e-8
0.043, -3.032e-8
0.044, -3.113e-8
0.045, -3.202e-8
0.046, -3.316e-8
0.047, -3.412e-8
0.048, -3.495e-8
0.049, -3.612e-8
0.050, -3.723e-8
0.051, -3.814e-8
0.052, -3.934e-8
0.053, -4.053e-8
0.054, -4.154e-8
0.055, -4.268e-8
0.056, -4.396e-8
0.057, -4.511e-8
0.058, -4.617e-8
0.059, -4.749e-8
0.060, -4.883e-8
0.061, -4.986e-8
0.062, -5.120e-8
0.063, -5.259e-8
0.064, -5.373e-8
0.065, -5.503e-8
0.066, -5.643e-8
0.067, -5.766e-8
0.068, -5.894e-8
0.069, -6.032e-8
0.070, -6.170e-8
0.071, -6.289e-8
0.072, -6.427e-8
0.073, -6.567e-8
0.074, -6.689e-8
0.075, -6.818e-8
0.076, -6.965e-8
0.077, -7.093e-8
0.078, -7.211e-8
0.079, -7.357e-8
0.080, -7.479e-8
0.081, -7.590e-8
0.082, -7.728e-8
0.083, -7.853e-8
0.084, -7.971e-8
0.085, -8.079e-8
0.086, -8.208e-8
0.087, -8.327e-8
0.088, -8.421e-8
0.089, -8.548e-8
0.090, -8.659e-8
0.091, -8.745e-8
0.092, -8.859e-8
0.093, -8.953e-8
0.094, -9.043e-8
0.095, -9.134e-8
0.096, -9.226e-8
0.097, -9.313e-8
0.098, -9.379e-8
0.099, -9.468e-8
0.100, -9.549e-8
0.101, -9.601e-8
0.102, -9.677e-8
0.103, -9.757e-8
0.104, -9.792e-8
0.105, -9.851e-8
0.106, -9.910e-8
0.107, -9.950e-8
0.108, -9.988e-8
0.109, -1.003e-7
0.110, -1.007e-7
0.111, -1.009e-7
0.112, -1.012e-7
0.113, -1.016e-7
0.114, -1.017e-7
0.115, -1.018e-7
0.116, -1.021e-7
0.117, -1.022e-7
0.118, -1.021e-7
0.119, -1.024e-7
0.120, -1.023e-7
0.121, -1.022e-7
0.122, -1.022e-7
0.123, -1.022e-7
0.124, -1.020e-7
0.125, -1.018e-7
0.126, -1.018e-7
0.127, -1.017e-7
0.128, -1.013e-7
0.129, -1.012e-7
0.130, -1.011e-7
0.131, -1.006e-7
0.132, -1.004e-7
0.133, -1.002e-7
0.134, -9.974e-8
0.135, -9.946e-8
0.136, -9.916e-8
0.137, -9.883e-8
0.138, -9.830e-8
0.139, -9.805e-8
0.140, -9.777e-8
0.141, -9.717e-8
0.142, -9.683e-8
0.143, -9.656e-8
0.144, -9.593e-8
0.145, -9.552e-8
0.146, -9.523e-8
0.147, -9.471e-8
0.148, -9.413e-8
0.149, -9.382e-8
0.150, -9.342e-8
0.151, -9.280e-8
0.152, -9.235e-8
0.153, -9.207e-8
0.154, -9.147e-8
0.155, -9.095e-8
0.156, -9.065e-8
0.157, -9.013e-8
0.158, -8.951e-8
0.159, -8.923e-8
0.160, -8.878e-8
0.161, -8.815e-8
0.162, -8.775e-8
0.163, -8.742e-8
0.164, -8.683e-8
0.165, -8.633e-8
0.166, -8.603e-8
0.167, -8.557e-8
0.168, -8.493e-8
0.169, -8.465e-8
0.170, -8.428e-8
0.171, -8.364e-8
0.172, -8.329e-8
0.173, -8.299e-8
0.174, -8.241e-8
0.175, -8.199e-8
0.176, -8.170e-8
0.177, -8.127e-8
0.178, -8.072e-8
0.179, -8.045e-8
0.180, -8.014e-8
0.181, -7.954e-8
0.182, -7.918e-8
0.183, -7.900e-8
0.184, -7.842e-8
0.185, -7.799e-8
0.186, -7.782e-8
0.187, -7.737e-8
0.188, -7.688e-8
0.189, -7.666e-8
0.190, -7.637e-8
0.191, -7.585e-8
0.192, -7.554e-8
0.193, -7.538e-8
0.194, -7.488e-8
0.195, -7.449e-8
0.196, -7.436e-8
0.197, -7.399e-8
0.198, -7.351e-8
0.199, -7.337e-8
0.200, -7.309e-8
0.201, -7.262e-8
0.202, -7.236e-8
0.203, -7.224e-8
0.204, -7.179e-8
0.205, -7.147e-8
0.206, -7.134e-8
0.207, -7.104e-8
0.208, -7.058e-8
0.209, -7.047e-8
0.210, -7.028e-8
0.211, -6.979e-8
0.212, -6.959e-8
0.213, -6.952e-8
0.214, -6.908e-8
0.215, -6.882e-8
0.216, -6.871e-8
0.217, -6.845e-8
0.218, -6.804e-8
0.219, -6.796e-8
0.220, -6.781e-8
0.221, -6.737e-8
0.222, -6.720e-8
0.223, -6.717e-8
0.224, -6.676e-8
0.225, -6.651e-8
0.226, -6.648e-8
0.227, -6.622e-8
0.228, -6.585e-8
0.229, -6.582e-8
0.230, -6.567e-8
0.231, -6.530e-8
0.232, -6.513e-8
0.233, -6.512e-8
0.234, -6.476e-8
0.235, -6.453e-8
0.236, -6.453e-8
0.237, -6.430e-8
0.238, -6.394e-8
0.239, -6.396e-8
0.240, -6.381e-8
0.241, -6.347e-8
0.242, -6.335e-8
0.243, -6.336e-8
0.244, -6.302e-8
0.245, -6.280e-8
0.246, -6.283e-8
0.247, -6.264e-8
0.248, -6.229e-8
0.249, -6.231e-8
0.250, -6.223e-8
0.251, -6.186e-8
0.252, -6.178e-8
0.253, -6.181e-8
0.254, -6.148e-8
0.255, -6.132e-8
0.256, -6.134e-8
0.257, -6.116e-8
0.258, -6.086e-8
0.259, -6.089e-8
0.260, -6.083e-8
0.261, -6.049e-8
0.262, -6.041e-8
0.263, -6.049e-8
0.264, -6.016e-8
0.265, -6.001e-8
0.266, -6.007e-8
0.267, -5.988e-8
0.268, -5.962e-8
0.269, -5.966e-8
0.270, -5.959e-8
0.271, -5.930e-8
0.272, -5.921e-8
0.273, -5.929e-8
0.274, -5.903e-8
0.275, -5.885e-8
0.276, -5.894e-8
0.277, -5.878e-8
0.278, -5.850e-8
0.279, -5.859e-8
0.280, -5.852e-8
0.281, -5.824e-8
0.282, -5.820e-8
0.283, -5.827e-8
0.284, -5.802e-8
0.285, -5.786e-8
0.286, -5.794e-8
0.287, -5.783e-8
0.288, -5.754e-8
0.289, -5.763e-8
0.290, -5.761e-8
0.291, -5.730e-8
0.292, -5.729e-8
0.293, -5.738e-8
0.294, -5.711e-8
0.295, -5.701e-8
0.296, -5.708e-8
0.297, -5.696e-8
0.298, -5.672e-8
0.299, -5.679e-8
0.300, -5.399e-8
0.299, -5.150e-8
0.298, -5.102e-8
0.297, -5.082e-8
0.296, -5.034e-8
0.295, -5.000e-8
0.294, -4.992e-8
0.293, -4.965e-8
0.292, -4.923e-8
0.291, -4.922e-8
0.290, -4.906e-8
0.289, -4.866e-8
0.288, -4.855e-8
0.287, -4.853e-8
0.286, -4.819e-8
0.285, -4.799e-8
0.284, -4.798e-8
0.283, -4.781e-8
0.282, -4.747e-8
0.281, -4.748e-8
0.280, -4.740e-8
0.279, -4.707e-8
0.278, -4.698e-8
0.277, -4.701e-8
0.276, -4.667e-8
0.275, -4.652e-8
0.274, -4.658e-8
0.273, -4.638e-8
0.272, -4.610e-8
0.271, -4.613e-8
0.270, -4.607e-8
0.269, -4.575e-8
0.268, -4.567e-8
0.267, -4.575e-8
0.266, -4.544e-8
0.265, -4.528e-8
0.264, -4.535e-8
0.263, -4.519e-8
0.262, -4.490e-8
0.261, -4.497e-8
0.260, -4.488e-8
0.259, -4.461e-8
0.258, -4.455e-8
0.257, -4.460e-8
0.256, -4.433e-8
0.255, -4.416e-8
0.254, -4.426e-8
0.253, -4.412e-8
0.252, -4.380e-8
0.251, -4.390e-8
0.250, -4.384e-8
0.249, -4.354e-8
0.248, -4.350e-8
0.247, -4.357e-8
0.246, -4.328e-8
0.245, -4.314e-8
0.244, -4.321e-8
0.243, -4.307e-8
0.242, -4.279e-8
0.241, -4.285e-8
0.240, -4.282e-8
0.239, -4.251e-8
0.238, -4.247e-8
0.237, -4.255e-8
0.236, -4.224e-8
0.235, -4.213e-8
0.234, -4.219e-8
0.233, -4.202e-8
0.232, -4.176e-8
0.231, -4.181e-8
0.230, -4.176e-8
0.229, -4.146e-8
0.228, -4.140e-8
0.227, -4.148e-8
0.226, -4.118e-8
0.225, -4.102e-8
0.224, -4.110e-8
0.223, -4.092e-8
0.222, -4.065e-8
0.221, -4.071e-8
0.220, -4.062e-8
0.219, -4.032e-8
0.218, -4.025e-8
0.217, -4.030e-8
0.216, -4.001e-8
0.215, -3.983e-8
0.214, -3.989e-8
0.213, -3.972e-8
0.212, -3.939e-8
0.211, -3.945e-8
0.210, -3.936e-8
0.209, -3.901e-8
0.208, -3.894e-8
0.207, -3.895e-8
0.206, -3.863e-8
0.205, -3.843e-8
0.204, -3.844e-8
0.203, -3.826e-8
0.202, -3.793e-8
0.201, -3.792e-8
0.200, -3.782e-8
0.199, -3.744e-8
0.198, -3.733e-8
0.197, -3.733e-8
0.196, -3.695e-8
0.195, -3.674e-8
0.194, -3.671e-8
0.193, -3.645e-8
0.192, -3.609e-8
0.191, -3.605e-8
0.190, -3.588e-8
0.189, -3.549e-8
0.188, -3.529e-8
0.187, -3.525e-8
0.186, -3.484e-8
0.185, -3.455e-8
0.184, -3.448e-8
0.183, -3.417e-8
0.182, -3.374e-8
0.181, -3.364e-8
0.180, -3.338e-8
0.179, -3.292e-8
0.178, -3.268e-8
0.177, -3.253e-8
0.176, -3.207e-8
0.175, -3.168e-8
0.174, -3.152e-8
0.173, -3.115e-8
0.172, -3.059e-8
0.171, -3.043e-8
0.170, -3.008e-8
0.169, -2.951e-8
0.168, -2.918e-8
0.167, -2.891e-8
0.166, -2.833e-8
0.165, -2.788e-8
0.164, -2.756e-8
0.163, -2.710e-8
0.162, -2.645e-8
0.161, -2.610e-8
0.160, -2.567e-8
0.159, -2.495e-8
0.158, -2.449e-8
0.157, -2.409e-8
0.156, -2.333e-8
0.155, -2.276e-8
0.154, -2.229e-8
0.153, -2.163e-8
0.152, -2.087e-8
0.151, -2.036e-8
0.150, -1.975e-8
0.149, -1.891e-8
0.148, -1.823e-8
0.147, -1.771e-8
0.146, -1.679e-8
0.145, -1.600e-8
0.144, -1.539e-8
0.143, -1.450e-8
0.142, -1.357e-8
0.141, -1.286e-8
0.140, -1.201e-8
0.139, -1.103e-8
0.138, -1.015e-8
0.137, -9.363e-9
0.136, -8.282e-9
0.135, -7.260e-9
0.134, -6.453e-9
0.133, -5.401e-9
0.132, -4.199e-9
0.131, -3.390e-9
0.130, -2.303e-9
0.129, -1.045e-9
0.128, 1.114e-11
0.127, 1.024e-9
0.126, 2.268e-9
0.125, 3.440e-9
0.124, 4.526e-9
0.123, 5.691e-9
0.122, 7.071e-9
0.121, 8.141e-9
0.120, 9.333e-9
0.119, 1.079e-8
0.118, 1.197e-8
0.117, 1.311e-8
0.116, 1.463e-8
0.115, 1.584e-8
0.114, 1.707e-8
0.113, 1.842e-8
0.112, 1.984e-8
0.111, 2.109e-8
0.110, 2.235e-8
0.109, 2.383e-8
0.108, 2.512e-8
0.107, 2.630e-8
0.106, 2.784e-8
0.105, 2.911e-8
0.104, 3.034e-8
0.103, 3.174e-8
0.102, 3.316e-8
0.101, 3.433e-8
0.100, 3.561e-8
0.099, 3.696e-8
0.098, 3.819e-8
0.097, 3.932e-8
0.096, 4.061e-8
0.095, 4.188e-8
0.094, 4.291e-8
0.093, 4.413e-8
0.092, 4.542e-8
0.091, 4.630e-8
0.090, 4.743e-8
0.089, 4.863e-8
0.088, 4.953e-8
0.087, 5.054e-8
0.086, 5.154e-8
0.085, 5.242e-8
0.084, 5.334e-8
0.083, 5.408e-8
0.082, 5.510e-8
0.081, 5.574e-8
0.080, 5.646e-8
0.079, 5.743e-8
0.078, 5.795e-8
0.077, 5.853e-8
0.076, 5.935e-8
0.075, 5.979e-8
0.074, 6.026e-8
0.073, 6.080e-8
0.072, 6.135e-8
0.071, 6.170e-8
0.070, 6.197e-8
0.069, 6.248e-8
0.068, 6.277e-8
0.067, 6.288e-8
0.066, 6.330e-8
0.065, 6.350e-8
0.064, 6.358e-8
0.063, 6.379e-8
0.062, 6.396e-8
0.061, 6.391e-8
0.060, 6.397e-8
0.059, 6.410e-8
0.058, 6.405e-8
0.057, 6.388e-8
0.056, 6.397e-8
0.055, 6.390e-8
0.054, 6.364e-8
0.053, 6.357e-8
0.052, 6.357e-8
0.051, 6.319e-8
0.050, 6.299e-8
0.049, 6.295e-8
0.048, 6.260e-8
0.047, 6.227e-8
0.046, 6.213e-8
0.045, 6.184e-8
0.044, 6.143e-8
0.043, 6.115e-8
0.042, 6.096e-8
0.041, 6.047e-8
0.040, 6.007e-8
0.039, 5.993e-8
0.038, 5.947e-8
0.037, 5.896e-8
0.036, 5.879e-8
0.035, 5.835e-8
0.034, 5.784e-8
0.033, 5.748e-8
0.032, 5.720e-8
0.031, 5.667e-8
0.030, 5.619e-8
0.029, 5.595e-8
0.028, 5.550e-8
0.027, 5.491e-8
0.026, 5.467e-8
0.025, 5.428e-8
0.024, 5.367e-8
0.023, 5.331e-8
0.022, 5.304e-8
0.021, 5.244e-8
0.020, 5.200e-8
0.019, 5.175e-8
0.018, 5.126e-8
0.017, 5.070e-8
0.016, 5.044e-8
0.015, 5.006e-8
0.014, 4.950e-8
0.013, 4.913e-8
0.012, 4.891e-8
0.011, 4.830e-8
0.010, 4.788e-8
0.009, 4.768e-8
0.008, 4.721e-8
0.007, 4.667e-8
0.006, 4.644e-8
0.005, 4.609e-8
0.004, 4.557e-8
0.003, 4.523e-8
0.002, 4.503e-8
0.001, 4.453e-8
0.000, 4.423e-8
-0.001, 4.399e-8
-0.002, 4.356e-8
-0.003, 4.304e-8
-0.004, 4.290e-8
-0.005, 4.257e-8
-0.006, 4.207e-8
-0.007, 4.181e-8
-0.008, 4.164e-8
-0.009, 4.117e-8
-0.010, 4.078e-8
-0.011, 4.068e-8
-0.012, 4.032e-8
-0.013, 3.984e-8
-0.014, 3.972e-8
-0.015, 3.947e-8
-0.016, 3.899e-8
-0.017, 3.879e-8
-0.018, 3.865e-8
-0.019, 3.822e-8
-0.020, 3.792e-8
-0.021, 3.784e-8
-0.022, 3.751e-8
-0.023, 3.710e-8
-0.024, 3.701e-8
-0.025, 3.683e-8
-0.026, 3.639e-8
-0.027, 3.620e-8
-0.028, 3.616e-8
-0.029, 3.572e-8
-0.030, 3.545e-8
-0.031, 3.545e-8
-0.032, 3.514e-8
-0.033, 3.478e-8
-0.034, 3.474e-8
-0.035, 3.455e-8
-0.036, 3.419e-8
-0.037, 3.403e-8
-0.038, 3.400e-8
-0.039, 3.364e-8
-0.040, 3.339e-8
-0.041, 3.342e-8
-0.042, 3.316e-8
-0.043, 3.280e-8
-0.044, 3.283e-8
-0.045, 3.266e-8
-0.046, 3.231e-8
-0.047, 3.222e-8
-0.048, 3.220e-8
-0.049, 3.188e-8
-0.050, 3.167e-8
-0.051, 3.170e-8
-0.052, 3.150e-8
-0.053, 3.116e-8
-0.054, 3.120e-8
-0.055, 3.110e-8
-0.056, 3.077e-8
-0.057, 3.069e-8
-0.058, 3.071e-8
-0.059, 3.039e-8
-0.060, 3.024e-8
-0.061, 3.029e-8
-0.062, 3.010e-8
-0.063, 2.982e-8
-0.064, 2.987e-8
-0.065, 2.980e-8
-0.066, 2.949e-8
-0.067, 2.942e-8
-0.068, 2.950e-8
-0.069, 2.919e-8
-0.070, 2.905e-8
-0.071, 2.914e-8
-0.072, 2.896e-8
-0.073, 2.871e-8
-0.074, 2.879e-8
-0.075, 2.871e-8
-0.076, 2.846e-8
-0.077, 2.841e-8
-0.078, 2.847e-8
-0.079, 2.823e-8
-0.080, 2.807e-8
-0.081, 2.821e-8
-0.082, 2.804e-8
-0.083, 2.779e-8
-0.084, 2.794e-8
-0.085, 2.785e-8
-0.086, 2.760e-8
-0.087, 2.760e-8
-0.088, 2.768e-8
-0.089, 2.744e-8
-0.090, 2.733e-8
-0.091, 2.746e-8
-0.092, 2.734e-8
-0.093, 2.708e-8
-0.094, 2.722e-8
-0.095, 2.720e-8
-0.096, 2.694e-8
-0.097, 2.696e-8
-0.098, 2.706e-8
-0.099, 2.683e-8
-0.100, 2.675e-8
-0.101, 2.688e-8
-0.102, 2.678e-8
-0.103, 2.658e-8
-0.104, 2.668e-8
-0.105, 2.669e-8
-0.106, 2.647e-8
-0.107, 2.648e-8
-0.108, 2.660e-8
-0.109, 2.639e-8
-0.110, 2.630e-8
-0.111, 2.648e-8
-0.112, 2.637e-8
-0.113, 2.619e-8
-0.114, 2.633e-8
-0.115, 2.634e-8
-0.116, 2.614e-8
-0.117, 2.615e-8
-0.118, 2.628e-8
-0.119, 2.611e-8
-0.120, 2.603e-8
-0.121, 2.622e-8
-0.122, 2.611e-8
-0.123, 2.593e-8
-0.124, 2.613e-8
-0.125, 2.611e-8
-0.126, 2.593e-8
-0.127, 2.599e-8
-0.128, 2.613e-8
-0.129, 2.595e-8
-0.130, 2.590e-8
-0.131, 2.608e-8
-0.132, 2.602e-8
-0.133, 2.584e-8
-0.134, 2.603e-8
-0.135, 2.606e-8
-0.136, 2.586e-8
-0.137, 2.594e-8
-0.138, 2.610e-8
-0.139, 2.593e-8
-0.140, 2.591e-8
-0.141, 2.610e-8
-0.142, 2.604e-8
-0.143, 2.589e-8
-0.144, 2.607e-8
-0.145, 2.613e-8
-0.146, 2.595e-8
-0.147, 2.601e-8
-0.148, 2.622e-8
-0.149, 2.605e-8
-0.150, 2.601e-8
-0.151, 2.626e-8
-0.152, 2.618e-8
-0.153, 2.607e-8
-0.154, 2.626e-8
-0.155, 2.632e-8
-0.156, 2.618e-8
-0.157, 2.625e-8
-0.158, 2.645e-8
-0.159, 2.631e-8
-0.160, 2.628e-8
-0.161, 2.654e-8
-0.162, 2.649e-8
-0.163, 2.635e-8
-0.164, 2.660e-8
-0.165, 2.664e-8
-0.166, 2.651e-8
-0.167, 2.663e-8
-0.168, 2.681e-8
-0.169, 2.670e-8
-0.170, 2.669e-8
-0.171, 2.693e-8
-0.172, 2.693e-8
-0.173, 2.679e-8
-0.174, 2.703e-8
-0.175, 2.713e-8
-0.176, 2.699e-8
-0.177, 2.712e-8
-0.178, 2.732e-8
-0.179, 2.722e-8
-0.180, 2.725e-8
-0.181, 2.749e-8
-0.182, 2.748e-8
-0.183, 2.740e-8
-0.184, 2.764e-8
-0.185, 2.775e-8
-0.186, 2.761e-8
-0.187, 2.775e-8
-0.188, 2.801e-8
-0.189, 2.788e-8
-0.190, 2.792e-8
-0.191, 2.820e-8
-0.192, 2.819e-8
-0.193, 2.812e-8
-0.194, 2.838e-8
-0.195, 2.849e-8
-0.196, 2.842e-8
-0.197, 2.854e-8
-0.198, 2.878e-8
-0.199, 2.872e-8
