Mar. 16, 2023   10:08:11
Cyclic Voltammetry
File: c:/users/oliverrz/desktop/electrolab/data/2023_03_16\fcmeoh_macros_1_mm\electrode1_cv_100mvs_1_mm.bin
Data Source:  Experiment
Instrument Model:  CHI760E
Header: CV
Note: 

Init E (V) = -0.2
High E (V) = 0.3
Low E (V) = -0.2
Final E (V) = -0.2
Init P/N = P
Scan Rate (V/s) = 0.1
Segment = 3
Sample Interval (V) = 0.001
Quiet Time (sec) = 2
Sensitivity (A/V) = 1e-7

Results:

Channel 1:
Segment 1:
Ep = 0.129V
ip = -6.784e-8A
Ah = -4.206e-8C

Segment 2:
Ep = 0.063V
ip = 6.211e-8A
Ah = 3.975e-8C

Segment 3:

Potential/V, Current/A

-0.200, 7.244e-9
-0.199, 6.349e-9
-0.198, 6.072e-9
-0.197, 5.892e-9
-0.196, 5.802e-9
-0.195, 5.677e-9
-0.194, 5.588e-9
-0.193, 5.503e-9
-0.192, 5.394e-9
-0.191, 5.348e-9
-0.190, 5.240e-9
-0.189, 5.176e-9
-0.188, 5.112e-9
-0.187, 5.016e-9
-0.186, 4.984e-9
-0.185, 4.887e-9
-0.184, 4.835e-9
-0.183, 4.781e-9
-0.182, 4.683e-9
-0.181, 4.658e-9
-0.180, 4.569e-9
-0.179, 4.515e-9
-0.178, 4.468e-9
-0.177, 4.380e-9
-0.176, 4.368e-9
-0.175, 4.280e-9
-0.174, 4.228e-9
-0.173, 4.194e-9
-0.172, 4.103e-9
-0.171, 4.090e-9
-0.170, 4.011e-9
-0.169, 3.962e-9
-0.168, 3.928e-9
-0.167, 3.844e-9
-0.166, 3.828e-9
-0.165, 3.754e-9
-0.164, 3.708e-9
-0.163, 3.676e-9
-0.162, 3.597e-9
-0.161, 3.584e-9
-0.160, 3.517e-9
-0.159, 3.469e-9
-0.158, 3.445e-9
-0.157, 3.367e-9
-0.156, 3.349e-9
-0.155, 3.286e-9
-0.154, 3.243e-9
-0.153, 3.212e-9
-0.152, 3.142e-9
-0.151, 3.129e-9
-0.150, 3.065e-9
-0.149, 3.030e-9
-0.148, 2.995e-9
-0.147, 2.932e-9
-0.146, 2.921e-9
-0.145, 2.851e-9
-0.144, 2.827e-9
-0.143, 2.793e-9
-0.142, 2.724e-9
-0.141, 2.718e-9
-0.140, 2.654e-9
-0.139, 2.626e-9
-0.138, 2.604e-9
-0.137, 2.531e-9
-0.136, 2.532e-9
-0.135, 2.466e-9
-0.134, 2.437e-9
-0.133, 2.414e-9
-0.132, 2.343e-9
-0.131, 2.351e-9
-0.130, 2.288e-9
-0.129, 2.255e-9
-0.128, 2.235e-9
-0.127, 2.167e-9
-0.126, 2.168e-9
-0.125, 2.114e-9
-0.124, 2.080e-9
-0.123, 2.065e-9
-0.122, 2.000e-9
-0.121, 1.998e-9
-0.120, 1.947e-9
-0.119, 1.914e-9
-0.118, 1.895e-9
-0.117, 1.835e-9
-0.116, 1.827e-9
-0.115, 1.780e-9
-0.114, 1.751e-9
-0.113, 1.733e-9
-0.112, 1.679e-9
-0.111, 1.677e-9
-0.110, 1.621e-9
-0.109, 1.598e-9
-0.108, 1.580e-9
-0.107, 1.519e-9
-0.106, 1.521e-9
-0.105, 1.465e-9
-0.104, 1.446e-9
-0.103, 1.427e-9
-0.102, 1.361e-9
-0.101, 1.371e-9
-0.100, 1.315e-9
-0.099, 1.294e-9
-0.098, 1.284e-9
-0.097, 1.219e-9
-0.096, 1.233e-9
-0.095, 1.176e-9
-0.094, 1.152e-9
-0.093, 1.143e-9
-0.092, 1.074e-9
-0.091, 1.087e-9
-0.090, 1.035e-9
-0.089, 1.004e-9
-0.088, 1.000e-9
-0.087, 9.328e-10
-0.086, 9.448e-10
-0.085, 8.948e-10
-0.084, 8.629e-10
-0.083, 8.580e-10
-0.082, 7.943e-10
-0.081, 8.002e-10
-0.080, 7.530e-10
-0.079, 7.258e-10
-0.078, 7.151e-10
-0.077, 6.533e-10
-0.076, 6.562e-10
-0.075, 6.099e-10
-0.074, 5.770e-10
-0.073, 5.666e-10
-0.072, 5.038e-10
-0.071, 5.112e-10
-0.070, 4.625e-10
-0.069, 4.348e-10
-0.068, 4.211e-10
-0.067, 3.653e-10
-0.066, 3.672e-10
-0.065, 3.148e-10
-0.064, 2.847e-10
-0.063, 2.710e-10
-0.062, 2.111e-10
-0.061, 2.164e-10
-0.060, 1.576e-10
-0.059, 1.348e-10
-0.058, 1.196e-10
-0.057, 4.885e-11
-0.056, 6.037e-11
-0.055, -1.773e-13
-0.054, -3.227e-11
-0.053, -3.956e-11
-0.052, -1.138e-10
-0.051, -1.140e-10
-0.050, -1.690e-10
-0.049, -2.084e-10
-0.048, -2.183e-10
-0.047, -2.961e-10
-0.046, -2.955e-10
-0.045, -3.539e-10
-0.044, -3.980e-10
-0.043, -4.114e-10
-0.042, -4.879e-10
-0.041, -5.019e-10
-0.040, -5.556e-10
-0.039, -6.085e-10
-0.038, -6.298e-10
-0.037, -7.038e-10
-0.036, -7.220e-10
-0.035, -7.869e-10
-0.034, -8.367e-10
-0.033, -8.719e-10
-0.032, -9.483e-10
-0.031, -9.718e-10
-0.030, -1.042e-9
-0.029, -1.100e-9
-0.028, -1.137e-9
-0.027, -1.220e-9
-0.026, -1.256e-9
-0.025, -1.340e-9
-0.024, -1.400e-9
-0.023, -1.446e-9
-0.022, -1.551e-9
-0.021, -1.579e-9
-0.020, -1.678e-9
-0.019, -1.743e-9
-0.018, -1.805e-9
-0.017, -1.916e-9
-0.016, -1.957e-9
-0.015, -2.066e-9
-0.014, -2.150e-9
-0.013, -2.219e-9
-0.012, -2.352e-9
-0.011, -2.401e-9
-0.010, -2.516e-9
-0.009, -2.626e-9
-0.008, -2.699e-9
-0.007, -2.846e-9
-0.006, -2.922e-9
-0.005, -3.050e-9
-0.004, -3.175e-9
-0.003, -3.270e-9
-0.002, -3.436e-9
-0.001, -3.526e-9
-0.000, -3.734e-9
0.001, -3.853e-9
0.002, -3.961e-9
0.003, -4.134e-9
0.004, -4.264e-9
0.005, -4.431e-9
0.006, -4.601e-9
0.007, -4.751e-9
0.008, -4.946e-9
0.009, -5.105e-9
0.010, -5.305e-9
0.011, -5.503e-9
0.012, -5.688e-9
0.013, -5.923e-9
0.014, -6.108e-9
0.015, -6.346e-9
0.016, -6.571e-9
0.017, -6.795e-9
0.018, -7.067e-9
0.019, -7.291e-9
0.020, -7.582e-9
0.021, -7.848e-9
0.022, -8.107e-9
0.023, -8.423e-9
0.024, -8.682e-9
0.025, -9.020e-9
0.026, -9.341e-9
0.027, -9.638e-9
0.028, -1.002e-8
0.029, -1.032e-8
0.030, -1.071e-8
0.031, -1.108e-8
0.032, -1.143e-8
0.033, -1.186e-8
0.034, -1.223e-8
0.035, -1.266e-8
0.036, -1.311e-8
0.037, -1.351e-8
0.038, -1.400e-8
0.039, -1.446e-8
0.040, -1.494e-8
0.041, -1.545e-8
0.042, -1.594e-8
0.043, -1.648e-8
0.044, -1.701e-8
0.045, -1.756e-8
0.046, -1.813e-8
0.047, -1.870e-8
0.048, -1.930e-8
0.049, -1.991e-8
0.050, -2.053e-8
0.051, -2.118e-8
0.052, -2.183e-8
0.053, -2.252e-8
0.054, -2.319e-8
0.055, -2.390e-8
0.056, -2.462e-8
0.057, -2.533e-8
0.058, -2.610e-8
0.059, -2.683e-8
0.060, -2.762e-8
0.061, -2.839e-8
0.062, -2.918e-8
0.063, -3.004e-8
0.064, -3.083e-8
0.065, -3.169e-8
0.066, -3.256e-8
0.067, -3.338e-8
0.068, -3.430e-8
0.069, -3.514e-8
0.070, -3.603e-8
0.071, -3.697e-8
0.072, -3.782e-8
0.073, -3.879e-8
0.074, -3.969e-8
0.075, -4.061e-8
0.076, -4.159e-8
0.077, -4.250e-8
0.078, -4.348e-8
0.079, -4.440e-8
0.080, -4.531e-8
0.081, -4.630e-8
0.082, -4.722e-8
0.083, -4.817e-8
0.084, -4.911e-8
0.085, -5.000e-8
0.086, -5.097e-8
0.087, -5.186e-8
0.088, -5.277e-8
0.089, -5.370e-8
0.090, -5.458e-8
0.091, -5.547e-8
0.092, -5.633e-8
0.093, -5.716e-8
0.094, -5.801e-8
0.095, -5.884e-8
0.096, -5.963e-8
0.097, -6.042e-8
0.098, -6.119e-8
0.099, -6.193e-8
0.100, -6.268e-8
0.101, -6.338e-8
0.102, -6.409e-8
0.103, -6.478e-8
0.104, -6.538e-8
0.105, -6.601e-8
0.106, -6.659e-8
0.107, -6.714e-8
0.108, -6.770e-8
0.109, -6.815e-8
0.110, -6.867e-8
0.111, -6.914e-8
0.112, -6.954e-8
0.113, -6.998e-8
0.114, -7.035e-8
0.115, -7.071e-8
0.116, -7.107e-8
0.117, -7.133e-8
0.118, -7.163e-8
0.119, -7.187e-8
0.120, -7.208e-8
0.121, -7.232e-8
0.122, -7.246e-8
0.123, -7.262e-8
0.124, -7.275e-8
0.125, -7.281e-8
0.126, -7.293e-8
0.127, -7.298e-8
0.128, -7.305e-8
0.129, -7.307e-8
0.130, -7.306e-8
0.131, -7.304e-8
0.132, -7.300e-8
0.133, -7.293e-8
0.134, -7.285e-8
0.135, -7.277e-8
0.136, -7.267e-8
0.137, -7.253e-8
0.138, -7.240e-8
0.139, -7.224e-8
0.140, -7.210e-8
0.141, -7.192e-8
0.142, -7.173e-8
0.143, -7.156e-8
0.144, -7.131e-8
0.145, -7.112e-8
0.146, -7.090e-8
0.147, -7.064e-8
0.148, -7.043e-8
0.149, -7.014e-8
0.150, -6.990e-8
0.151, -6.965e-8
0.152, -6.935e-8
0.153, -6.912e-8
0.154, -6.883e-8
0.155, -6.855e-8
0.156, -6.829e-8
0.157, -6.797e-8
0.158, -6.771e-8
0.159, -6.740e-8
0.160, -6.711e-8
0.161, -6.684e-8
0.162, -6.652e-8
0.163, -6.625e-8
0.164, -6.594e-8
0.165, -6.563e-8
0.166, -6.535e-8
0.167, -6.504e-8
0.168, -6.476e-8
0.169, -6.445e-8
0.170, -6.416e-8
0.171, -6.387e-8
0.172, -6.356e-8
0.173, -6.329e-8
0.174, -6.298e-8
0.175, -6.271e-8
0.176, -6.242e-8
0.177, -6.212e-8
0.178, -6.186e-8
0.179, -6.156e-8
0.180, -6.130e-8
0.181, -6.102e-8
0.182, -6.072e-8
0.183, -6.049e-8
0.184, -6.019e-8
0.185, -5.994e-8
0.186, -5.969e-8
0.187, -5.940e-8
0.188, -5.918e-8
0.189, -5.889e-8
0.190, -5.867e-8
0.191, -5.843e-8
0.192, -5.815e-8
0.193, -5.795e-8
0.194, -5.769e-8
0.195, -5.746e-8
0.196, -5.725e-8
0.197, -5.698e-8
0.198, -5.680e-8
0.199, -5.655e-8
0.200, -5.634e-8
0.201, -5.613e-8
0.202, -5.589e-8
0.203, -5.571e-8
0.204, -5.549e-8
0.205, -5.529e-8
0.206, -5.510e-8
0.207, -5.488e-8
0.208, -5.470e-8
0.209, -5.448e-8
0.210, -5.430e-8
0.211, -5.412e-8
0.212, -5.391e-8
0.213, -5.376e-8
0.214, -5.355e-8
0.215, -5.339e-8
0.216, -5.322e-8
0.217, -5.303e-8
0.218, -5.289e-8
0.219, -5.269e-8
0.220, -5.255e-8
0.221, -5.239e-8
0.222, -5.220e-8
0.223, -5.208e-8
0.224, -5.189e-8
0.225, -5.175e-8
0.226, -5.162e-8
0.227, -5.143e-8
0.228, -5.133e-8
0.229, -5.115e-8
0.230, -5.102e-8
0.231, -5.090e-8
0.232, -5.073e-8
0.233, -5.063e-8
0.234, -5.047e-8
0.235, -5.035e-8
0.236, -5.024e-8
0.237, -5.007e-8
0.238, -4.999e-8
0.239, -4.984e-8
0.240, -4.972e-8
0.241, -4.963e-8
0.242, -4.948e-8
0.243, -4.940e-8
0.244, -4.926e-8
0.245, -4.915e-8
0.246, -4.906e-8
0.247, -4.892e-8
0.248, -4.884e-8
0.249, -4.871e-8
0.250, -4.862e-8
0.251, -4.853e-8
0.252, -4.840e-8
0.253, -4.834e-8
0.254, -4.822e-8
0.255, -4.814e-8
0.256, -4.805e-8
0.257, -4.794e-8
0.258, -4.788e-8
0.259, -4.776e-8
0.260, -4.769e-8
0.261, -4.761e-8
0.262, -4.749e-8
0.263, -4.745e-8
0.264, -4.733e-8
0.265, -4.726e-8
0.266, -4.719e-8
0.267, -4.708e-8
0.268, -4.705e-8
0.269, -4.694e-8
0.270, -4.688e-8
0.271, -4.682e-8
0.272, -4.671e-8
0.273, -4.668e-8
0.274, -4.658e-8
0.275, -4.652e-8
0.276, -4.647e-8
0.277, -4.636e-8
0.278, -4.634e-8
0.279, -4.625e-8
0.280, -4.619e-8
0.281, -4.614e-8
0.282, -4.606e-8
0.283, -4.603e-8
0.284, -4.594e-8
0.285, -4.589e-8
0.286, -4.586e-8
0.287, -4.577e-8
0.288, -4.575e-8
0.289, -4.567e-8
0.290, -4.563e-8
0.291, -4.559e-8
0.292, -4.551e-8
0.293, -4.549e-8
0.294, -4.541e-8
0.295, -4.538e-8
0.296, -4.535e-8
0.297, -4.527e-8
0.298, -4.526e-8
0.299, -4.519e-8
0.300, -4.420e-8
0.299, -4.250e-8
0.298, -4.194e-8
0.297, -4.169e-8
0.296, -4.146e-8
0.295, -4.128e-8
0.294, -4.112e-8
0.293, -4.094e-8
0.292, -4.082e-8
0.291, -4.066e-8
0.290, -4.053e-8
0.289, -4.042e-8
0.288, -4.026e-8
0.287, -4.018e-8
0.286, -4.004e-8
0.285, -3.993e-8
0.284, -3.984e-8
0.283, -3.971e-8
0.282, -3.963e-8
0.281, -3.951e-8
0.280, -3.942e-8
0.279, -3.933e-8
0.278, -3.921e-8
0.277, -3.914e-8
0.276, -3.902e-8
0.275, -3.894e-8
0.274, -3.886e-8
0.273, -3.874e-8
0.272, -3.869e-8
0.271, -3.857e-8
0.270, -3.850e-8
0.269, -3.843e-8
0.268, -3.831e-8
0.267, -3.827e-8
0.266, -3.816e-8
0.265, -3.809e-8
0.264, -3.803e-8
0.263, -3.791e-8
0.262, -3.788e-8
0.261, -3.777e-8
0.260, -3.770e-8
0.259, -3.764e-8
0.258, -3.753e-8
0.257, -3.750e-8
0.256, -3.740e-8
0.255, -3.732e-8
0.254, -3.727e-8
0.253, -3.716e-8
0.252, -3.711e-8
0.251, -3.702e-8
0.250, -3.694e-8
0.249, -3.689e-8
0.248, -3.679e-8
0.247, -3.675e-8
0.246, -3.665e-8
0.245, -3.659e-8
0.244, -3.652e-8
0.243, -3.643e-8
0.242, -3.638e-8
0.241, -3.629e-8
0.240, -3.622e-8
0.239, -3.616e-8
0.238, -3.605e-8
0.237, -3.601e-8
0.236, -3.591e-8
0.235, -3.584e-8
0.234, -3.578e-8
0.233, -3.567e-8
0.232, -3.563e-8
0.231, -3.552e-8
0.230, -3.545e-8
0.229, -3.539e-8
0.228, -3.528e-8
0.227, -3.523e-8
0.226, -3.512e-8
0.225, -3.504e-8
0.224, -3.498e-8
0.223, -3.486e-8
0.222, -3.482e-8
0.221, -3.470e-8
0.220, -3.461e-8
0.219, -3.454e-8
0.218, -3.440e-8
0.217, -3.434e-8
0.216, -3.422e-8
0.215, -3.412e-8
0.214, -3.405e-8
0.213, -3.390e-8
0.212, -3.383e-8
0.211, -3.371e-8
0.210, -3.360e-8
0.209, -3.351e-8
0.208, -3.336e-8
0.207, -3.327e-8
0.206, -3.314e-8
0.205, -3.301e-8
0.204, -3.290e-8
0.203, -3.275e-8
0.202, -3.264e-8
0.201, -3.249e-8
0.200, -3.235e-8
0.199, -3.222e-8
0.198, -3.205e-8
0.197, -3.193e-8
0.196, -3.175e-8
0.195, -3.160e-8
0.194, -3.145e-8
0.193, -3.125e-8
0.192, -3.111e-8
0.191, -3.090e-8
0.190, -3.073e-8
0.189, -3.056e-8
0.188, -3.032e-8
0.187, -3.017e-8
0.186, -2.994e-8
0.185, -2.974e-8
0.184, -2.954e-8
0.183, -2.928e-8
0.182, -2.910e-8
0.181, -2.884e-8
0.180, -2.859e-8
0.179, -2.837e-8
0.178, -2.808e-8
0.177, -2.785e-8
0.176, -2.756e-8
0.175, -2.727e-8
0.174, -2.702e-8
0.173, -2.668e-8
0.172, -2.641e-8
0.171, -2.608e-8
0.170, -2.575e-8
0.169, -2.544e-8
0.168, -2.507e-8
0.167, -2.473e-8
0.166, -2.435e-8
0.165, -2.397e-8
0.164, -2.360e-8
0.163, -2.318e-8
0.162, -2.278e-8
0.161, -2.236e-8
0.160, -2.193e-8
0.159, -2.149e-8
0.158, -2.102e-8
0.157, -2.056e-8
0.156, -2.008e-8
0.155, -1.958e-8
0.154, -1.907e-8
0.153, -1.852e-8
0.152, -1.802e-8
0.151, -1.744e-8
0.150, -1.690e-8
0.149, -1.633e-8
0.148, -1.569e-8
0.147, -1.513e-8
0.146, -1.448e-8
0.145, -1.384e-8
0.144, -1.321e-8
0.143, -1.251e-8
0.142, -1.186e-8
0.141, -1.115e-8
0.140, -1.044e-8
0.139, -9.749e-9
0.138, -8.973e-9
0.137, -8.254e-9
0.136, -7.467e-9
0.135, -6.667e-9
0.134, -5.916e-9
0.133, -5.077e-9
0.132, -4.267e-9
0.131, -3.450e-9
0.130, -2.579e-9
0.129, -1.750e-9
0.128, -8.481e-10
0.127, 2.778e-11
0.126, 9.117e-10
0.125, 1.812e-9
0.124, 2.701e-9
0.123, 3.617e-9
0.122, 4.529e-9
0.121, 5.453e-9
0.120, 6.384e-9
0.119, 7.329e-9
0.118, 8.246e-9
0.117, 9.196e-9
0.116, 1.016e-8
0.115, 1.111e-8
0.114, 1.204e-8
0.113, 1.297e-8
0.112, 1.390e-8
0.111, 1.485e-8
0.110, 1.577e-8
0.109, 1.668e-8
0.108, 1.762e-8
0.107, 1.852e-8
0.106, 1.943e-8
0.105, 2.032e-8
0.104, 2.119e-8
0.103, 2.209e-8
0.102, 2.296e-8
0.101, 2.379e-8
0.100, 2.463e-8
0.099, 2.538e-8
0.098, 2.620e-8
0.097, 2.694e-8
0.096, 2.770e-8
0.095, 2.845e-8
0.094, 2.910e-8
0.093, 2.982e-8
0.092, 3.048e-8
0.091, 3.111e-8
0.090, 3.176e-8
0.089, 3.233e-8
0.088, 3.291e-8
0.087, 3.347e-8
0.086, 3.395e-8
0.085, 3.447e-8
0.084, 3.492e-8
0.083, 3.535e-8
0.082, 3.579e-8
0.081, 3.616e-8
0.080, 3.653e-8
0.079, 3.687e-8
0.078, 3.721e-8
0.077, 3.750e-8
0.076, 3.778e-8
0.075, 3.800e-8
0.074, 3.819e-8
0.073, 3.841e-8
0.072, 3.856e-8
0.071, 3.871e-8
0.070, 3.883e-8
0.069, 3.892e-8
0.068, 3.902e-8
0.067, 3.905e-8
0.066, 3.913e-8
0.065, 3.915e-8
0.064, 3.913e-8
0.063, 3.916e-8
0.062, 3.908e-8
0.061, 3.905e-8
0.060, 3.899e-8
0.059, 3.888e-8
0.058, 3.882e-8
0.057, 3.867e-8
0.056, 3.857e-8
0.055, 3.846e-8
0.054, 3.826e-8
0.053, 3.815e-8
0.052, 3.797e-8
0.051, 3.780e-8
0.050, 3.762e-8
0.049, 3.740e-8
0.048, 3.721e-8
0.047, 3.700e-8
0.046, 3.677e-8
0.045, 3.656e-8
0.044, 3.631e-8
0.043, 3.609e-8
0.042, 3.584e-8
0.041, 3.560e-8
0.040, 3.536e-8
0.039, 3.510e-8
0.038, 3.486e-8
0.037, 3.458e-8
0.036, 3.434e-8
0.035, 3.406e-8
0.034, 3.379e-8
0.033, 3.355e-8
0.032, 3.326e-8
0.031, 3.301e-8
0.030, 3.273e-8
0.029, 3.245e-8
0.028, 3.222e-8
0.027, 3.191e-8
0.026, 3.167e-8
0.025, 3.141e-8
0.024, 3.111e-8
0.023, 3.089e-8
0.022, 3.059e-8
0.021, 3.034e-8
0.020, 3.009e-8
0.019, 2.980e-8
0.018, 2.958e-8
0.017, 2.930e-8
0.016, 2.906e-8
0.015, 2.883e-8
0.014, 2.855e-8
0.013, 2.834e-8
0.012, 2.807e-8
0.011, 2.784e-8
0.010, 2.761e-8
0.009, 2.735e-8
0.008, 2.715e-8
0.007, 2.690e-8
0.006, 2.667e-8
0.005, 2.646e-8
0.004, 2.622e-8
0.003, 2.603e-8
0.002, 2.579e-8
0.001, 2.559e-8
0.000, 2.544e-8
-0.001, 2.519e-8
-0.002, 2.500e-8
-0.003, 2.476e-8
-0.004, 2.458e-8
-0.005, 2.439e-8
-0.006, 2.416e-8
-0.007, 2.401e-8
-0.008, 2.379e-8
-0.009, 2.362e-8
-0.010, 2.344e-8
-0.011, 2.324e-8
-0.012, 2.310e-8
-0.013, 2.290e-8
-0.014, 2.274e-8
-0.015, 2.258e-8
-0.016, 2.238e-8
-0.017, 2.227e-8
-0.018, 2.207e-8
-0.019, 2.192e-8
-0.020, 2.178e-8
-0.021, 2.160e-8
-0.022, 2.149e-8
-0.023, 2.131e-8
-0.024, 2.118e-8
-0.025, 2.105e-8
-0.026, 2.088e-8
-0.027, 2.077e-8
-0.028, 2.061e-8
-0.029, 2.049e-8
-0.030, 2.037e-8
-0.031, 2.021e-8
-0.032, 2.012e-8
-0.033, 1.997e-8
-0.034, 1.986e-8
-0.035, 1.975e-8
-0.036, 1.960e-8
-0.037, 1.952e-8
-0.038, 1.938e-8
-0.039, 1.929e-8
-0.040, 1.918e-8
-0.041, 1.905e-8
-0.042, 1.897e-8
-0.043, 1.884e-8
-0.044, 1.876e-8
-0.045, 1.866e-8
-0.046, 1.854e-8
-0.047, 1.848e-8
-0.048, 1.835e-8
-0.049, 1.828e-8
-0.050, 1.819e-8
-0.051, 1.808e-8
-0.052, 1.803e-8
-0.053, 1.791e-8
-0.054, 1.784e-8
-0.055, 1.776e-8
-0.056, 1.765e-8
-0.057, 1.761e-8
-0.058, 1.750e-8
-0.059, 1.744e-8
-0.060, 1.737e-8
-0.061, 1.726e-8
-0.062, 1.723e-8
-0.063, 1.713e-8
-0.064, 1.707e-8
-0.065, 1.701e-8
-0.066, 1.692e-8
-0.067, 1.689e-8
-0.068, 1.680e-8
-0.069, 1.674e-8
-0.070, 1.669e-8
-0.071, 1.660e-8
-0.072, 1.658e-8
-0.073, 1.649e-8
-0.074, 1.644e-8
-0.075, 1.640e-8
-0.076, 1.632e-8
-0.077, 1.630e-8
-0.078, 1.621e-8
-0.079, 1.618e-8
-0.080, 1.613e-8
-0.081, 1.606e-8
-0.082, 1.604e-8
-0.083, 1.597e-8
-0.084, 1.594e-8
-0.085, 1.589e-8
-0.086, 1.583e-8
-0.087, 1.583e-8
-0.088, 1.575e-8
-0.089, 1.573e-8
-0.090, 1.569e-8
-0.091, 1.563e-8
-0.092, 1.563e-8
-0.093, 1.556e-8
-0.094, 1.554e-8
-0.095, 1.551e-8
-0.096, 1.545e-8
-0.097, 1.546e-8
-0.098, 1.540e-8
-0.099, 1.538e-8
-0.100, 1.536e-8
-0.101, 1.530e-8
-0.102, 1.532e-8
-0.103, 1.527e-8
-0.104, 1.524e-8
-0.105, 1.523e-8
-0.106, 1.517e-8
-0.107, 1.519e-8
-0.108, 1.514e-8
-0.109, 1.512e-8
-0.110, 1.512e-8
-0.111, 1.507e-8
-0.112, 1.508e-8
-0.113, 1.505e-8
-0.114, 1.503e-8
-0.115, 1.503e-8
-0.116, 1.499e-8
-0.117, 1.501e-8
-0.118, 1.497e-8
-0.119, 1.496e-8
-0.120, 1.496e-8
-0.121, 1.492e-8
-0.122, 1.495e-8
-0.123, 1.491e-8
-0.124, 1.492e-8
-0.125, 1.491e-8
-0.126, 1.488e-8
-0.127, 1.491e-8
-0.128, 1.488e-8
-0.129, 1.488e-8
-0.130, 1.488e-8
-0.131, 1.485e-8
-0.132, 1.489e-8
-0.133, 1.485e-8
-0.134, 1.487e-8
-0.135, 1.488e-8
-0.136, 1.485e-8
-0.137, 1.489e-8
-0.138, 1.486e-8
-0.139, 1.487e-8
-0.140, 1.489e-8
-0.141, 1.486e-8
-0.142, 1.490e-8
-0.143, 1.488e-8
-0.144, 1.490e-8
-0.145, 1.492e-8
-0.146, 1.489e-8
-0.147, 1.494e-8
-0.148, 1.493e-8
-0.149, 1.494e-8
-0.150, 1.496e-8
-0.151, 1.495e-8
-0.152, 1.499e-8
-0.153, 1.499e-8
-0.154, 1.500e-8
-0.155, 1.503e-8
-0.156, 1.502e-8
-0.157, 1.507e-8
-0.158, 1.506e-8
-0.159, 1.508e-8
-0.160, 1.511e-8
-0.161, 1.510e-8
-0.162, 1.515e-8
-0.163, 1.515e-8
-0.164, 1.518e-8
-0.165, 1.521e-8
-0.166, 1.521e-8
-0.167, 1.527e-8
-0.168, 1.526e-8
-0.169, 1.530e-8
-0.170, 1.533e-8
-0.171, 1.533e-8
-0.172, 1.539e-8
-0.173, 1.538e-8
-0.174, 1.542e-8
-0.175, 1.546e-8
-0.176, 1.546e-8
-0.177, 1.553e-8
-0.178, 1.553e-8
-0.179, 1.558e-8
-0.180, 1.562e-8
-0.181, 1.561e-8
-0.182, 1.569e-8
-0.183, 1.570e-8
-0.184, 1.573e-8
-0.185, 1.579e-8
-0.186, 1.578e-8
-0.187, 1.586e-8
-0.188, 1.588e-8
-0.189, 1.591e-8
-0.190, 1.597e-8
-0.191, 1.597e-8
-0.192, 1.605e-8
-0.193, 1.607e-8
-0.194, 1.611e-8
-0.195, 1.617e-8
-0.196, 1.618e-8
-0.197, 1.626e-8
-0.198, 1.628e-8
-0.199, 1.633e-8
