Mar. 16, 2023   10:12:43
Cyclic Voltammetry
File: c:/users/oliverrz/desktop/electrolab/data/2023_03_16\fcmeoh_macros_1_mm\electrode4_cv_250mvs_1_mm.bin
Data Source:  Experiment
Instrument Model:  CHI760E
Header: CV
Note: 

Init E (V) = -0.2
High E (V) = 0.3
Low E (V) = -0.2
Final E (V) = -0.2
Init P/N = P
Scan Rate (V/s) = 0.25
Segment = 3
Sample Interval (V) = 0.001
Quiet Time (sec) = 2
Sensitivity (A/V) = 1e-7

Results:

Channel 1:
Segment 1:
Ep = 0.119V
ip = -1.028e-7A
Ah = -2.492e-8C

Segment 2:
Ep = 0.059V
ip = 9.717e-8A
Ah = 2.361e-8C

Segment 3:

Potential/V, Current/A

-0.200, 1.471e-8
-0.199, 1.265e-8
-0.198, 1.222e-8
-0.197, 1.201e-8
-0.196, 1.176e-8
-0.195, 1.148e-8
-0.194, 1.121e-8
-0.193, 1.102e-8
-0.192, 1.093e-8
-0.191, 1.065e-8
-0.190, 1.041e-8
-0.189, 1.031e-8
-0.188, 1.016e-8
-0.187, 1.001e-8
-0.186, 9.729e-9
-0.185, 9.575e-9
-0.184, 9.575e-9
-0.183, 9.329e-9
-0.182, 9.113e-9
-0.181, 8.959e-9
-0.180, 8.898e-9
-0.179, 8.744e-9
-0.178, 8.498e-9
-0.177, 8.344e-9
-0.176, 8.313e-9
-0.175, 8.160e-9
-0.174, 7.975e-9
-0.173, 7.790e-9
-0.172, 7.729e-9
-0.171, 7.667e-9
-0.170, 7.452e-9
-0.169, 7.267e-9
-0.168, 7.206e-9
-0.167, 7.114e-9
-0.166, 6.929e-9
-0.165, 6.744e-9
-0.164, 6.652e-9
-0.163, 6.621e-9
-0.162, 6.467e-9
-0.161, 6.221e-9
-0.160, 6.160e-9
-0.159, 6.160e-9
-0.158, 5.975e-9
-0.157, 5.852e-9
-0.156, 5.668e-9
-0.155, 5.698e-9
-0.154, 5.575e-9
-0.153, 5.329e-9
-0.152, 5.268e-9
-0.151, 5.237e-9
-0.150, 5.145e-9
-0.149, 4.991e-9
-0.148, 4.806e-9
-0.147, 4.806e-9
-0.146, 4.714e-9
-0.145, 4.529e-9
-0.144, 4.437e-9
-0.143, 4.375e-9
-0.142, 4.345e-9
-0.141, 4.222e-9
-0.140, 3.976e-9
-0.139, 4.006e-9
-0.138, 3.945e-9
-0.137, 3.822e-9
-0.136, 3.668e-9
-0.135, 3.545e-9
-0.134, 3.606e-9
-0.133, 3.483e-9
-0.132, 3.299e-9
-0.131, 3.237e-9
-0.130, 3.237e-9
-0.129, 3.145e-9
-0.128, 2.991e-9
-0.127, 2.868e-9
-0.126, 2.868e-9
-0.125, 2.837e-9
-0.124, 2.653e-9
-0.123, 2.530e-9
-0.122, 2.560e-9
-0.121, 2.499e-9
-0.120, 2.376e-9
-0.119, 2.222e-9
-0.118, 2.191e-9
-0.117, 2.191e-9
-0.116, 2.068e-9
-0.115, 1.914e-9
-0.114, 1.883e-9
-0.113, 1.883e-9
-0.112, 1.791e-9
-0.111, 1.637e-9
-0.110, 1.545e-9
-0.109, 1.637e-9
-0.108, 1.484e-9
-0.107, 1.330e-9
-0.106, 1.299e-9
-0.105, 1.299e-9
-0.104, 1.268e-9
-0.103, 1.084e-9
-0.102, 9.913e-10
-0.101, 1.022e-9
-0.100, 9.298e-10
-0.099, 8.682e-10
-0.098, 7.144e-10
-0.097, 7.144e-10
-0.096, 7.452e-10
-0.095, 5.606e-10
-0.094, 4.375e-10
-0.093, 4.683e-10
-0.092, 4.683e-10
-0.091, 3.452e-10
-0.090, 1.914e-10
-0.089, 1.606e-10
-0.088, 1.914e-10
-0.087, 6.834e-11
-0.086, -5.472e-11
-0.085, -8.548e-11
-0.084, -8.548e-11
-0.083, -1.470e-10
-0.082, -2.701e-10
-0.081, -3.624e-10
-0.080, -3.316e-10
-0.079, -3.931e-10
-0.078, -5.470e-10
-0.077, -6.393e-10
-0.076, -6.085e-10
-0.075, -6.393e-10
-0.074, -7.623e-10
-0.073, -8.854e-10
-0.072, -8.546e-10
-0.071, -8.854e-10
-0.070, -1.008e-9
-0.069, -1.131e-9
-0.068, -1.162e-9
-0.067, -1.101e-9
-0.066, -1.255e-9
-0.065, -1.408e-9
-0.064, -1.408e-9
-0.063, -1.408e-9
-0.062, -1.501e-9
-0.061, -1.624e-9
-0.060, -1.747e-9
-0.059, -1.655e-9
-0.058, -1.778e-9
-0.057, -1.931e-9
-0.056, -1.993e-9
-0.055, -1.993e-9
-0.054, -2.054e-9
-0.053, -2.208e-9
-0.052, -2.331e-9
-0.051, -2.301e-9
-0.050, -2.362e-9
-0.049, -2.485e-9
-0.048, -2.608e-9
-0.047, -2.639e-9
-0.046, -2.670e-9
-0.045, -2.793e-9
-0.044, -2.977e-9
-0.043, -2.977e-9
-0.042, -3.008e-9
-0.041, -3.162e-9
-0.040, -3.316e-9
-0.039, -3.408e-9
-0.038, -3.408e-9
-0.037, -3.531e-9
-0.036, -3.716e-9
-0.035, -3.808e-9
-0.034, -3.808e-9
-0.033, -3.993e-9
-0.032, -4.116e-9
-0.031, -4.239e-9
-0.030, -4.300e-9
-0.029, -4.393e-9
-0.028, -4.608e-9
-0.027, -4.762e-9
-0.026, -4.793e-9
-0.025, -4.946e-9
-0.024, -5.100e-9
-0.023, -5.346e-9
-0.022, -5.377e-9
-0.021, -5.469e-9
-0.020, -5.746e-9
-0.019, -5.900e-9
-0.018, -6.023e-9
-0.017, -6.146e-9
-0.016, -6.331e-9
-0.015, -6.638e-9
-0.014, -6.762e-9
-0.013, -6.885e-9
-0.012, -7.131e-9
-0.011, -7.377e-9
-0.010, -7.592e-9
-0.009, -7.715e-9
-0.008, -7.961e-9
-0.007, -8.269e-9
-0.006, -8.515e-9
-0.005, -8.669e-9
-0.004, -8.946e-9
-0.003, -9.253e-9
-0.002, -9.561e-9
-0.001, -9.746e-9
-0.000, -1.021e-8
0.001, -1.045e-8
0.002, -1.079e-8
0.003, -1.098e-8
0.004, -1.131e-8
0.005, -1.168e-8
0.006, -1.208e-8
0.007, -1.242e-8
0.008, -1.270e-8
0.009, -1.316e-8
0.010, -1.359e-8
0.011, -1.396e-8
0.012, -1.433e-8
0.013, -1.479e-8
0.014, -1.534e-8
0.015, -1.581e-8
0.016, -1.614e-8
0.017, -1.673e-8
0.018, -1.728e-8
0.019, -1.778e-8
0.020, -1.827e-8
0.021, -1.882e-8
0.022, -1.944e-8
0.023, -2.008e-8
0.024, -2.058e-8
0.025, -2.125e-8
0.026, -2.196e-8
0.027, -2.264e-8
0.028, -2.331e-8
0.029, -2.393e-8
0.030, -2.476e-8
0.031, -2.553e-8
0.032, -2.621e-8
0.033, -2.700e-8
0.034, -2.784e-8
0.035, -2.870e-8
0.036, -2.962e-8
0.037, -3.036e-8
0.038, -3.134e-8
0.039, -3.233e-8
0.040, -3.322e-8
0.041, -3.414e-8
0.042, -3.519e-8
0.043, -3.620e-8
0.044, -3.728e-8
0.045, -3.820e-8
0.046, -3.940e-8
0.047, -4.054e-8
0.048, -4.165e-8
0.049, -4.279e-8
0.050, -4.396e-8
0.051, -4.519e-8
0.052, -4.648e-8
0.053, -4.762e-8
0.054, -4.888e-8
0.055, -5.023e-8
0.056, -5.149e-8
0.057, -5.285e-8
0.058, -5.414e-8
0.059, -5.549e-8
0.060, -5.703e-8
0.061, -5.826e-8
0.062, -5.962e-8
0.063, -6.115e-8
0.064, -6.257e-8
0.065, -6.411e-8
0.066, -6.537e-8
0.067, -6.694e-8
0.068, -6.841e-8
0.069, -6.980e-8
0.070, -7.131e-8
0.071, -7.281e-8
0.072, -7.420e-8
0.073, -7.583e-8
0.074, -7.715e-8
0.075, -7.869e-8
0.076, -8.014e-8
0.077, -8.161e-8
0.078, -8.306e-8
0.079, -8.450e-8
0.080, -8.583e-8
0.081, -8.737e-8
0.082, -8.863e-8
0.083, -8.995e-8
0.084, -9.137e-8
0.085, -9.263e-8
0.086, -9.398e-8
0.087, -9.521e-8
0.088, -9.644e-8
0.089, -9.773e-8
0.090, -9.884e-8
0.091, -9.989e-8
0.092, -1.012e-7
0.093, -1.021e-7
0.094, -1.032e-7
0.095, -1.042e-7
0.096, -1.051e-7
0.097, -1.061e-7
0.098, -1.070e-7
0.099, -1.077e-7
0.100, -1.086e-7
0.101, -1.093e-7
0.102, -1.102e-7
0.103, -1.108e-7
0.104, -1.114e-7
0.105, -1.121e-7
0.106, -1.126e-7
0.107, -1.130e-7
0.108, -1.135e-7
0.109, -1.139e-7
0.110, -1.143e-7
0.111, -1.147e-7
0.112, -1.148e-7
0.113, -1.152e-7
0.114, -1.154e-7
0.115, -1.156e-7
0.116, -1.157e-7
0.117, -1.158e-7
0.118, -1.159e-7
0.119, -1.159e-7
0.120, -1.158e-7
0.121, -1.159e-7
0.122, -1.158e-7
0.123, -1.157e-7
0.124, -1.156e-7
0.125, -1.154e-7
0.126, -1.152e-7
0.127, -1.151e-7
0.128, -1.147e-7
0.129, -1.145e-7
0.130, -1.143e-7
0.131, -1.140e-7
0.132, -1.136e-7
0.133, -1.132e-7
0.134, -1.129e-7
0.135, -1.126e-7
0.136, -1.121e-7
0.137, -1.117e-7
0.138, -1.113e-7
0.139, -1.109e-7
0.140, -1.105e-7
0.141, -1.099e-7
0.142, -1.095e-7
0.143, -1.091e-7
0.144, -1.085e-7
0.145, -1.080e-7
0.146, -1.075e-7
0.147, -1.070e-7
0.148, -1.066e-7
0.149, -1.059e-7
0.150, -1.055e-7
0.151, -1.050e-7
0.152, -1.044e-7
0.153, -1.039e-7
0.154, -1.033e-7
0.155, -1.028e-7
0.156, -1.024e-7
0.157, -1.018e-7
0.158, -1.012e-7
0.159, -1.007e-7
0.160, -1.002e-7
0.161, -9.970e-8
0.162, -9.909e-8
0.163, -9.860e-8
0.164, -9.816e-8
0.165, -9.761e-8
0.166, -9.703e-8
0.167, -9.656e-8
0.168, -9.604e-8
0.169, -9.561e-8
0.170, -9.503e-8
0.171, -9.450e-8
0.172, -9.410e-8
0.173, -9.361e-8
0.174, -9.309e-8
0.175, -9.260e-8
0.176, -9.210e-8
0.177, -9.177e-8
0.178, -9.118e-8
0.179, -9.069e-8
0.180, -9.032e-8
0.181, -8.992e-8
0.182, -8.940e-8
0.183, -8.894e-8
0.184, -8.850e-8
0.185, -8.817e-8
0.186, -8.774e-8
0.187, -8.721e-8
0.188, -8.687e-8
0.189, -8.650e-8
0.190, -8.610e-8
0.191, -8.561e-8
0.192, -8.521e-8
0.193, -8.494e-8
0.194, -8.457e-8
0.195, -8.404e-8
0.196, -8.374e-8
0.197, -8.343e-8
0.198, -8.306e-8
0.199, -8.266e-8
0.200, -8.223e-8
0.201, -8.201e-8
0.202, -8.171e-8
0.203, -8.127e-8
0.204, -8.094e-8
0.205, -8.066e-8
0.206, -8.041e-8
0.207, -8.001e-8
0.208, -7.961e-8
0.209, -7.940e-8
0.210, -7.915e-8
0.211, -7.878e-8
0.212, -7.844e-8
0.213, -7.817e-8
0.214, -7.795e-8
0.215, -7.768e-8
0.216, -7.728e-8
0.217, -7.706e-8
0.218, -7.681e-8
0.219, -7.657e-8
0.220, -7.623e-8
0.221, -7.595e-8
0.222, -7.577e-8
0.223, -7.555e-8
0.224, -7.518e-8
0.225, -7.494e-8
0.226, -7.478e-8
0.227, -7.457e-8
0.228, -7.429e-8
0.229, -7.398e-8
0.230, -7.380e-8
0.231, -7.368e-8
0.232, -7.337e-8
0.233, -7.309e-8
0.234, -7.291e-8
0.235, -7.275e-8
0.236, -7.257e-8
0.237, -7.223e-8
0.238, -7.208e-8
0.239, -7.198e-8
0.240, -7.171e-8
0.241, -7.143e-8
0.242, -7.128e-8
0.243, -7.115e-8
0.244, -7.100e-8
0.245, -7.066e-8
0.246, -7.054e-8
0.247, -7.041e-8
0.248, -7.023e-8
0.249, -7.001e-8
0.250, -6.980e-8
0.251, -6.968e-8
0.252, -6.958e-8
0.253, -6.931e-8
0.254, -6.912e-8
0.255, -6.903e-8
0.256, -6.891e-8
0.257, -6.872e-8
0.258, -6.848e-8
0.259, -6.838e-8
0.260, -6.832e-8
0.261, -6.811e-8
0.262, -6.789e-8
0.263, -6.780e-8
0.264, -6.771e-8
0.265, -6.758e-8
0.266, -6.734e-8
0.267, -6.721e-8
0.268, -6.715e-8
0.269, -6.703e-8
0.270, -6.678e-8
0.271, -6.669e-8
0.272, -6.660e-8
0.273, -6.654e-8
0.274, -6.632e-8
0.275, -6.617e-8
0.276, -6.614e-8
0.277, -6.605e-8
0.278, -6.583e-8
0.279, -6.571e-8
0.280, -6.562e-8
0.281, -6.562e-8
0.282, -6.543e-8
0.283, -6.522e-8
0.284, -6.518e-8
0.285, -6.512e-8
0.286, -6.500e-8
0.287, -6.485e-8
0.288, -6.472e-8
0.289, -6.475e-8
0.290, -6.463e-8
0.291, -6.438e-8
0.292, -6.438e-8
0.293, -6.432e-8
0.294, -6.423e-8
0.295, -6.405e-8
0.296, -6.395e-8
0.297, -6.395e-8
0.298, -6.389e-8
0.299, -6.368e-8
0.300, -6.079e-8
0.299, -5.700e-8
0.298, -5.629e-8
0.297, -5.571e-8
0.296, -5.531e-8
0.295, -5.494e-8
0.294, -5.476e-8
0.293, -5.439e-8
0.292, -5.402e-8
0.291, -5.386e-8
0.290, -5.365e-8
0.289, -5.337e-8
0.288, -5.309e-8
0.287, -5.288e-8
0.286, -5.279e-8
0.285, -5.257e-8
0.284, -5.223e-8
0.283, -5.211e-8
0.282, -5.199e-8
0.281, -5.180e-8
0.280, -5.156e-8
0.279, -5.137e-8
0.278, -5.131e-8
0.277, -5.116e-8
0.276, -5.088e-8
0.275, -5.072e-8
0.274, -5.063e-8
0.273, -5.054e-8
0.272, -5.032e-8
0.271, -5.011e-8
0.270, -5.002e-8
0.269, -4.996e-8
0.268, -4.974e-8
0.267, -4.956e-8
0.266, -4.946e-8
0.265, -4.940e-8
0.264, -4.925e-8
0.263, -4.900e-8
0.262, -4.891e-8
0.261, -4.888e-8
0.260, -4.869e-8
0.259, -4.851e-8
0.258, -4.839e-8
0.257, -4.833e-8
0.256, -4.823e-8
0.255, -4.799e-8
0.254, -4.789e-8
0.253, -4.783e-8
0.252, -4.774e-8
0.251, -4.753e-8
0.250, -4.740e-8
0.249, -4.734e-8
0.248, -4.728e-8
0.247, -4.703e-8
0.246, -4.691e-8
0.245, -4.685e-8
0.244, -4.676e-8
0.243, -4.660e-8
0.242, -4.639e-8
0.241, -4.636e-8
0.240, -4.629e-8
0.239, -4.614e-8
0.238, -4.593e-8
0.237, -4.586e-8
0.236, -4.577e-8
0.235, -4.568e-8
0.234, -4.543e-8
0.233, -4.537e-8
0.232, -4.534e-8
0.231, -4.519e-8
0.230, -4.494e-8
0.229, -4.485e-8
0.228, -4.479e-8
0.227, -4.473e-8
0.226, -4.448e-8
0.225, -4.433e-8
0.224, -4.429e-8
0.223, -4.417e-8
0.222, -4.396e-8
0.221, -4.383e-8
0.220, -4.371e-8
0.219, -4.368e-8
0.218, -4.343e-8
0.217, -4.325e-8
0.216, -4.319e-8
0.215, -4.306e-8
0.214, -4.291e-8
0.213, -4.270e-8
0.212, -4.254e-8
0.211, -4.251e-8
0.210, -4.230e-8
0.209, -4.205e-8
0.208, -4.196e-8
0.207, -4.180e-8
0.206, -4.168e-8
0.205, -4.140e-8
0.204, -4.122e-8
0.203, -4.116e-8
0.202, -4.097e-8
0.201, -4.070e-8
0.200, -4.051e-8
0.199, -4.036e-8
0.198, -4.023e-8
0.197, -3.993e-8
0.196, -3.968e-8
0.195, -3.956e-8
0.194, -3.937e-8
0.193, -3.910e-8
0.192, -3.882e-8
0.191, -3.860e-8
0.190, -3.848e-8
0.189, -3.820e-8
0.188, -3.783e-8
0.187, -3.765e-8
0.186, -3.743e-8
0.185, -3.716e-8
0.184, -3.682e-8
0.183, -3.651e-8
0.182, -3.633e-8
0.181, -3.599e-8
0.180, -3.556e-8
0.179, -3.528e-8
0.178, -3.500e-8
0.177, -3.473e-8
0.176, -3.430e-8
0.175, -3.387e-8
0.174, -3.359e-8
0.173, -3.325e-8
0.172, -3.276e-8
0.171, -3.239e-8
0.170, -3.199e-8
0.169, -3.165e-8
0.168, -3.116e-8
0.167, -3.057e-8
0.166, -3.020e-8
0.165, -2.977e-8
0.164, -2.922e-8
0.163, -2.870e-8
0.162, -2.817e-8
0.161, -2.771e-8
0.160, -2.719e-8
0.159, -2.645e-8
0.158, -2.596e-8
0.157, -2.541e-8
0.156, -2.476e-8
0.155, -2.411e-8
0.154, -2.337e-8
0.153, -2.279e-8
0.152, -2.211e-8
0.151, -2.128e-8
0.150, -2.064e-8
0.149, -1.990e-8
0.148, -1.913e-8
0.147, -1.833e-8
0.146, -1.747e-8
0.145, -1.670e-8
0.144, -1.590e-8
0.143, -1.488e-8
0.142, -1.402e-8
0.141, -1.313e-8
0.140, -1.218e-8
0.139, -1.125e-8
0.138, -1.008e-8
0.137, -9.192e-9
0.136, -8.207e-9
0.135, -7.100e-9
0.134, -6.023e-9
0.133, -4.916e-9
0.132, -3.777e-9
0.131, -2.701e-9
0.130, -1.378e-9
0.129, -2.701e-10
0.128, 9.298e-10
0.127, 2.222e-9
0.126, 3.483e-9
0.125, 4.745e-9
0.124, 6.006e-9
0.123, 7.298e-9
0.122, 8.744e-9
0.121, 1.010e-8
0.120, 1.133e-8
0.119, 1.281e-8
0.118, 1.416e-8
0.117, 1.564e-8
0.116, 1.708e-8
0.115, 1.847e-8
0.114, 1.997e-8
0.113, 2.145e-8
0.112, 2.277e-8
0.111, 2.437e-8
0.110, 2.579e-8
0.109, 2.736e-8
0.108, 2.877e-8
0.107, 3.019e-8
0.106, 3.182e-8
0.105, 3.326e-8
0.104, 3.468e-8
0.103, 3.622e-8
0.102, 3.766e-8
0.101, 3.920e-8
0.100, 4.059e-8
0.099, 4.191e-8
0.098, 4.342e-8
0.097, 4.477e-8
0.096, 4.612e-8
0.095, 4.751e-8
0.094, 4.877e-8
0.093, 5.018e-8
0.092, 5.145e-8
0.091, 5.265e-8
0.090, 5.394e-8
0.089, 5.505e-8
0.088, 5.625e-8
0.087, 5.738e-8
0.086, 5.840e-8
0.085, 5.951e-8
0.084, 6.064e-8
0.083, 6.138e-8
0.082, 6.252e-8
0.081, 6.332e-8
0.080, 6.424e-8
0.079, 6.504e-8
0.078, 6.581e-8
0.077, 6.655e-8
0.076, 6.735e-8
0.075, 6.791e-8
0.074, 6.858e-8
0.073, 6.907e-8
0.072, 6.966e-8
0.071, 7.024e-8
0.070, 7.049e-8
0.069, 7.095e-8
0.068, 7.138e-8
0.067, 7.163e-8
0.066, 7.203e-8
0.065, 7.218e-8
0.064, 7.240e-8
0.063, 7.274e-8
0.062, 7.270e-8
0.061, 7.283e-8
0.060, 7.295e-8
0.059, 7.301e-8
0.058, 7.301e-8
0.057, 7.292e-8
0.056, 7.286e-8
0.055, 7.289e-8
0.054, 7.270e-8
0.053, 7.255e-8
0.052, 7.240e-8
0.051, 7.224e-8
0.050, 7.206e-8
0.049, 7.178e-8
0.048, 7.144e-8
0.047, 7.129e-8
0.046, 7.095e-8
0.045, 7.061e-8
0.044, 7.027e-8
0.043, 6.991e-8
0.042, 6.969e-8
0.041, 6.923e-8
0.040, 6.877e-8
0.039, 6.846e-8
0.038, 6.809e-8
0.037, 6.763e-8
0.036, 6.720e-8
0.035, 6.671e-8
0.034, 6.640e-8
0.033, 6.591e-8
0.032, 6.532e-8
0.031, 6.501e-8
0.030, 6.458e-8
0.029, 6.406e-8
0.028, 6.357e-8
0.027, 6.304e-8
0.026, 6.271e-8
0.025, 6.221e-8
0.024, 6.166e-8
0.023, 6.120e-8
0.022, 6.074e-8
0.021, 6.034e-8
0.020, 5.981e-8
0.019, 5.926e-8
0.018, 5.889e-8
0.017, 5.846e-8
0.016, 5.791e-8
0.015, 5.745e-8
0.014, 5.698e-8
0.013, 5.665e-8
0.012, 5.615e-8
0.011, 5.560e-8
0.010, 5.517e-8
0.009, 5.483e-8
0.008, 5.431e-8
0.007, 5.388e-8
0.006, 5.342e-8
0.005, 5.308e-8
0.004, 5.268e-8
0.003, 5.215e-8
0.002, 5.175e-8
0.001, 5.145e-8
0.000, 5.120e-8
-0.001, 5.065e-8
-0.002, 5.018e-8
-0.003, 4.988e-8
-0.004, 4.954e-8
-0.005, 4.908e-8
-0.006, 4.868e-8
-0.007, 4.840e-8
-0.008, 4.806e-8
-0.009, 4.766e-8
-0.010, 4.720e-8
-0.011, 4.695e-8
-0.012, 4.668e-8
-0.013, 4.631e-8
-0.014, 4.591e-8
-0.015, 4.560e-8
-0.016, 4.535e-8
-0.017, 4.505e-8
-0.018, 4.465e-8
-0.019, 4.434e-8
-0.020, 4.419e-8
-0.021, 4.382e-8
-0.022, 4.351e-8
-0.023, 4.320e-8
-0.024, 4.302e-8
-0.025, 4.277e-8
-0.026, 4.240e-8
-0.027, 4.212e-8
-0.028, 4.197e-8
-0.029, 4.169e-8
-0.030, 4.142e-8
-0.031, 4.114e-8
-0.032, 4.092e-8
-0.033, 4.077e-8
-0.034, 4.046e-8
-0.035, 4.019e-8
-0.036, 4.000e-8
-0.037, 3.985e-8
-0.038, 3.960e-8
-0.039, 3.932e-8
-0.040, 3.911e-8
-0.041, 3.905e-8
-0.042, 3.877e-8
-0.043, 3.849e-8
-0.044, 3.834e-8
-0.045, 3.822e-8
-0.046, 3.806e-8
-0.047, 3.779e-8
-0.048, 3.757e-8
-0.049, 3.754e-8
-0.050, 3.736e-8
-0.051, 3.714e-8
-0.052, 3.696e-8
-0.053, 3.683e-8
-0.054, 3.674e-8
-0.055, 3.652e-8
-0.056, 3.631e-8
-0.057, 3.625e-8
-0.058, 3.613e-8
-0.059, 3.594e-8
-0.060, 3.576e-8
-0.061, 3.563e-8
-0.062, 3.563e-8
-0.063, 3.545e-8
-0.064, 3.523e-8
-0.065, 3.514e-8
-0.066, 3.511e-8
-0.067, 3.496e-8
-0.068, 3.480e-8
-0.069, 3.465e-8
-0.070, 3.468e-8
-0.071, 3.456e-8
-0.072, 3.434e-8
-0.073, 3.428e-8
-0.074, 3.425e-8
-0.075, 3.413e-8
-0.076, 3.403e-8
-0.077, 3.385e-8
-0.078, 3.388e-8
-0.079, 3.382e-8
-0.080, 3.366e-8
-0.081, 3.354e-8
-0.082, 3.351e-8
-0.083, 3.351e-8
-0.084, 3.339e-8
-0.085, 3.320e-8
-0.086, 3.323e-8
-0.087, 3.323e-8
-0.088, 3.311e-8
-0.089, 3.302e-8
-0.090, 3.293e-8
-0.091, 3.299e-8
-0.092, 3.289e-8
-0.093, 3.274e-8
-0.094, 3.274e-8
-0.095, 3.277e-8
-0.096, 3.268e-8
-0.097, 3.262e-8
-0.098, 3.253e-8
-0.099, 3.259e-8
-0.100, 3.256e-8
-0.101, 3.243e-8
-0.102, 3.240e-8
-0.103, 3.243e-8
-0.104, 3.243e-8
-0.105, 3.237e-8
-0.106, 3.225e-8
-0.107, 3.228e-8
-0.108, 3.237e-8
-0.109, 3.225e-8
-0.110, 3.219e-8
-0.111, 3.219e-8
-0.112, 3.225e-8
-0.113, 3.225e-8
-0.114, 3.213e-8
-0.115, 3.213e-8
-0.116, 3.225e-8
-0.117, 3.219e-8
-0.118, 3.213e-8
-0.119, 3.213e-8
-0.120, 3.219e-8
-0.121, 3.222e-8
-0.122, 3.209e-8
-0.123, 3.213e-8
-0.124, 3.225e-8
-0.125, 3.222e-8
-0.126, 3.222e-8
-0.127, 3.216e-8
-0.128, 3.228e-8
-0.129, 3.234e-8
-0.130, 3.228e-8
-0.131, 3.222e-8
-0.132, 3.234e-8
-0.133, 3.240e-8
-0.134, 3.237e-8
-0.135, 3.234e-8
-0.136, 3.240e-8
-0.137, 3.256e-8
-0.138, 3.249e-8
-0.139, 3.246e-8
-0.140, 3.256e-8
-0.141, 3.268e-8
-0.142, 3.268e-8
-0.143, 3.268e-8
-0.144, 3.271e-8
-0.145, 3.286e-8
-0.146, 3.286e-8
-0.147, 3.286e-8
-0.148, 3.293e-8
-0.149, 3.305e-8
-0.150, 3.311e-8
-0.151, 3.311e-8
-0.152, 3.311e-8
-0.153, 3.329e-8
-0.154, 3.339e-8
-0.155, 3.339e-8
-0.156, 3.342e-8
-0.157, 3.351e-8
-0.158, 3.366e-8
-0.159, 3.366e-8
-0.160, 3.366e-8
-0.161, 3.382e-8
-0.162, 3.397e-8
-0.163, 3.400e-8
-0.164, 3.403e-8
-0.165, 3.409e-8
-0.166, 3.431e-8
-0.167, 3.437e-8
-0.168, 3.434e-8
-0.169, 3.446e-8
-0.170, 3.465e-8
-0.171, 3.471e-8
-0.172, 3.480e-8
-0.173, 3.483e-8
-0.174, 3.505e-8
-0.175, 3.517e-8
-0.176, 3.517e-8
-0.177, 3.526e-8
-0.178, 3.545e-8
-0.179, 3.560e-8
-0.180, 3.566e-8
-0.181, 3.569e-8
-0.182, 3.591e-8
-0.183, 3.609e-8
-0.184, 3.613e-8
-0.185, 3.622e-8
-0.186, 3.637e-8
-0.187, 3.656e-8
-0.188, 3.668e-8
-0.189, 3.671e-8
-0.190, 3.689e-8
-0.191, 3.714e-8
-0.192, 3.720e-8
-0.193, 3.732e-8
-0.194, 3.742e-8
-0.195, 3.769e-8
-0.196, 3.782e-8
-0.197, 3.791e-8
-0.198, 3.800e-8
-0.199, 3.828e-8
