Mar. 16, 2023   10:17:41
Cyclic Voltammetry
File: c:/users/oliverrz/desktop/electrolab/data/2023_03_16\fcmeoh_macros_1_mm\electrode8_cv_150mvs_1_mm.bin
Data Source:  Experiment
Instrument Model:  CHI760E
Header: CV
Note: 

Init E (V) = -0.2
High E (V) = 0.3
Low E (V) = -0.2
Final E (V) = -0.2
Init P/N = P
Scan Rate (V/s) = 0.15
Segment = 3
Sample Interval (V) = 0.001
Quiet Time (sec) = 2
Sensitivity (A/V) = 1e-7

Results:

Channel 1:
Segment 1:
Ep = 0.125V
ip = -8.366e-8A
Ah = -3.524e-8C

Segment 2:
Ep = 0.061V
ip = 7.534e-8A
Ah = 3.171e-8C

Segment 3:

Potential/V, Current/A

-0.200, 5.257e-9
-0.199, 4.859e-9
-0.198, 4.778e-9
-0.197, 4.525e-9
-0.196, 4.688e-9
-0.195, 4.419e-9
-0.194, 4.473e-9
-0.193, 4.433e-9
-0.192, 4.227e-9
-0.191, 4.415e-9
-0.190, 4.135e-9
-0.189, 4.226e-9
-0.188, 4.192e-9
-0.187, 3.979e-9
-0.186, 4.194e-9
-0.185, 3.913e-9
-0.184, 3.989e-9
-0.183, 3.984e-9
-0.182, 3.764e-9
-0.181, 3.961e-9
-0.180, 3.709e-9
-0.179, 3.774e-9
-0.178, 3.769e-9
-0.177, 3.568e-9
-0.176, 3.771e-9
-0.175, 3.519e-9
-0.174, 3.596e-9
-0.173, 3.595e-9
-0.172, 3.375e-9
-0.171, 3.598e-9
-0.170, 3.341e-9
-0.169, 3.417e-9
-0.168, 3.422e-9
-0.167, 3.219e-9
-0.166, 3.413e-9
-0.165, 3.184e-9
-0.164, 3.262e-9
-0.163, 3.247e-9
-0.162, 3.068e-9
-0.161, 3.257e-9
-0.160, 3.015e-9
-0.159, 3.120e-9
-0.158, 3.097e-9
-0.157, 2.904e-9
-0.156, 3.118e-9
-0.155, 2.869e-9
-0.154, 2.953e-9
-0.153, 2.951e-9
-0.152, 2.767e-9
-0.151, 2.977e-9
-0.150, 2.726e-9
-0.149, 2.823e-9
-0.148, 2.804e-9
-0.147, 2.633e-9
-0.146, 2.847e-9
-0.145, 2.578e-9
-0.144, 2.705e-9
-0.143, 2.694e-9
-0.142, 2.485e-9
-0.141, 2.718e-9
-0.140, 2.464e-9
-0.139, 2.556e-9
-0.138, 2.575e-9
-0.137, 2.370e-9
-0.136, 2.593e-9
-0.135, 2.359e-9
-0.134, 2.442e-9
-0.133, 2.442e-9
-0.132, 2.265e-9
-0.131, 2.474e-9
-0.130, 2.230e-9
-0.129, 2.328e-9
-0.128, 2.332e-9
-0.127, 2.136e-9
-0.126, 2.359e-9
-0.125, 2.127e-9
-0.124, 2.209e-9
-0.123, 2.220e-9
-0.122, 2.039e-9
-0.121, 2.237e-9
-0.120, 2.022e-9
-0.119, 2.114e-9
-0.118, 2.093e-9
-0.117, 1.934e-9
-0.116, 2.144e-9
-0.115, 1.890e-9
-0.114, 2.004e-9
-0.113, 1.992e-9
-0.112, 1.813e-9
-0.111, 2.048e-9
-0.110, 1.788e-9
-0.109, 1.895e-9
-0.108, 1.902e-9
-0.107, 1.709e-9
-0.106, 1.934e-9
-0.105, 1.690e-9
-0.104, 1.804e-9
-0.103, 1.778e-9
-0.102, 1.610e-9
-0.101, 1.837e-9
-0.100, 1.578e-9
-0.099, 1.696e-9
-0.098, 1.689e-9
-0.097, 1.492e-9
-0.096, 1.739e-9
-0.095, 1.481e-9
-0.094, 1.581e-9
-0.093, 1.591e-9
-0.092, 1.405e-9
-0.091, 1.612e-9
-0.090, 1.378e-9
-0.089, 1.476e-9
-0.088, 1.472e-9
-0.087, 1.307e-9
-0.086, 1.509e-9
-0.085, 1.269e-9
-0.084, 1.377e-9
-0.083, 1.371e-9
-0.082, 1.190e-9
-0.081, 1.401e-9
-0.080, 1.165e-9
-0.079, 1.266e-9
-0.078, 1.252e-9
-0.077, 1.078e-9
-0.076, 1.284e-9
-0.075, 1.049e-9
-0.074, 1.153e-9
-0.073, 1.124e-9
-0.072, 9.646e-10
-0.071, 1.179e-9
-0.070, 9.014e-10
-0.069, 1.032e-9
-0.068, 1.009e-9
-0.067, 8.194e-10
-0.066, 1.047e-9
-0.065, 7.748e-10
-0.064, 8.807e-10
-0.063, 8.773e-10
-0.062, 6.773e-10
-0.061, 8.917e-10
-0.060, 6.392e-10
-0.059, 7.294e-10
-0.058, 7.127e-10
-0.057, 5.202e-10
-0.056, 7.379e-10
-0.055, 4.595e-10
-0.054, 5.647e-10
-0.053, 5.413e-10
-0.052, 3.352e-10
-0.051, 5.510e-10
-0.050, 2.856e-10
-0.049, 3.584e-10
-0.048, 3.625e-10
-0.047, 1.481e-10
-0.046, 3.299e-10
-0.045, 8.974e-11
-0.044, 1.640e-10
-0.043, 1.169e-10
-0.042, -6.207e-11
-0.041, 1.045e-10
-0.040, -1.587e-10
-0.039, -7.530e-11
-0.038, -1.327e-10
-0.037, -3.332e-10
-0.036, -1.458e-10
-0.035, -4.303e-10
-0.034, -3.548e-10
-0.033, -4.128e-10
-0.032, -6.281e-10
-0.031, -4.595e-10
-0.030, -7.498e-10
-0.029, -6.787e-10
-0.028, -7.593e-10
-0.027, -9.656e-10
-0.026, -8.197e-10
-0.025, -1.133e-9
-0.024, -1.059e-9
-0.023, -1.142e-9
-0.022, -1.391e-9
-0.021, -1.228e-9
-0.020, -1.556e-9
-0.019, -1.519e-9
-0.018, -1.599e-9
-0.017, -1.866e-9
-0.016, -1.738e-9
-0.015, -2.052e-9
-0.014, -2.056e-9
-0.013, -2.166e-9
-0.012, -2.425e-9
-0.011, -2.325e-9
-0.010, -2.671e-9
-0.009, -2.674e-9
-0.008, -2.801e-9
-0.007, -3.105e-9
-0.006, -3.021e-9
-0.005, -3.388e-9
-0.004, -3.432e-9
-0.003, -3.572e-9
-0.002, -3.888e-9
-0.001, -3.855e-9
-0.000, -4.332e-9
0.001, -4.332e-9
0.002, -4.534e-9
0.003, -4.849e-9
0.004, -4.853e-9
0.005, -5.289e-9
0.006, -5.351e-9
0.007, -5.616e-9
0.008, -5.986e-9
0.009, -6.001e-9
0.010, -6.482e-9
0.011, -6.619e-9
0.012, -6.898e-9
0.013, -7.332e-9
0.014, -7.403e-9
0.015, -7.922e-9
0.016, -8.087e-9
0.017, -8.425e-9
0.018, -8.912e-9
0.019, -9.014e-9
0.020, -9.606e-9
0.021, -9.830e-9
0.022, -1.023e-8
0.023, -1.077e-8
0.024, -1.092e-8
0.025, -1.158e-8
0.026, -1.190e-8
0.027, -1.232e-8
0.028, -1.294e-8
0.029, -1.319e-8
0.030, -1.386e-8
0.031, -1.428e-8
0.032, -1.478e-8
0.033, -1.546e-8
0.034, -1.581e-8
0.035, -1.656e-8
0.036, -1.704e-8
0.037, -1.764e-8
0.038, -1.838e-8
0.039, -1.882e-8
0.040, -1.965e-8
0.041, -2.020e-8
0.042, -2.090e-8
0.043, -2.170e-8
0.044, -2.226e-8
0.045, -2.317e-8
0.046, -2.380e-8
0.047, -2.464e-8
0.048, -2.549e-8
0.049, -2.614e-8
0.050, -2.717e-8
0.051, -2.787e-8
0.052, -2.879e-8
0.053, -2.976e-8
0.054, -3.046e-8
0.055, -3.162e-8
0.056, -3.241e-8
0.057, -3.337e-8
0.058, -3.448e-8
0.059, -3.524e-8
0.060, -3.646e-8
0.061, -3.729e-8
0.062, -3.836e-8
0.063, -3.955e-8
0.064, -4.040e-8
0.065, -4.166e-8
0.066, -4.263e-8
0.067, -4.372e-8
0.068, -4.498e-8
0.069, -4.582e-8
0.070, -4.714e-8
0.071, -4.820e-8
0.072, -4.926e-8
0.073, -5.053e-8
0.074, -5.150e-8
0.075, -5.276e-8
0.076, -5.385e-8
0.077, -5.506e-8
0.078, -5.621e-8
0.079, -5.721e-8
0.080, -5.845e-8
0.081, -5.951e-8
0.082, -6.065e-8
0.083, -6.179e-8
0.084, -6.274e-8
0.085, -6.399e-8
0.086, -6.493e-8
0.087, -6.604e-8
0.088, -6.713e-8
0.089, -6.803e-8
0.090, -6.918e-8
0.091, -7.003e-8
0.092, -7.108e-8
0.093, -7.202e-8
0.094, -7.280e-8
0.095, -7.392e-8
0.096, -7.453e-8
0.097, -7.547e-8
0.098, -7.640e-8
0.099, -7.694e-8
0.100, -7.793e-8
0.101, -7.850e-8
0.102, -7.927e-8
0.103, -8.006e-8
0.104, -8.049e-8
0.105, -8.125e-8
0.106, -8.172e-8
0.107, -8.226e-8
0.108, -8.284e-8
0.109, -8.309e-8
0.110, -8.374e-8
0.111, -8.405e-8
0.112, -8.440e-8
0.113, -8.485e-8
0.114, -8.498e-8
0.115, -8.543e-8
0.116, -8.560e-8
0.117, -8.583e-8
0.118, -8.604e-8
0.119, -8.613e-8
0.120, -8.635e-8
0.121, -8.635e-8
0.122, -8.648e-8
0.123, -8.659e-8
0.124, -8.644e-8
0.125, -8.662e-8
0.126, -8.643e-8
0.127, -8.647e-8
0.128, -8.647e-8
0.129, -8.618e-8
0.130, -8.629e-8
0.131, -8.597e-8
0.132, -8.588e-8
0.133, -8.578e-8
0.134, -8.539e-8
0.135, -8.543e-8
0.136, -8.503e-8
0.137, -8.484e-8
0.138, -8.467e-8
0.139, -8.421e-8
0.140, -8.418e-8
0.141, -8.372e-8
0.142, -8.346e-8
0.143, -8.328e-8
0.144, -8.273e-8
0.145, -8.262e-8
0.146, -8.217e-8
0.147, -8.182e-8
0.148, -8.160e-8
0.149, -8.106e-8
0.150, -8.089e-8
0.151, -8.042e-8
0.152, -8.005e-8
0.153, -7.979e-8
0.154, -7.924e-8
0.155, -7.907e-8
0.156, -7.855e-8
0.157, -7.818e-8
0.158, -7.792e-8
0.159, -7.734e-8
0.160, -7.715e-8
0.161, -7.663e-8
0.162, -7.628e-8
0.163, -7.600e-8
0.164, -7.544e-8
0.165, -7.526e-8
0.166, -7.476e-8
0.167, -7.444e-8
0.168, -7.414e-8
0.169, -7.356e-8
0.170, -7.344e-8
0.171, -7.289e-8
0.172, -7.258e-8
0.173, -7.233e-8
0.174, -7.173e-8
0.175, -7.164e-8
0.176, -7.112e-8
0.177, -7.078e-8
0.178, -7.059e-8
0.179, -7.001e-8
0.180, -6.991e-8
0.181, -6.941e-8
0.182, -6.910e-8
0.183, -6.889e-8
0.184, -6.835e-8
0.185, -6.825e-8
0.186, -6.779e-8
0.187, -6.750e-8
0.188, -6.731e-8
0.189, -6.677e-8
0.190, -6.671e-8
0.191, -6.628e-8
0.192, -6.598e-8
0.193, -6.582e-8
0.194, -6.534e-8
0.195, -6.525e-8
0.196, -6.483e-8
0.197, -6.460e-8
0.198, -6.442e-8
0.199, -6.396e-8
0.200, -6.390e-8
0.201, -6.349e-8
0.202, -6.327e-8
0.203, -6.313e-8
0.204, -6.266e-8
0.205, -6.265e-8
0.206, -6.225e-8
0.207, -6.203e-8
0.208, -6.190e-8
0.209, -6.147e-8
0.210, -6.146e-8
0.211, -6.106e-8
0.212, -6.087e-8
0.213, -6.078e-8
0.214, -6.033e-8
0.215, -6.037e-8
0.216, -5.998e-8
0.217, -5.980e-8
0.218, -5.974e-8
0.219, -5.929e-8
0.220, -5.934e-8
0.221, -5.899e-8
0.222, -5.880e-8
0.223, -5.876e-8
0.224, -5.835e-8
0.225, -5.838e-8
0.226, -5.806e-8
0.227, -5.789e-8
0.228, -5.783e-8
0.229, -5.744e-8
0.230, -5.750e-8
0.231, -5.718e-8
0.232, -5.703e-8
0.233, -5.700e-8
0.234, -5.662e-8
0.235, -5.669e-8
0.236, -5.639e-8
0.237, -5.625e-8
0.238, -5.621e-8
0.239, -5.586e-8
0.240, -5.591e-8
0.241, -5.561e-8
0.242, -5.550e-8
0.243, -5.549e-8
0.244, -5.512e-8
0.245, -5.522e-8
0.246, -5.491e-8
0.247, -5.481e-8
0.248, -5.479e-8
0.249, -5.443e-8
0.250, -5.455e-8
0.251, -5.425e-8
0.252, -5.415e-8
0.253, -5.415e-8
0.254, -5.380e-8
0.255, -5.393e-8
0.256, -5.364e-8
0.257, -5.355e-8
0.258, -5.356e-8
0.259, -5.322e-8
0.260, -5.336e-8
0.261, -5.308e-8
0.262, -5.300e-8
0.263, -5.303e-8
0.264, -5.268e-8
0.265, -5.279e-8
0.266, -5.255e-8
0.267, -5.247e-8
0.268, -5.249e-8
0.269, -5.218e-8
0.270, -5.230e-8
0.271, -5.205e-8
0.272, -5.197e-8
0.273, -5.200e-8
0.274, -5.171e-8
0.275, -5.183e-8
0.276, -5.158e-8
0.277, -5.152e-8
0.278, -5.156e-8
0.279, -5.127e-8
0.280, -5.139e-8
0.281, -5.116e-8
0.282, -5.112e-8
0.283, -5.114e-8
0.284, -5.084e-8
0.285, -5.099e-8
0.286, -5.075e-8
0.287, -5.072e-8
0.288, -5.074e-8
0.289, -5.045e-8
0.290, -5.063e-8
0.291, -5.038e-8
0.292, -5.035e-8
0.293, -5.039e-8
0.294, -5.010e-8
0.295, -5.027e-8
0.296, -5.003e-8
0.297, -4.999e-8
0.298, -5.004e-8
0.299, -4.975e-8
0.300, -4.794e-8
0.299, -4.653e-8
0.298, -4.625e-8
0.297, -4.611e-8
0.296, -4.568e-8
0.295, -4.571e-8
0.294, -4.535e-8
0.293, -4.522e-8
0.292, -4.516e-8
0.291, -4.481e-8
0.290, -4.488e-8
0.289, -4.456e-8
0.288, -4.448e-8
0.287, -4.444e-8
0.286, -4.409e-8
0.285, -4.422e-8
0.284, -4.389e-8
0.283, -4.383e-8
0.282, -4.382e-8
0.281, -4.347e-8
0.280, -4.361e-8
0.279, -4.332e-8
0.278, -4.325e-8
0.277, -4.325e-8
0.276, -4.292e-8
0.275, -4.305e-8
0.274, -4.278e-8
0.273, -4.271e-8
0.272, -4.273e-8
0.271, -4.240e-8
0.270, -4.254e-8
0.269, -4.227e-8
0.268, -4.220e-8
0.267, -4.223e-8
0.266, -4.192e-8
0.265, -4.205e-8
0.264, -4.180e-8
0.263, -4.173e-8
0.262, -4.174e-8
0.261, -4.145e-8
0.260, -4.158e-8
0.259, -4.133e-8
0.258, -4.128e-8
0.257, -4.129e-8
0.256, -4.099e-8
0.255, -4.114e-8
0.254, -4.087e-8
0.253, -4.083e-8
0.252, -4.084e-8
0.251, -4.055e-8
0.250, -4.069e-8
0.249, -4.042e-8
0.248, -4.039e-8
0.247, -4.040e-8
0.246, -4.010e-8
0.245, -4.025e-8
0.244, -3.997e-8
0.243, -3.994e-8
0.242, -3.995e-8
0.241, -3.964e-8
0.240, -3.980e-8
0.239, -3.952e-8
0.238, -3.948e-8
0.237, -3.951e-8
0.236, -3.917e-8
0.235, -3.934e-8
0.234, -3.908e-8
0.233, -3.901e-8
0.232, -3.904e-8
0.231, -3.872e-8
0.230, -3.886e-8
0.229, -3.860e-8
0.228, -3.854e-8
0.227, -3.854e-8
0.226, -3.825e-8
0.225, -3.835e-8
0.224, -3.810e-8
0.223, -3.804e-8
0.222, -3.803e-8
0.221, -3.772e-8
0.220, -3.783e-8
0.219, -3.757e-8
0.218, -3.750e-8
0.217, -3.748e-8
0.216, -3.717e-8
0.215, -3.727e-8
0.214, -3.699e-8
0.213, -3.692e-8
0.212, -3.688e-8
0.211, -3.658e-8
0.210, -3.667e-8
0.209, -3.635e-8
0.208, -3.629e-8
0.207, -3.625e-8
0.206, -3.589e-8
0.205, -3.599e-8
0.204, -3.566e-8
0.203, -3.558e-8
0.202, -3.553e-8
0.201, -3.516e-8
0.200, -3.524e-8
0.199, -3.491e-8
0.198, -3.479e-8
0.197, -3.472e-8
0.196, -3.433e-8
0.195, -3.440e-8
0.194, -3.403e-8
0.193, -3.388e-8
0.192, -3.381e-8
0.191, -3.339e-8
0.190, -3.343e-8
0.189, -3.305e-8
0.188, -3.286e-8
0.187, -3.276e-8
0.186, -3.234e-8
0.185, -3.230e-8
0.184, -3.191e-8
0.183, -3.172e-8
0.182, -3.154e-8
0.181, -3.109e-8
0.180, -3.102e-8
0.179, -3.057e-8
0.178, -3.035e-8
0.177, -3.014e-8
0.176, -2.964e-8
0.175, -2.956e-8
0.174, -2.907e-8
0.173, -2.879e-8
0.172, -2.853e-8
0.171, -2.801e-8
0.170, -2.785e-8
0.169, -2.731e-8
0.168, -2.700e-8
0.167, -2.667e-8
0.166, -2.607e-8
0.165, -2.590e-8
0.164, -2.526e-8
0.163, -2.492e-8
0.162, -2.455e-8
0.161, -2.386e-8
0.160, -2.362e-8
0.159, -2.294e-8
0.158, -2.248e-8
0.157, -2.206e-8
0.156, -2.131e-8
0.155, -2.098e-8
0.154, -2.024e-8
0.153, -1.968e-8
0.152, -1.920e-8
0.151, -1.838e-8
0.150, -1.799e-8
0.149, -1.718e-8
0.148, -1.654e-8
0.147, -1.598e-8
0.146, -1.507e-8
0.145, -1.453e-8
0.144, -1.368e-8
0.143, -1.295e-8
0.142, -1.225e-8
0.141, -1.131e-8
0.140, -1.068e-8
0.139, -9.723e-9
0.138, -8.943e-9
0.137, -8.120e-9
0.136, -7.099e-9
0.135, -6.377e-9
0.134, -5.329e-9
0.133, -4.462e-9
0.132, -3.556e-9
0.131, -2.483e-9
0.130, -1.653e-9
0.129, -4.929e-10
0.128, 4.472e-10
0.127, 1.433e-9
0.126, 2.589e-9
0.125, 3.437e-9
0.124, 4.726e-9
0.123, 5.641e-9
0.122, 6.719e-9
0.121, 7.981e-9
0.120, 8.877e-9
0.119, 1.019e-8
0.118, 1.121e-8
0.117, 1.228e-8
0.116, 1.360e-8
0.115, 1.455e-8
0.114, 1.585e-8
0.113, 1.696e-8
0.112, 1.798e-8
0.111, 1.932e-8
0.110, 2.026e-8
0.109, 2.154e-8
0.108, 2.266e-8
0.107, 2.368e-8
0.106, 2.497e-8
0.105, 2.597e-8
0.104, 2.717e-8
0.103, 2.827e-8
0.102, 2.931e-8
0.101, 3.049e-8
0.100, 3.142e-8
0.099, 3.253e-8
0.098, 3.349e-8
0.097, 3.447e-8
0.096, 3.555e-8
0.095, 3.636e-8
0.094, 3.746e-8
0.093, 3.825e-8
0.092, 3.919e-8
0.091, 4.010e-8
0.090, 4.081e-8
0.089, 4.176e-8
0.088, 4.246e-8
0.087, 4.316e-8
0.086, 4.395e-8
0.085, 4.453e-8
0.084, 4.538e-8
0.083, 4.582e-8
0.082, 4.642e-8
0.081, 4.715e-8
0.080, 4.743e-8
0.079, 4.819e-8
0.078, 4.852e-8
0.077, 4.896e-8
0.076, 4.954e-8
0.075, 4.966e-8
0.074, 5.017e-8
0.073, 5.043e-8
0.072, 5.060e-8
0.071, 5.105e-8
0.070, 5.106e-8
0.069, 5.140e-8
0.068, 5.151e-8
0.067, 5.154e-8
0.066, 5.183e-8
0.065, 5.171e-8
0.064, 5.193e-8
0.063, 5.188e-8
0.062, 5.182e-8
0.061, 5.194e-8
0.060, 5.178e-8
0.059, 5.181e-8
0.058, 5.166e-8
0.057, 5.153e-8
0.056, 5.151e-8
0.055, 5.120e-8
0.054, 5.119e-8
0.053, 5.094e-8
0.052, 5.074e-8
0.051, 5.067e-8
0.050, 5.022e-8
0.049, 5.019e-8
0.048, 4.983e-8
0.047, 4.953e-8
0.046, 4.942e-8
0.045, 4.891e-8
0.044, 4.883e-8
0.043, 4.843e-8
0.042, 4.806e-8
0.041, 4.794e-8
0.040, 4.739e-8
0.039, 4.726e-8
0.038, 4.684e-8
0.037, 4.643e-8
0.036, 4.629e-8
0.035, 4.570e-8
0.034, 4.553e-8
0.033, 4.512e-8
0.032, 4.467e-8
0.031, 4.452e-8
0.030, 4.393e-8
0.029, 4.377e-8
0.028, 4.335e-8
0.027, 4.290e-8
0.026, 4.273e-8
0.025, 4.217e-8
0.024, 4.196e-8
0.023, 4.154e-8
0.022, 4.112e-8
0.021, 4.093e-8
0.020, 4.038e-8
0.019, 4.018e-8
0.018, 3.976e-8
0.017, 3.936e-8
0.016, 3.917e-8
0.015, 3.862e-8
0.014, 3.845e-8
0.013, 3.804e-8
0.012, 3.766e-8
0.011, 3.748e-8
0.010, 3.693e-8
0.009, 3.682e-8
0.008, 3.639e-8
0.007, 3.602e-8
0.006, 3.589e-8
0.005, 3.535e-8
0.004, 3.525e-8
0.003, 3.485e-8
0.002, 3.448e-8
0.001, 3.440e-8
0.000, 3.395e-8
-0.001, 3.379e-8
-0.002, 3.341e-8
-0.003, 3.303e-8
-0.004, 3.296e-8
-0.005, 3.244e-8
-0.006, 3.236e-8
-0.007, 3.202e-8
-0.008, 3.167e-8
-0.009, 3.161e-8
-0.010, 3.112e-8
-0.011, 3.106e-8
-0.012, 3.074e-8
-0.013, 3.041e-8
-0.014, 3.036e-8
-0.015, 2.990e-8
-0.016, 2.985e-8
-0.017, 2.954e-8
-0.018, 2.923e-8
-0.019, 2.919e-8
-0.020, 2.876e-8
-0.021, 2.872e-8
-0.022, 2.842e-8
-0.023, 2.815e-8
-0.024, 2.812e-8
-0.025, 2.769e-8
-0.026, 2.768e-8
-0.027, 2.740e-8
-0.028, 2.715e-8
-0.029, 2.712e-8
-0.030, 2.670e-8
-0.031, 2.673e-8
-0.032, 2.645e-8
-0.033, 2.620e-8
-0.034, 2.621e-8
-0.035, 2.580e-8
-0.036, 2.582e-8
-0.037, 2.556e-8
-0.038, 2.533e-8
-0.039, 2.536e-8
-0.040, 2.495e-8
-0.041, 2.500e-8
-0.042, 2.476e-8
-0.043, 2.452e-8
-0.044, 2.458e-8
-0.045, 2.416e-8
-0.046, 2.422e-8
-0.047, 2.401e-8
-0.048, 2.378e-8
-0.049, 2.383e-8
-0.050, 2.346e-8
-0.051, 2.351e-8
-0.052, 2.330e-8
-0.053, 2.309e-8
-0.054, 2.315e-8
-0.055, 2.280e-8
-0.056, 2.286e-8
-0.057, 2.265e-8
-0.058, 2.246e-8
-0.059, 2.253e-8
-0.060, 2.218e-8
-0.061, 2.225e-8
-0.062, 2.206e-8
-0.063, 2.187e-8
-0.064, 2.195e-8
-0.065, 2.161e-8
-0.066, 2.170e-8
-0.067, 2.150e-8
-0.068, 2.134e-8
-0.069, 2.141e-8
-0.070, 2.107e-8
-0.071, 2.119e-8
-0.072, 2.098e-8
-0.073, 2.083e-8
-0.074, 2.093e-8
-0.075, 2.058e-8
-0.076, 2.070e-8
-0.077, 2.052e-8
-0.078, 2.035e-8
-0.079, 2.047e-8
-0.080, 2.014e-8
-0.081, 2.024e-8
-0.082, 2.008e-8
-0.083, 1.993e-8
-0.084, 2.005e-8
-0.085, 1.971e-8
-0.086, 1.985e-8
-0.087, 1.968e-8
-0.088, 1.952e-8
-0.089, 1.965e-8
-0.090, 1.933e-8
-0.091, 1.944e-8
-0.092, 1.931e-8
-0.093, 1.915e-8
-0.094, 1.927e-8
-0.095, 1.899e-8
-0.096, 1.910e-8
-0.097, 1.895e-8
-0.098, 1.883e-8
-0.099, 1.893e-8
-0.100, 1.863e-8
-0.101, 1.877e-8
-0.102, 1.862e-8
-0.103, 1.850e-8
-0.104, 1.862e-8
-0.105, 1.832e-8
-0.106, 1.846e-8
-0.107, 1.832e-8
-0.108, 1.820e-8
-0.109, 1.832e-8
-0.110, 1.803e-8
-0.111, 1.819e-8
-0.112, 1.805e-8
-0.113, 1.794e-8
-0.114, 1.807e-8
-0.115, 1.777e-8
-0.116, 1.795e-8
-0.117, 1.777e-8
-0.118, 1.767e-8
-0.119, 1.783e-8
-0.120, 1.752e-8
-0.121, 1.769e-8
-0.122, 1.756e-8
-0.123, 1.743e-8
-0.124, 1.759e-8
-0.125, 1.730e-8
-0.126, 1.746e-8
-0.127, 1.733e-8
-0.128, 1.724e-8
-0.129, 1.736e-8
-0.130, 1.709e-8
-0.131, 1.727e-8
-0.132, 1.713e-8
-0.133, 1.703e-8
-0.134, 1.719e-8
-0.135, 1.691e-8
-0.136, 1.707e-8
-0.137, 1.696e-8
-0.138, 1.685e-8
-0.139, 1.699e-8
-0.140, 1.676e-8
-0.141, 1.690e-8
-0.142, 1.678e-8
-0.143, 1.672e-8
-0.144, 1.685e-8
-0.145, 1.658e-8
-0.146, 1.678e-8
-0.147, 1.664e-8
-0.148, 1.657e-8
-0.149, 1.672e-8
-0.150, 1.645e-8
-0.151, 1.664e-8
-0.152, 1.653e-8
-0.153, 1.645e-8
-0.154, 1.661e-8
-0.155, 1.634e-8
-0.156, 1.653e-8
-0.157, 1.640e-8
-0.158, 1.634e-8
-0.159, 1.650e-8
-0.160, 1.622e-8
-0.161, 1.644e-8
-0.162, 1.631e-8
-0.163, 1.623e-8
-0.164, 1.643e-8
-0.165, 1.614e-8
-0.166, 1.634e-8
-0.167, 1.625e-8
-0.168, 1.615e-8
-0.169, 1.632e-8
-0.170, 1.608e-8
-0.171, 1.626e-8
-0.172, 1.617e-8
-0.173, 1.610e-8
-0.174, 1.626e-8
-0.175, 1.603e-8
-0.176, 1.622e-8
-0.177, 1.612e-8
-0.178, 1.605e-8
-0.179, 1.624e-8
-0.180, 1.599e-8
-0.181, 1.617e-8
-0.182, 1.608e-8
-0.183, 1.604e-8
-0.184, 1.619e-8
-0.185, 1.596e-8
-0.186, 1.617e-8
-0.187, 1.606e-8
-0.188, 1.603e-8
-0.189, 1.618e-8
-0.190, 1.594e-8
-0.191, 1.618e-8
-0.192, 1.607e-8
-0.193, 1.602e-8
-0.194, 1.621e-8
-0.195, 1.596e-8
-0.196, 1.619e-8
-0.197, 1.608e-8
-0.198, 1.603e-8
-0.199, 1.622e-8
