Mar. 16, 2023   10:11:02
Cyclic Voltammetry
File: c:/users/oliverrz/desktop/electrolab/data/2023_03_16\fcmeoh_macros_1_mm\electrode3_cv_150mvs_1_mm.bin
Data Source:  Experiment
Instrument Model:  CHI760E
Header: CV
Note: 

Init E (V) = -0.2
High E (V) = 0.3
Low E (V) = -0.2
Final E (V) = -0.2
Init P/N = P
Scan Rate (V/s) = 0.15
Segment = 3
Sample Interval (V) = 0.001
Quiet Time (sec) = 2
Sensitivity (A/V) = 1e-7

Results:

Channel 1:
Segment 1:
Ep = 0.126V
ip = -7.084e-8A
Ah = -2.866e-8C

Segment 2:
Ep = 0.063V
ip = 6.556e-8A
Ah = 2.678e-8C

Segment 3:

Potential/V, Current/A

-0.200, 2.474e-8
-0.199, 2.305e-8
-0.198, 2.256e-8
-0.197, 2.215e-8
-0.196, 2.161e-8
-0.195, 2.142e-8
-0.194, 2.092e-8
-0.193, 2.065e-8
-0.192, 2.036e-8
-0.191, 1.991e-8
-0.190, 1.978e-8
-0.189, 1.934e-8
-0.188, 1.912e-8
-0.187, 1.885e-8
-0.186, 1.843e-8
-0.185, 1.832e-8
-0.184, 1.789e-8
-0.183, 1.772e-8
-0.182, 1.742e-8
-0.181, 1.705e-8
-0.180, 1.694e-8
-0.179, 1.652e-8
-0.178, 1.635e-8
-0.177, 1.609e-8
-0.176, 1.573e-8
-0.175, 1.564e-8
-0.174, 1.521e-8
-0.173, 1.508e-8
-0.172, 1.483e-8
-0.171, 1.445e-8
-0.170, 1.441e-8
-0.169, 1.398e-8
-0.168, 1.385e-8
-0.167, 1.361e-8
-0.166, 1.325e-8
-0.165, 1.321e-8
-0.164, 1.280e-8
-0.163, 1.269e-8
-0.162, 1.246e-8
-0.161, 1.210e-8
-0.160, 1.210e-8
-0.159, 1.170e-8
-0.158, 1.156e-8
-0.157, 1.137e-8
-0.156, 1.102e-8
-0.155, 1.099e-8
-0.154, 1.062e-8
-0.153, 1.050e-8
-0.152, 1.032e-8
-0.151, 1.000e-8
-0.150, 9.975e-9
-0.149, 9.613e-9
-0.148, 9.522e-9
-0.147, 9.319e-9
-0.146, 9.031e-9
-0.145, 8.998e-9
-0.144, 8.664e-9
-0.143, 8.568e-9
-0.142, 8.372e-9
-0.141, 8.084e-9
-0.140, 8.074e-9
-0.139, 7.732e-9
-0.138, 7.669e-9
-0.137, 7.477e-9
-0.136, 7.221e-9
-0.135, 7.226e-9
-0.134, 6.860e-9
-0.133, 6.826e-9
-0.132, 6.641e-9
-0.131, 6.370e-9
-0.130, 6.417e-9
-0.129, 6.043e-9
-0.128, 6.003e-9
-0.127, 5.864e-9
-0.126, 5.579e-9
-0.125, 5.624e-9
-0.124, 5.303e-9
-0.123, 5.245e-9
-0.122, 5.129e-9
-0.121, 4.837e-9
-0.120, 4.895e-9
-0.119, 4.587e-9
-0.118, 4.537e-9
-0.117, 4.411e-9
-0.116, 4.143e-9
-0.115, 4.214e-9
-0.114, 3.900e-9
-0.113, 3.861e-9
-0.112, 3.767e-9
-0.111, 3.488e-9
-0.110, 3.545e-9
-0.109, 3.269e-9
-0.108, 3.244e-9
-0.107, 3.110e-9
-0.106, 2.900e-9
-0.105, 2.932e-9
-0.104, 2.648e-9
-0.103, 2.647e-9
-0.102, 2.504e-9
-0.101, 2.285e-9
-0.100, 2.378e-9
-0.099, 2.080e-9
-0.098, 2.076e-9
-0.097, 1.963e-9
-0.096, 1.749e-9
-0.095, 1.831e-9
-0.094, 1.538e-9
-0.093, 1.558e-9
-0.092, 1.430e-9
-0.091, 1.237e-9
-0.090, 1.316e-9
-0.089, 1.016e-9
-0.088, 1.071e-9
-0.087, 9.485e-10
-0.086, 7.143e-10
-0.085, 8.489e-10
-0.084, 5.384e-10
-0.083, 5.613e-10
-0.082, 4.906e-10
-0.081, 2.549e-10
-0.080, 3.665e-10
-0.079, 1.034e-10
-0.078, 1.132e-10
-0.077, 2.159e-11
-0.076, -1.801e-10
-0.075, -6.976e-11
-0.074, -3.307e-10
-0.073, -3.192e-10
-0.072, -3.897e-10
-0.071, -5.901e-10
-0.070, -4.995e-10
-0.069, -7.453e-10
-0.068, -7.203e-10
-0.067, -7.995e-10
-0.066, -9.916e-10
-0.065, -9.052e-10
-0.064, -1.142e-9
-0.063, -1.100e-9
-0.062, -1.207e-9
-0.061, -1.373e-9
-0.060, -1.273e-9
-0.059, -1.530e-9
-0.058, -1.469e-9
-0.057, -1.585e-9
-0.056, -1.747e-9
-0.055, -1.645e-9
-0.054, -1.909e-9
-0.053, -1.854e-9
-0.052, -1.955e-9
-0.051, -2.128e-9
-0.050, -2.015e-9
-0.049, -2.292e-9
-0.048, -2.212e-9
-0.047, -2.311e-9
-0.046, -2.517e-9
-0.045, -2.379e-9
-0.044, -2.659e-9
-0.043, -2.608e-9
-0.042, -2.681e-9
-0.041, -2.891e-9
-0.040, -2.765e-9
-0.039, -3.033e-9
-0.038, -3.013e-9
-0.037, -3.077e-9
-0.036, -3.274e-9
-0.035, -3.172e-9
-0.034, -3.418e-9
-0.033, -3.411e-9
-0.032, -3.484e-9
-0.031, -3.674e-9
-0.030, -3.590e-9
-0.029, -3.852e-9
-0.028, -3.827e-9
-0.027, -3.924e-9
-0.026, -4.132e-9
-0.025, -4.056e-9
-0.024, -4.310e-9
-0.023, -4.290e-9
-0.022, -4.418e-9
-0.021, -4.608e-9
-0.020, -4.553e-9
-0.019, -4.828e-9
-0.018, -4.806e-9
-0.017, -4.949e-9
-0.016, -5.157e-9
-0.015, -5.097e-9
-0.014, -5.413e-9
-0.013, -5.397e-9
-0.012, -5.556e-9
-0.011, -5.774e-9
-0.010, -5.722e-9
-0.009, -6.062e-9
-0.008, -6.064e-9
-0.007, -6.220e-9
-0.006, -6.503e-9
-0.005, -6.442e-9
-0.004, -6.808e-9
-0.003, -6.835e-9
-0.002, -7.023e-9
-0.001, -7.314e-9
-0.000, -7.437e-9
0.001, -7.714e-9
0.002, -7.785e-9
0.003, -7.964e-9
0.004, -8.289e-9
0.005, -8.322e-9
0.006, -8.688e-9
0.007, -8.814e-9
0.008, -9.043e-9
0.009, -9.363e-9
0.010, -9.475e-9
0.011, -9.881e-9
0.012, -1.003e-8
0.013, -1.033e-8
0.014, -1.068e-8
0.015, -1.081e-8
0.016, -1.125e-8
0.017, -1.144e-8
0.018, -1.179e-8
0.019, -1.219e-8
0.020, -1.239e-8
0.021, -1.288e-8
0.022, -1.311e-8
0.023, -1.353e-8
0.024, -1.396e-8
0.025, -1.422e-8
0.026, -1.482e-8
0.027, -1.506e-8
0.028, -1.556e-8
0.029, -1.607e-8
0.030, -1.634e-8
0.031, -1.702e-8
0.032, -1.735e-8
0.033, -1.788e-8
0.034, -1.849e-8
0.035, -1.884e-8
0.036, -1.954e-8
0.037, -1.998e-8
0.038, -2.058e-8
0.039, -2.127e-8
0.040, -2.168e-8
0.041, -2.250e-8
0.042, -2.301e-8
0.043, -2.369e-8
0.044, -2.445e-8
0.045, -2.495e-8
0.046, -2.581e-8
0.047, -2.647e-8
0.048, -2.720e-8
0.049, -2.802e-8
0.050, -2.869e-8
0.051, -2.961e-8
0.052, -3.034e-8
0.053, -3.117e-8
0.054, -3.207e-8
0.055, -3.282e-8
0.056, -3.380e-8
0.057, -3.458e-8
0.058, -3.554e-8
0.059, -3.650e-8
0.060, -3.735e-8
0.061, -3.838e-8
0.062, -3.924e-8
0.063, -4.032e-8
0.064, -4.132e-8
0.065, -4.222e-8
0.066, -4.339e-8
0.067, -4.425e-8
0.068, -4.540e-8
0.069, -4.646e-8
0.070, -4.735e-8
0.071, -4.861e-8
0.072, -4.951e-8
0.073, -5.066e-8
0.074, -5.179e-8
0.075, -5.270e-8
0.076, -5.400e-8
0.077, -5.496e-8
0.078, -5.608e-8
0.079, -5.725e-8
0.080, -5.811e-8
0.081, -5.938e-8
0.082, -6.033e-8
0.083, -6.141e-8
0.084, -6.253e-8
0.085, -6.343e-8
0.086, -6.460e-8
0.087, -6.554e-8
0.088, -6.654e-8
0.089, -6.761e-8
0.090, -6.850e-8
0.091, -6.955e-8
0.092, -7.036e-8
0.093, -7.133e-8
0.094, -7.227e-8
0.095, -7.310e-8
0.096, -7.399e-8
0.097, -7.473e-8
0.098, -7.564e-8
0.099, -7.637e-8
0.100, -7.706e-8
0.101, -7.788e-8
0.102, -7.852e-8
0.103, -7.927e-8
0.104, -7.988e-8
0.105, -8.042e-8
0.106, -8.109e-8
0.107, -8.152e-8
0.108, -8.213e-8
0.109, -8.258e-8
0.110, -8.294e-8
0.111, -8.353e-8
0.112, -8.373e-8
0.113, -8.419e-8
0.114, -8.456e-8
0.115, -8.474e-8
0.116, -8.519e-8
0.117, -8.526e-8
0.118, -8.553e-8
0.119, -8.580e-8
0.120, -8.576e-8
0.121, -8.604e-8
0.122, -8.606e-8
0.123, -8.614e-8
0.124, -8.628e-8
0.125, -8.616e-8
0.126, -8.629e-8
0.127, -8.620e-8
0.128, -8.619e-8
0.129, -8.618e-8
0.130, -8.597e-8
0.131, -8.596e-8
0.132, -8.576e-8
0.133, -8.563e-8
0.134, -8.551e-8
0.135, -8.527e-8
0.136, -8.516e-8
0.137, -8.483e-8
0.138, -8.471e-8
0.139, -8.447e-8
0.140, -8.413e-8
0.141, -8.402e-8
0.142, -8.361e-8
0.143, -8.342e-8
0.144, -8.314e-8
0.145, -8.272e-8
0.146, -8.261e-8
0.147, -8.213e-8
0.148, -8.188e-8
0.149, -8.163e-8
0.150, -8.114e-8
0.151, -8.100e-8
0.152, -8.049e-8
0.153, -8.024e-8
0.154, -7.995e-8
0.155, -7.944e-8
0.156, -7.929e-8
0.157, -7.878e-8
0.158, -7.848e-8
0.159, -7.822e-8
0.160, -7.767e-8
0.161, -7.751e-8
0.162, -7.705e-8
0.163, -7.672e-8
0.164, -7.646e-8
0.165, -7.595e-8
0.166, -7.578e-8
0.167, -7.532e-8
0.168, -7.499e-8
0.169, -7.474e-8
0.170, -7.426e-8
0.171, -7.408e-8
0.172, -7.362e-8
0.173, -7.334e-8
0.174, -7.307e-8
0.175, -7.262e-8
0.176, -7.245e-8
0.177, -7.201e-8
0.178, -7.176e-8
0.179, -7.151e-8
0.180, -7.106e-8
0.181, -7.094e-8
0.182, -7.048e-8
0.183, -7.026e-8
0.184, -7.001e-8
0.185, -6.957e-8
0.186, -6.951e-8
0.187, -6.906e-8
0.188, -6.885e-8
0.189, -6.865e-8
0.190, -6.823e-8
0.191, -6.818e-8
0.192, -6.777e-8
0.193, -6.757e-8
0.194, -6.741e-8
0.195, -6.699e-8
0.196, -6.696e-8
0.197, -6.658e-8
0.198, -6.640e-8
0.199, -6.628e-8
0.200, -6.587e-8
0.201, -6.586e-8
0.202, -6.551e-8
0.203, -6.533e-8
0.204, -6.524e-8
0.205, -6.488e-8
0.206, -6.486e-8
0.207, -6.455e-8
0.208, -6.439e-8
0.209, -6.429e-8
0.210, -6.396e-8
0.211, -6.397e-8
0.212, -6.367e-8
0.213, -6.356e-8
0.214, -6.346e-8
0.215, -6.316e-8
0.216, -6.318e-8
0.217, -6.288e-8
0.218, -6.281e-8
0.219, -6.272e-8
0.220, -6.242e-8
0.221, -6.249e-8
0.222, -6.218e-8
0.223, -6.214e-8
0.224, -6.206e-8
0.225, -6.179e-8
0.226, -6.188e-8
0.227, -6.160e-8
0.228, -6.157e-8
0.229, -6.152e-8
0.230, -6.125e-8
0.231, -6.138e-8
0.232, -6.110e-8
0.233, -6.107e-8
0.234, -6.107e-8
0.235, -6.079e-8
0.236, -6.092e-8
0.237, -6.068e-8
0.238, -6.066e-8
0.239, -6.066e-8
0.240, -6.041e-8
0.241, -6.055e-8
0.242, -6.033e-8
0.243, -6.032e-8
0.244, -6.033e-8
0.245, -6.011e-8
0.246, -6.025e-8
0.247, -6.006e-8
0.248, -6.005e-8
0.249, -6.007e-8
0.250, -5.988e-8
0.251, -6.002e-8
0.252, -5.983e-8
0.253, -5.985e-8
0.254, -5.987e-8
0.255, -5.970e-8
0.256, -5.986e-8
0.257, -5.966e-8
0.258, -5.972e-8
0.259, -5.972e-8
0.260, -5.956e-8
0.261, -5.975e-8
0.262, -5.954e-8
0.263, -5.962e-8
0.264, -5.964e-8
0.265, -5.948e-8
0.266, -5.967e-8
0.267, -5.949e-8
0.268, -5.956e-8
0.269, -5.961e-8
0.270, -5.945e-8
0.271, -5.965e-8
0.272, -5.946e-8
0.273, -5.955e-8
0.274, -5.963e-8
0.275, -5.944e-8
0.276, -5.967e-8
0.277, -5.951e-8
0.278, -5.957e-8
0.279, -5.967e-8
0.280, -5.951e-8
0.281, -5.971e-8
0.282, -5.959e-8
0.283, -5.965e-8
0.284, -5.973e-8
0.285, -5.960e-8
0.286, -5.982e-8
0.287, -5.967e-8
0.288, -5.977e-8
0.289, -5.984e-8
0.290, -5.972e-8
0.291, -5.993e-8
0.292, -5.980e-8
0.293, -5.989e-8
0.294, -5.998e-8
0.295, -5.987e-8
0.296, -6.007e-8
0.297, -5.995e-8
0.298, -6.008e-8
0.299, -6.012e-8
0.300, -5.687e-8
0.299, -5.467e-8
0.298, -5.357e-8
0.297, -5.293e-8
0.296, -5.237e-8
0.295, -5.164e-8
0.294, -5.132e-8
0.293, -5.069e-8
0.292, -5.030e-8
0.291, -4.994e-8
0.290, -4.939e-8
0.289, -4.917e-8
0.288, -4.866e-8
0.287, -4.838e-8
0.286, -4.808e-8
0.285, -4.762e-8
0.284, -4.748e-8
0.283, -4.701e-8
0.282, -4.679e-8
0.281, -4.654e-8
0.280, -4.612e-8
0.279, -4.603e-8
0.278, -4.562e-8
0.277, -4.544e-8
0.276, -4.521e-8
0.275, -4.485e-8
0.274, -4.479e-8
0.273, -4.438e-8
0.272, -4.426e-8
0.271, -4.407e-8
0.270, -4.369e-8
0.269, -4.369e-8
0.268, -4.328e-8
0.267, -4.318e-8
0.266, -4.303e-8
0.265, -4.266e-8
0.264, -4.267e-8
0.263, -4.232e-8
0.262, -4.220e-8
0.261, -4.206e-8
0.260, -4.171e-8
0.259, -4.174e-8
0.258, -4.138e-8
0.257, -4.127e-8
0.256, -4.116e-8
0.255, -4.082e-8
0.254, -4.086e-8
0.253, -4.053e-8
0.252, -4.041e-8
0.251, -4.033e-8
0.250, -4.001e-8
0.249, -4.002e-8
0.248, -3.972e-8
0.247, -3.962e-8
0.246, -3.950e-8
0.245, -3.920e-8
0.244, -3.923e-8
0.243, -3.891e-8
0.242, -3.885e-8
0.241, -3.871e-8
0.240, -3.843e-8
0.239, -3.848e-8
0.238, -3.814e-8
0.237, -3.809e-8
0.236, -3.795e-8
0.235, -3.768e-8
0.234, -3.772e-8
0.233, -3.738e-8
0.232, -3.734e-8
0.231, -3.721e-8
0.230, -3.692e-8
0.229, -3.697e-8
0.228, -3.662e-8
0.227, -3.659e-8
0.226, -3.647e-8
0.225, -3.615e-8
0.224, -3.622e-8
0.223, -3.588e-8
0.222, -3.581e-8
0.221, -3.571e-8
0.220, -3.539e-8
0.219, -3.544e-8
0.218, -3.511e-8
0.217, -3.503e-8
0.216, -3.492e-8
0.215, -3.461e-8
0.214, -3.464e-8
0.213, -3.431e-8
0.212, -3.422e-8
0.211, -3.411e-8
0.210, -3.379e-8
0.209, -3.379e-8
0.208, -3.347e-8
0.207, -3.336e-8
0.206, -3.322e-8
0.205, -3.289e-8
0.204, -3.289e-8
0.203, -3.255e-8
0.202, -3.245e-8
0.201, -3.227e-8
0.200, -3.195e-8
0.199, -3.194e-8
0.198, -3.155e-8
0.197, -3.145e-8
0.196, -3.124e-8
0.195, -3.091e-8
0.194, -3.087e-8
0.193, -3.046e-8
0.192, -3.033e-8
0.191, -3.012e-8
0.190, -2.974e-8
0.189, -2.971e-8
0.188, -2.924e-8
0.187, -2.912e-8
0.186, -2.888e-8
0.185, -2.847e-8
0.184, -2.840e-8
0.183, -2.793e-8
0.182, -2.775e-8
0.181, -2.748e-8
0.180, -2.702e-8
0.179, -2.693e-8
0.178, -2.644e-8
0.177, -2.618e-8
0.176, -2.590e-8
0.175, -2.542e-8
0.174, -2.527e-8
0.173, -2.474e-8
0.172, -2.444e-8
0.171, -2.412e-8
0.170, -2.360e-8
0.169, -2.337e-8
0.168, -2.281e-8
0.167, -2.245e-8
0.166, -2.206e-8
0.165, -2.150e-8
0.164, -2.121e-8
0.163, -2.060e-8
0.162, -2.022e-8
0.161, -1.975e-8
0.160, -1.914e-8
0.159, -1.878e-8
0.158, -1.810e-8
0.157, -1.766e-8
0.156, -1.708e-8
0.155, -1.644e-8
0.154, -1.601e-8
0.153, -1.520e-8
0.152, -1.474e-8
0.151, -1.410e-8
0.150, -1.334e-8
0.149, -1.289e-8
0.148, -1.198e-8
0.147, -1.145e-8
0.146, -1.075e-8
0.145, -9.897e-9
0.144, -9.328e-9
0.143, -8.386e-9
0.142, -7.754e-9
0.141, -6.926e-9
0.140, -6.017e-9
0.139, -5.384e-9
0.138, -4.379e-9
0.137, -3.614e-9
0.136, -2.786e-9
0.135, -1.764e-9
0.134, -1.041e-9
0.133, 1.280e-11
0.132, 9.030e-10
0.131, 1.797e-9
0.130, 2.849e-9
0.129, 3.735e-9
0.128, 4.851e-9
0.127, 5.777e-9
0.126, 6.759e-9
0.125, 7.865e-9
0.124, 8.799e-9
0.123, 9.969e-9
0.122, 1.091e-8
0.121, 1.200e-8
0.120, 1.314e-8
0.119, 1.411e-8
0.118, 1.533e-8
0.117, 1.633e-8
0.116, 1.748e-8
0.115, 1.859e-8
0.114, 1.960e-8
0.113, 2.086e-8
0.112, 2.178e-8
0.111, 2.299e-8
0.110, 2.412e-8
0.109, 2.506e-8
0.108, 2.637e-8
0.107, 2.727e-8
0.106, 2.836e-8
0.105, 2.955e-8
0.104, 3.044e-8
0.103, 3.168e-8
0.102, 3.263e-8
0.101, 3.361e-8
0.100, 3.472e-8
0.099, 3.550e-8
0.098, 3.666e-8
0.097, 3.751e-8
0.096, 3.841e-8
0.095, 3.943e-8
0.094, 4.014e-8
0.093, 4.116e-8
0.092, 4.193e-8
0.091, 4.269e-8
0.090, 4.361e-8
0.089, 4.424e-8
0.088, 4.506e-8
0.087, 4.572e-8
0.086, 4.635e-8
0.085, 4.709e-8
0.084, 4.763e-8
0.083, 4.828e-8
0.082, 4.877e-8
0.081, 4.934e-8
0.080, 4.987e-8
0.079, 5.022e-8
0.078, 5.081e-8
0.077, 5.114e-8
0.076, 5.159e-8
0.075, 5.194e-8
0.074, 5.214e-8
0.073, 5.258e-8
0.072, 5.271e-8
0.071, 5.302e-8
0.070, 5.324e-8
0.069, 5.329e-8
0.068, 5.366e-8
0.067, 5.360e-8
0.066, 5.374e-8
0.065, 5.393e-8
0.064, 5.384e-8
0.063, 5.405e-8
0.062, 5.394e-8
0.061, 5.389e-8
0.060, 5.400e-8
0.059, 5.377e-8
0.058, 5.387e-8
0.057, 5.370e-8
0.056, 5.356e-8
0.055, 5.355e-8
0.054, 5.325e-8
0.053, 5.328e-8
0.052, 5.303e-8
0.051, 5.283e-8
0.050, 5.273e-8
0.049, 5.237e-8
0.048, 5.229e-8
0.047, 5.201e-8
0.046, 5.175e-8
0.045, 5.158e-8
0.044, 5.122e-8
0.043, 5.109e-8
0.042, 5.072e-8
0.041, 5.048e-8
0.040, 5.026e-8
0.039, 4.984e-8
0.038, 4.971e-8
0.037, 4.932e-8
0.036, 4.905e-8
0.035, 4.880e-8
0.034, 4.836e-8
0.033, 4.824e-8
0.032, 4.779e-8
0.031, 4.750e-8
0.030, 4.731e-8
0.029, 4.681e-8
0.028, 4.672e-8
0.027, 4.626e-8
0.026, 4.600e-8
0.025, 4.580e-8
0.024, 4.529e-8
0.023, 4.518e-8
0.022, 4.478e-8
0.021, 4.446e-8
0.020, 4.430e-8
0.019, 4.381e-8
0.018, 4.369e-8
0.017, 4.332e-8
0.016, 4.301e-8
0.015, 4.285e-8
0.014, 4.238e-8
0.013, 4.229e-8
0.012, 4.193e-8
0.011, 4.162e-8
0.010, 4.148e-8
0.009, 4.105e-8
0.008, 4.097e-8
0.007, 4.060e-8
0.006, 4.037e-8
0.005, 4.022e-8
0.004, 3.981e-8
0.003, 3.973e-8
0.002, 3.939e-8
0.001, 3.918e-8
0.000, 3.918e-8
-0.001, 3.869e-8
-0.002, 3.865e-8
-0.003, 3.831e-8
-0.004, 3.813e-8
-0.005, 3.801e-8
-0.006, 3.763e-8
-0.007, 3.765e-8
-0.008, 3.732e-8
-0.009, 3.714e-8
-0.010, 3.709e-8
-0.011, 3.672e-8
-0.012, 3.676e-8
-0.013, 3.644e-8
-0.014, 3.629e-8
-0.015, 3.627e-8
-0.016, 3.590e-8
-0.017, 3.595e-8
-0.018, 3.569e-8
-0.019, 3.555e-8
-0.020, 3.554e-8
-0.021, 3.520e-8
-0.022, 3.527e-8
-0.023, 3.504e-8
-0.024, 3.491e-8
-0.025, 3.493e-8
-0.026, 3.463e-8
-0.027, 3.470e-8
-0.028, 3.450e-8
-0.029, 3.436e-8
-0.030, 3.440e-8
-0.031, 3.413e-8
-0.032, 3.422e-8
-0.033, 3.401e-8
-0.034, 3.396e-8
-0.035, 3.396e-8
-0.036, 3.373e-8
-0.037, 3.384e-8
-0.038, 3.364e-8
-0.039, 3.361e-8
-0.040, 3.364e-8
-0.041, 3.339e-8
-0.042, 3.354e-8
-0.043, 3.336e-8
-0.044, 3.334e-8
-0.045, 3.337e-8
-0.046, 3.316e-8
-0.047, 3.332e-8
-0.048, 3.314e-8
-0.049, 3.314e-8
-0.050, 3.321e-8
-0.051, 3.299e-8
-0.052, 3.320e-8
-0.053, 3.300e-8
-0.054, 3.301e-8
-0.055, 3.313e-8
-0.056, 3.289e-8
-0.057, 3.308e-8
-0.058, 3.298e-8
-0.059, 3.295e-8
-0.060, 3.308e-8
-0.061, 3.288e-8
-0.062, 3.307e-8
-0.063, 3.296e-8
-0.064, 3.297e-8
-0.065, 3.309e-8
-0.066, 3.291e-8
-0.067, 3.312e-8
-0.068, 3.302e-8
-0.069, 3.303e-8
-0.070, 3.315e-8
-0.071, 3.300e-8
-0.072, 3.320e-8
-0.073, 3.312e-8
-0.074, 3.314e-8
-0.075, 3.328e-8
-0.076, 3.315e-8
-0.077, 3.335e-8
-0.078, 3.324e-8
-0.079, 3.333e-8
-0.080, 3.343e-8
-0.081, 3.330e-8
-0.082, 3.355e-8
-0.083, 3.344e-8
-0.084, 3.352e-8
-0.085, 3.365e-8
-0.086, 3.349e-8
-0.087, 3.377e-8
-0.088, 3.368e-8
-0.089, 3.374e-8
-0.090, 3.390e-8
-0.091, 3.377e-8
-0.092, 3.403e-8
-0.093, 3.393e-8
-0.094, 3.402e-8
-0.095, 3.419e-8
-0.096, 3.405e-8
-0.097, 3.434e-8
-0.098, 3.426e-8
-0.099, 3.433e-8
-0.100, 3.455e-8
-0.101, 3.439e-8
-0.102, 3.468e-8
-0.103, 3.466e-8
-0.104, 3.473e-8
-0.105, 3.491e-8
-0.106, 3.483e-8
-0.107, 3.509e-8
-0.108, 3.508e-8
-0.109, 3.517e-8
-0.110, 3.535e-8
-0.111, 3.529e-8
-0.112, 3.559e-8
-0.113, 3.555e-8
-0.114, 3.568e-8
-0.115, 3.588e-8
-0.116, 3.584e-8
-0.117, 3.610e-8
-0.118, 3.611e-8
-0.119, 3.627e-8
-0.120, 3.645e-8
-0.121, 3.641e-8
-0.122, 3.673e-8
-0.123, 3.670e-8
-0.124, 3.691e-8
-0.125, 3.710e-8
-0.126, 3.705e-8
-0.127, 3.742e-8
-0.128, 3.741e-8
-0.129, 3.757e-8
-0.130, 3.783e-8
-0.131, 3.777e-8
-0.132, 3.814e-8
-0.133, 3.813e-8
-0.134, 3.830e-8
-0.135, 3.857e-8
-0.136, 3.853e-8
-0.137, 3.890e-8
-0.138, 3.891e-8
-0.139, 3.911e-8
-0.140, 3.939e-8
-0.141, 3.934e-8
-0.142, 3.972e-8
-0.143, 3.977e-8
-0.144, 3.994e-8
-0.145, 4.025e-8
-0.146, 4.023e-8
-0.147, 4.059e-8
-0.148, 4.066e-8
-0.149, 4.085e-8
-0.150, 4.112e-8
-0.151, 4.114e-8
-0.152, 4.152e-8
-0.153, 4.157e-8
-0.154, 4.180e-8
-0.155, 4.207e-8
-0.156, 4.210e-8
-0.157, 4.246e-8
-0.158, 4.254e-8
-0.159, 4.277e-8
-0.160, 4.304e-8
-0.161, 4.307e-8
-0.162, 4.347e-8
-0.163, 4.353e-8
-0.164, 4.378e-8
-0.165, 4.404e-8
-0.166, 4.408e-8
-0.167, 4.450e-8
-0.168, 4.455e-8
-0.169, 4.480e-8
-0.170, 4.510e-8
-0.171, 4.513e-8
-0.172, 4.556e-8
-0.173, 4.560e-8
-0.174, 4.585e-8
-0.175, 4.617e-8
-0.176, 4.620e-8
-0.177, 4.661e-8
-0.178, 4.671e-8
-0.179, 4.696e-8
-0.180, 4.727e-8
-0.181, 4.731e-8
-0.182, 4.771e-8
-0.183, 4.782e-8
-0.184, 4.805e-8
-0.185, 4.837e-8
-0.186, 4.842e-8
-0.187, 4.883e-8
-0.188, 4.894e-8
-0.189, 4.917e-8
-0.190, 4.948e-8
-0.191, 4.955e-8
-0.192, 4.995e-8
-0.193, 5.004e-8
-0.194, 5.030e-8
-0.195, 5.058e-8
-0.196, 5.068e-8
-0.197, 5.106e-8
-0.198, 5.115e-8
-0.199, 5.142e-8
