Mar. 16, 2023   10:12:33
Cyclic Voltammetry
File: c:/users/oliverrz/desktop/electrolab/data/2023_03_16\fcmeoh_macros_1_mm\electrode4_cv_200mvs_1_mm.bin
Data Source:  Experiment
Instrument Model:  CHI760E
Header: CV
Note: 

Init E (V) = -0.2
High E (V) = 0.3
Low E (V) = -0.2
Final E (V) = -0.2
Init P/N = P
Scan Rate (V/s) = 0.2
Segment = 3
Sample Interval (V) = 0.001
Quiet Time (sec) = 2
Sensitivity (A/V) = 1e-7

Results:

Channel 1:
Segment 1:
Ep = 0.119V
ip = -9.227e-8A
Ah = -2.786e-8C

Segment 2:
Ep = 0.060V
ip = 8.771e-8A
Ah = 2.628e-8C

Segment 3:

Potential/V, Current/A

-0.200, 1.413e-8
-0.199, 1.277e-8
-0.198, 1.235e-8
-0.197, 1.216e-8
-0.196, 1.195e-8
-0.195, 1.167e-8
-0.194, 1.149e-8
-0.193, 1.135e-8
-0.192, 1.113e-8
-0.191, 1.089e-8
-0.190, 1.082e-8
-0.189, 1.066e-8
-0.188, 1.038e-8
-0.187, 1.031e-8
-0.186, 1.019e-8
-0.185, 9.940e-9
-0.184, 9.813e-9
-0.183, 9.747e-9
-0.182, 9.535e-9
-0.181, 9.341e-9
-0.180, 9.289e-9
-0.179, 9.137e-9
-0.178, 8.924e-9
-0.177, 8.835e-9
-0.176, 8.765e-9
-0.175, 8.529e-9
-0.174, 8.392e-9
-0.173, 8.370e-9
-0.172, 8.165e-9
-0.171, 7.988e-9
-0.170, 7.977e-9
-0.169, 7.808e-9
-0.168, 7.636e-9
-0.167, 7.559e-9
-0.166, 7.470e-9
-0.165, 7.295e-9
-0.164, 7.159e-9
-0.163, 7.153e-9
-0.162, 6.972e-9
-0.161, 6.778e-9
-0.160, 6.806e-9
-0.159, 6.668e-9
-0.158, 6.461e-9
-0.157, 6.437e-9
-0.156, 6.352e-9
-0.155, 6.168e-9
-0.154, 6.084e-9
-0.153, 6.031e-9
-0.152, 5.909e-9
-0.151, 5.734e-9
-0.150, 5.722e-9
-0.149, 5.631e-9
-0.148, 5.431e-9
-0.147, 5.406e-9
-0.146, 5.359e-9
-0.145, 5.161e-9
-0.144, 5.094e-9
-0.143, 5.082e-9
-0.142, 4.915e-9
-0.141, 4.783e-9
-0.140, 4.786e-9
-0.139, 4.688e-9
-0.138, 4.522e-9
-0.137, 4.484e-9
-0.136, 4.452e-9
-0.135, 4.286e-9
-0.134, 4.187e-9
-0.133, 4.215e-9
-0.132, 4.054e-9
-0.131, 3.932e-9
-0.130, 3.957e-9
-0.129, 3.842e-9
-0.128, 3.682e-9
-0.127, 3.667e-9
-0.126, 3.629e-9
-0.125, 3.482e-9
-0.124, 3.390e-9
-0.123, 3.414e-9
-0.122, 3.293e-9
-0.121, 3.132e-9
-0.120, 3.187e-9
-0.119, 3.090e-9
-0.118, 2.920e-9
-0.117, 2.934e-9
-0.116, 2.890e-9
-0.115, 2.736e-9
-0.114, 2.678e-9
-0.113, 2.676e-9
-0.112, 2.575e-9
-0.111, 2.452e-9
-0.110, 2.473e-9
-0.109, 2.409e-9
-0.108, 2.235e-9
-0.107, 2.254e-9
-0.106, 2.235e-9
-0.105, 2.058e-9
-0.104, 2.026e-9
-0.103, 2.033e-9
-0.102, 1.894e-9
-0.101, 1.800e-9
-0.100, 1.820e-9
-0.099, 1.758e-9
-0.098, 1.621e-9
-0.097, 1.596e-9
-0.096, 1.597e-9
-0.095, 1.454e-9
-0.094, 1.381e-9
-0.093, 1.430e-9
-0.092, 1.286e-9
-0.091, 1.195e-9
-0.090, 1.231e-9
-0.089, 1.134e-9
-0.088, 1.015e-9
-0.087, 1.019e-9
-0.086, 9.906e-10
-0.085, 8.662e-10
-0.084, 7.903e-10
-0.083, 8.361e-10
-0.082, 7.145e-10
-0.081, 5.820e-10
-0.080, 6.567e-10
-0.079, 5.618e-10
-0.078, 4.104e-10
-0.077, 4.219e-10
-0.076, 3.959e-10
-0.075, 2.599e-10
-0.074, 2.223e-10
-0.073, 2.331e-10
-0.072, 1.251e-10
-0.071, 1.292e-11
-0.070, 5.033e-11
-0.069, -7.856e-12
-0.068, -1.765e-10
-0.067, -1.496e-10
-0.066, -1.728e-10
-0.065, -3.408e-10
-0.064, -3.853e-10
-0.063, -3.480e-10
-0.062, -4.866e-10
-0.061, -5.856e-10
-0.060, -5.627e-10
-0.059, -6.326e-10
-0.058, -7.703e-10
-0.057, -7.925e-10
-0.056, -8.124e-10
-0.055, -9.581e-10
-0.054, -1.035e-9
-0.053, -9.897e-10
-0.052, -1.143e-9
-0.051, -1.258e-9
-0.050, -1.221e-9
-0.049, -1.323e-9
-0.048, -1.458e-9
-0.047, -1.482e-9
-0.046, -1.517e-9
-0.045, -1.668e-9
-0.044, -1.769e-9
-0.043, -1.736e-9
-0.042, -1.877e-9
-0.041, -2.043e-9
-0.040, -1.989e-9
-0.039, -2.113e-9
-0.038, -2.295e-9
-0.037, -2.301e-9
-0.036, -2.372e-9
-0.035, -2.523e-9
-0.034, -2.624e-9
-0.033, -2.656e-9
-0.032, -2.800e-9
-0.031, -2.954e-9
-0.030, -2.973e-9
-0.029, -3.094e-9
-0.028, -3.293e-9
-0.027, -3.338e-9
-0.026, -3.424e-9
-0.025, -3.636e-9
-0.024, -3.739e-9
-0.023, -3.780e-9
-0.022, -3.982e-9
-0.021, -4.151e-9
-0.020, -4.216e-9
-0.019, -4.360e-9
-0.018, -4.588e-9
-0.017, -4.694e-9
-0.016, -4.790e-9
-0.015, -5.042e-9
-0.014, -5.215e-9
-0.013, -5.280e-9
-0.012, -5.555e-9
-0.011, -5.756e-9
-0.010, -5.856e-9
-0.009, -6.077e-9
-0.008, -6.341e-9
-0.007, -6.485e-9
-0.006, -6.682e-9
-0.005, -6.962e-9
-0.004, -7.201e-9
-0.003, -7.337e-9
-0.002, -7.656e-9
-0.001, -7.965e-9
-0.000, -8.258e-9
0.001, -8.442e-9
0.002, -8.808e-9
0.003, -8.989e-9
0.004, -9.274e-9
0.005, -9.633e-9
0.006, -9.946e-9
0.007, -1.020e-8
0.008, -1.057e-8
0.009, -1.097e-8
0.010, -1.124e-8
0.011, -1.160e-8
0.012, -1.208e-8
0.013, -1.241e-8
0.014, -1.278e-8
0.015, -1.329e-8
0.016, -1.366e-8
0.017, -1.406e-8
0.018, -1.458e-8
0.019, -1.506e-8
0.020, -1.550e-8
0.021, -1.600e-8
0.022, -1.658e-8
0.023, -1.708e-8
0.024, -1.759e-8
0.025, -1.822e-8
0.026, -1.884e-8
0.027, -1.931e-8
0.028, -2.002e-8
0.029, -2.066e-8
0.030, -2.123e-8
0.031, -2.195e-8
0.032, -2.265e-8
0.033, -2.333e-8
0.034, -2.407e-8
0.035, -2.482e-8
0.036, -2.566e-8
0.037, -2.630e-8
0.038, -2.721e-8
0.039, -2.812e-8
0.040, -2.882e-8
0.041, -2.976e-8
0.042, -3.069e-8
0.043, -3.152e-8
0.044, -3.251e-8
0.045, -3.343e-8
0.046, -3.446e-8
0.047, -3.538e-8
0.048, -3.642e-8
0.049, -3.750e-8
0.050, -3.849e-8
0.051, -3.960e-8
0.052, -4.077e-8
0.053, -4.180e-8
0.054, -4.293e-8
0.055, -4.416e-8
0.056, -4.529e-8
0.057, -4.644e-8
0.058, -4.772e-8
0.059, -4.889e-8
0.060, -5.013e-8
0.061, -5.133e-8
0.062, -5.265e-8
0.063, -5.392e-8
0.064, -5.520e-8
0.065, -5.653e-8
0.066, -5.780e-8
0.067, -5.902e-8
0.068, -6.048e-8
0.069, -6.172e-8
0.070, -6.299e-8
0.071, -6.443e-8
0.072, -6.570e-8
0.073, -6.701e-8
0.074, -6.837e-8
0.075, -6.964e-8
0.076, -7.103e-8
0.077, -7.224e-8
0.078, -7.361e-8
0.079, -7.490e-8
0.080, -7.607e-8
0.081, -7.740e-8
0.082, -7.864e-8
0.083, -7.982e-8
0.084, -8.113e-8
0.085, -8.223e-8
0.086, -8.340e-8
0.087, -8.451e-8
0.088, -8.559e-8
0.089, -8.676e-8
0.090, -8.779e-8
0.091, -8.883e-8
0.092, -8.987e-8
0.093, -9.077e-8
0.094, -9.171e-8
0.095, -9.270e-8
0.096, -9.347e-8
0.097, -9.429e-8
0.098, -9.518e-8
0.099, -9.588e-8
0.100, -9.662e-8
0.101, -9.728e-8
0.102, -9.804e-8
0.103, -9.866e-8
0.104, -9.915e-8
0.105, -9.972e-8
0.106, -1.002e-7
0.107, -1.006e-7
0.108, -1.012e-7
0.109, -1.014e-7
0.110, -1.017e-7
0.111, -1.022e-7
0.112, -1.024e-7
0.113, -1.026e-7
0.114, -1.028e-7
0.115, -1.030e-7
0.116, -1.032e-7
0.117, -1.032e-7
0.118, -1.033e-7
0.119, -1.034e-7
0.120, -1.033e-7
0.121, -1.033e-7
0.122, -1.033e-7
0.123, -1.031e-7
0.124, -1.031e-7
0.125, -1.029e-7
0.126, -1.028e-7
0.127, -1.026e-7
0.128, -1.024e-7
0.129, -1.022e-7
0.130, -1.019e-7
0.131, -1.017e-7
0.132, -1.015e-7
0.133, -1.011e-7
0.134, -1.008e-7
0.135, -1.005e-7
0.136, -1.001e-7
0.137, -9.971e-8
0.138, -9.943e-8
0.139, -9.904e-8
0.140, -9.862e-8
0.141, -9.822e-8
0.142, -9.787e-8
0.143, -9.743e-8
0.144, -9.695e-8
0.145, -9.659e-8
0.146, -9.616e-8
0.147, -9.562e-8
0.148, -9.528e-8
0.149, -9.481e-8
0.150, -9.428e-8
0.151, -9.386e-8
0.152, -9.343e-8
0.153, -9.294e-8
0.154, -9.246e-8
0.155, -9.204e-8
0.156, -9.161e-8
0.157, -9.103e-8
0.158, -9.064e-8
0.159, -9.022e-8
0.160, -8.966e-8
0.161, -8.922e-8
0.162, -8.885e-8
0.163, -8.830e-8
0.164, -8.785e-8
0.165, -8.743e-8
0.166, -8.700e-8
0.167, -8.649e-8
0.168, -8.609e-8
0.169, -8.568e-8
0.170, -8.517e-8
0.171, -8.473e-8
0.172, -8.440e-8
0.173, -8.388e-8
0.174, -8.344e-8
0.175, -8.310e-8
0.176, -8.267e-8
0.177, -8.219e-8
0.178, -8.185e-8
0.179, -8.149e-8
0.180, -8.102e-8
0.181, -8.062e-8
0.182, -8.031e-8
0.183, -7.989e-8
0.184, -7.946e-8
0.185, -7.915e-8
0.186, -7.881e-8
0.187, -7.832e-8
0.188, -7.805e-8
0.189, -7.772e-8
0.190, -7.728e-8
0.191, -7.695e-8
0.192, -7.669e-8
0.193, -7.628e-8
0.194, -7.593e-8
0.195, -7.565e-8
0.196, -7.535e-8
0.197, -7.493e-8
0.198, -7.467e-8
0.199, -7.444e-8
0.200, -7.400e-8
0.201, -7.372e-8
0.202, -7.353e-8
0.203, -7.313e-8
0.204, -7.284e-8
0.205, -7.263e-8
0.206, -7.234e-8
0.207, -7.199e-8
0.208, -7.175e-8
0.209, -7.154e-8
0.210, -7.120e-8
0.211, -7.091e-8
0.212, -7.077e-8
0.213, -7.043e-8
0.214, -7.013e-8
0.215, -6.999e-8
0.216, -6.972e-8
0.217, -6.939e-8
0.218, -6.923e-8
0.219, -6.902e-8
0.220, -6.873e-8
0.221, -6.849e-8
0.222, -6.835e-8
0.223, -6.808e-8
0.224, -6.781e-8
0.225, -6.768e-8
0.226, -6.749e-8
0.227, -6.715e-8
0.228, -6.704e-8
0.229, -6.687e-8
0.230, -6.659e-8
0.231, -6.643e-8
0.232, -6.630e-8
0.233, -6.603e-8
0.234, -6.583e-8
0.235, -6.569e-8
0.236, -6.554e-8
0.237, -6.524e-8
0.238, -6.513e-8
0.239, -6.502e-8
0.240, -6.472e-8
0.241, -6.458e-8
0.242, -6.451e-8
0.243, -6.426e-8
0.244, -6.407e-8
0.245, -6.398e-8
0.246, -6.381e-8
0.247, -6.359e-8
0.248, -6.348e-8
0.249, -6.338e-8
0.250, -6.314e-8
0.251, -6.299e-8
0.252, -6.296e-8
0.253, -6.273e-8
0.254, -6.255e-8
0.255, -6.251e-8
0.256, -6.235e-8
0.257, -6.212e-8
0.258, -6.207e-8
0.259, -6.196e-8
0.260, -6.175e-8
0.261, -6.162e-8
0.262, -6.157e-8
0.263, -6.142e-8
0.264, -6.123e-8
0.265, -6.118e-8
0.266, -6.108e-8
0.267, -6.084e-8
0.268, -6.081e-8
0.269, -6.074e-8
0.270, -6.051e-8
0.271, -6.045e-8
0.272, -6.040e-8
0.273, -6.023e-8
0.274, -6.010e-8
0.275, -6.005e-8
0.276, -5.997e-8
0.277, -5.975e-8
0.278, -5.972e-8
0.279, -5.969e-8
0.280, -5.946e-8
0.281, -5.939e-8
0.282, -5.940e-8
0.283, -5.921e-8
0.284, -5.910e-8
0.285, -5.907e-8
0.286, -5.898e-8
0.287, -5.881e-8
0.288, -5.876e-8
0.289, -5.873e-8
0.290, -5.858e-8
0.291, -5.847e-8
0.292, -5.852e-8
0.293, -5.833e-8
0.294, -5.822e-8
0.295, -5.824e-8
0.296, -5.814e-8
0.297, -5.796e-8
0.298, -5.798e-8
0.299, -5.793e-8
0.300, -5.476e-8
0.299, -5.226e-8
0.298, -5.182e-8
0.297, -5.134e-8
0.296, -5.099e-8
0.295, -5.076e-8
0.294, -5.050e-8
0.293, -5.018e-8
0.292, -4.999e-8
0.291, -4.984e-8
0.290, -4.954e-8
0.289, -4.933e-8
0.288, -4.926e-8
0.287, -4.899e-8
0.286, -4.879e-8
0.285, -4.871e-8
0.284, -4.851e-8
0.283, -4.828e-8
0.282, -4.819e-8
0.281, -4.807e-8
0.280, -4.784e-8
0.279, -4.769e-8
0.278, -4.765e-8
0.277, -4.744e-8
0.276, -4.724e-8
0.275, -4.721e-8
0.274, -4.707e-8
0.273, -4.684e-8
0.272, -4.681e-8
0.271, -4.669e-8
0.270, -4.648e-8
0.269, -4.636e-8
0.268, -4.632e-8
0.267, -4.614e-8
0.266, -4.600e-8
0.265, -4.593e-8
0.264, -4.584e-8
0.263, -4.560e-8
0.262, -4.558e-8
0.261, -4.552e-8
0.260, -4.528e-8
0.259, -4.520e-8
0.258, -4.518e-8
0.257, -4.499e-8
0.256, -4.485e-8
0.255, -4.481e-8
0.254, -4.472e-8
0.253, -4.451e-8
0.252, -4.447e-8
0.251, -4.443e-8
0.250, -4.422e-8
0.249, -4.412e-8
0.248, -4.412e-8
0.247, -4.392e-8
0.246, -4.381e-8
0.245, -4.378e-8
0.244, -4.366e-8
0.243, -4.347e-8
0.242, -4.343e-8
0.241, -4.337e-8
0.240, -4.319e-8
0.239, -4.308e-8
0.238, -4.307e-8
0.237, -4.291e-8
0.236, -4.274e-8
0.235, -4.274e-8
0.234, -4.261e-8
0.233, -4.241e-8
0.232, -4.238e-8
0.231, -4.230e-8
0.230, -4.211e-8
0.229, -4.203e-8
0.228, -4.197e-8
0.227, -4.182e-8
0.226, -4.167e-8
0.225, -4.162e-8
0.224, -4.152e-8
0.223, -4.129e-8
0.222, -4.126e-8
0.221, -4.120e-8
0.220, -4.096e-8
0.219, -4.086e-8
0.218, -4.083e-8
0.217, -4.062e-8
0.216, -4.048e-8
0.215, -4.042e-8
0.214, -4.030e-8
0.213, -4.007e-8
0.212, -3.999e-8
0.211, -3.992e-8
0.210, -3.968e-8
0.209, -3.955e-8
0.208, -3.952e-8
0.207, -3.928e-8
0.206, -3.910e-8
0.205, -3.902e-8
0.204, -3.886e-8
0.203, -3.862e-8
0.202, -3.854e-8
0.201, -3.840e-8
0.200, -3.816e-8
0.199, -3.798e-8
0.198, -3.790e-8
0.197, -3.766e-8
0.196, -3.742e-8
0.195, -3.733e-8
0.194, -3.713e-8
0.193, -3.683e-8
0.192, -3.670e-8
0.191, -3.654e-8
0.190, -3.623e-8
0.189, -3.603e-8
0.188, -3.587e-8
0.187, -3.560e-8
0.186, -3.532e-8
0.185, -3.513e-8
0.184, -3.492e-8
0.183, -3.456e-8
0.182, -3.436e-8
0.181, -3.413e-8
0.180, -3.375e-8
0.179, -3.349e-8
0.178, -3.328e-8
0.177, -3.289e-8
0.176, -3.258e-8
0.175, -3.231e-8
0.174, -3.199e-8
0.173, -3.157e-8
0.172, -3.127e-8
0.171, -3.095e-8
0.170, -3.048e-8
0.169, -3.011e-8
0.168, -2.981e-8
0.167, -2.931e-8
0.166, -2.887e-8
0.165, -2.853e-8
0.164, -2.805e-8
0.163, -2.753e-8
0.162, -2.713e-8
0.161, -2.668e-8
0.160, -2.611e-8
0.159, -2.558e-8
0.158, -2.516e-8
0.157, -2.457e-8
0.156, -2.394e-8
0.155, -2.345e-8
0.154, -2.286e-8
0.153, -2.214e-8
0.152, -2.163e-8
0.151, -2.098e-8
0.150, -2.027e-8
0.149, -1.961e-8
0.148, -1.896e-8
0.147, -1.824e-8
0.146, -1.746e-8
0.145, -1.674e-8
0.144, -1.602e-8
0.143, -1.511e-8
0.142, -1.439e-8
0.141, -1.356e-8
0.140, -1.261e-8
0.139, -1.183e-8
0.138, -1.096e-8
0.137, -9.969e-9
0.136, -9.077e-9
0.135, -8.107e-9
0.134, -7.183e-9
0.133, -6.118e-9
0.132, -5.104e-9
0.131, -4.159e-9
0.130, -3.012e-9
0.129, -1.933e-9
0.128, -9.169e-10
0.127, 2.798e-10
0.126, 1.404e-9
0.125, 2.517e-9
0.124, 3.692e-9
0.123, 4.906e-9
0.122, 6.096e-9
0.121, 7.244e-9
0.120, 8.571e-9
0.119, 9.822e-9
0.118, 1.100e-8
0.117, 1.230e-8
0.116, 1.362e-8
0.115, 1.486e-8
0.114, 1.618e-8
0.113, 1.754e-8
0.112, 1.877e-8
0.111, 2.015e-8
0.110, 2.148e-8
0.109, 2.276e-8
0.108, 2.414e-8
0.107, 2.546e-8
0.106, 2.680e-8
0.105, 2.810e-8
0.104, 2.939e-8
0.103, 3.083e-8
0.102, 3.211e-8
0.101, 3.336e-8
0.100, 3.475e-8
0.099, 3.589e-8
0.098, 3.717e-8
0.097, 3.842e-8
0.096, 3.963e-8
0.095, 4.090e-8
0.094, 4.201e-8
0.093, 4.324e-8
0.092, 4.436e-8
0.091, 4.539e-8
0.090, 4.658e-8
0.089, 4.760e-8
0.088, 4.861e-8
0.087, 4.975e-8
0.086, 5.054e-8
0.085, 5.155e-8
0.084, 5.247e-8
0.083, 5.333e-8
0.082, 5.414e-8
0.081, 5.497e-8
0.080, 5.575e-8
0.079, 5.650e-8
0.078, 5.712e-8
0.077, 5.789e-8
0.076, 5.853e-8
0.075, 5.900e-8
0.074, 5.958e-8
0.073, 6.012e-8
0.072, 6.051e-8
0.071, 6.101e-8
0.070, 6.138e-8
0.069, 6.175e-8
0.068, 6.206e-8
0.067, 6.232e-8
0.066, 6.265e-8
0.065, 6.284e-8
0.064, 6.304e-8
0.063, 6.330e-8
0.062, 6.328e-8
0.061, 6.336e-8
0.060, 6.356e-8
0.059, 6.349e-8
0.058, 6.348e-8
0.057, 6.351e-8
0.056, 6.342e-8
0.055, 6.337e-8
0.054, 6.322e-8
0.053, 6.318e-8
0.052, 6.302e-8
0.051, 6.282e-8
0.050, 6.271e-8
0.049, 6.249e-8
0.048, 6.218e-8
0.047, 6.202e-8
0.046, 6.175e-8
0.045, 6.140e-8
0.044, 6.118e-8
0.043, 6.089e-8
0.042, 6.052e-8
0.041, 6.022e-8
0.040, 5.993e-8
0.039, 5.960e-8
0.038, 5.916e-8
0.037, 5.884e-8
0.036, 5.853e-8
0.035, 5.805e-8
0.034, 5.770e-8
0.033, 5.738e-8
0.032, 5.690e-8
0.031, 5.652e-8
0.030, 5.616e-8
0.029, 5.571e-8
0.028, 5.529e-8
0.027, 5.490e-8
0.026, 5.454e-8
0.025, 5.408e-8
0.024, 5.363e-8
0.023, 5.334e-8
0.022, 5.281e-8
0.021, 5.237e-8
0.020, 5.209e-8
0.019, 5.160e-8
0.018, 5.116e-8
0.017, 5.081e-8
0.016, 5.041e-8
0.015, 4.997e-8
0.014, 4.955e-8
0.013, 4.925e-8
0.012, 4.881e-8
0.011, 4.834e-8
0.010, 4.806e-8
0.009, 4.766e-8
0.008, 4.718e-8
0.007, 4.689e-8
0.006, 4.653e-8
0.005, 4.608e-8
0.004, 4.576e-8
0.003, 4.545e-8
0.002, 4.504e-8
0.001, 4.466e-8
0.000, 4.453e-8
-0.001, 4.408e-8
-0.002, 4.364e-8
-0.003, 4.337e-8
-0.004, 4.309e-8
-0.005, 4.266e-8
-0.006, 4.236e-8
-0.007, 4.213e-8
-0.008, 4.174e-8
-0.009, 4.140e-8
-0.010, 4.119e-8
-0.011, 4.087e-8
-0.012, 4.053e-8
-0.013, 4.028e-8
-0.014, 4.002e-8
-0.015, 3.968e-8
-0.016, 3.938e-8
-0.017, 3.922e-8
-0.018, 3.889e-8
-0.019, 3.856e-8
-0.020, 3.844e-8
-0.021, 3.813e-8
-0.022, 3.781e-8
-0.023, 3.766e-8
-0.024, 3.743e-8
-0.025, 3.715e-8
-0.026, 3.690e-8
-0.027, 3.676e-8
-0.028, 3.649e-8
-0.029, 3.620e-8
-0.030, 3.609e-8
-0.031, 3.587e-8
-0.032, 3.557e-8
-0.033, 3.545e-8
-0.034, 3.527e-8
-0.035, 3.499e-8
-0.036, 3.483e-8
-0.037, 3.471e-8
-0.038, 3.447e-8
-0.039, 3.424e-8
-0.040, 3.414e-8
-0.041, 3.398e-8
-0.042, 3.371e-8
-0.043, 3.360e-8
-0.044, 3.349e-8
-0.045, 3.323e-8
-0.046, 3.308e-8
-0.047, 3.303e-8
-0.048, 3.279e-8
-0.049, 3.262e-8
-0.050, 3.258e-8
-0.051, 3.241e-8
-0.052, 3.220e-8
-0.053, 3.211e-8
-0.054, 3.201e-8
-0.055, 3.181e-8
-0.056, 3.167e-8
-0.057, 3.165e-8
-0.058, 3.145e-8
-0.059, 3.129e-8
-0.060, 3.128e-8
-0.061, 3.113e-8
-0.062, 3.094e-8
-0.063, 3.091e-8
-0.064, 3.083e-8
-0.065, 3.066e-8
-0.066, 3.055e-8
-0.067, 3.054e-8
-0.068, 3.040e-8
-0.069, 3.024e-8
-0.070, 3.025e-8
-0.071, 3.016e-8
-0.072, 2.996e-8
-0.073, 2.997e-8
-0.074, 2.992e-8
-0.075, 2.975e-8
-0.076, 2.971e-8
-0.077, 2.970e-8
-0.078, 2.956e-8
-0.079, 2.946e-8
-0.080, 2.947e-8
-0.081, 2.940e-8
-0.082, 2.924e-8
-0.083, 2.924e-8
-0.084, 2.925e-8
-0.085, 2.907e-8
-0.086, 2.904e-8
-0.087, 2.908e-8
-0.088, 2.895e-8
-0.089, 2.887e-8
-0.090, 2.892e-8
-0.091, 2.885e-8
-0.092, 2.873e-8
-0.093, 2.875e-8
-0.094, 2.874e-8
-0.095, 2.864e-8
-0.096, 2.858e-8
-0.097, 2.866e-8
-0.098, 2.855e-8
-0.099, 2.846e-8
-0.100, 2.857e-8
-0.101, 2.849e-8
-0.102, 2.841e-8
-0.103, 2.845e-8
-0.104, 2.845e-8
-0.105, 2.836e-8
-0.106, 2.834e-8
-0.107, 2.841e-8
-0.108, 2.834e-8
-0.109, 2.827e-8
-0.110, 2.836e-8
-0.111, 2.835e-8
-0.112, 2.823e-8
-0.113, 2.832e-8
-0.114, 2.833e-8
-0.115, 2.826e-8
-0.116, 2.828e-8
-0.117, 2.835e-8
-0.118, 2.828e-8
-0.119, 2.826e-8
-0.120, 2.835e-8
-0.121, 2.836e-8
-0.122, 2.826e-8
-0.123, 2.835e-8
-0.124, 2.843e-8
-0.125, 2.832e-8
-0.126, 2.836e-8
-0.127, 2.849e-8
-0.128, 2.843e-8
-0.129, 2.841e-8
-0.130, 2.852e-8
-0.131, 2.853e-8
-0.132, 2.849e-8
-0.133, 2.857e-8
-0.134, 2.862e-8
-0.135, 2.861e-8
-0.136, 2.863e-8
-0.137, 2.876e-8
-0.138, 2.872e-8
-0.139, 2.871e-8
-0.140, 2.888e-8
-0.141, 2.889e-8
-0.142, 2.885e-8
-0.143, 2.897e-8
-0.144, 2.903e-8
-0.145, 2.903e-8
-0.146, 2.906e-8
-0.147, 2.920e-8
-0.148, 2.921e-8
-0.149, 2.920e-8
-0.150, 2.936e-8
-0.151, 2.942e-8
-0.152, 2.937e-8
-0.153, 2.953e-8
-0.154, 2.961e-8
-0.155, 2.960e-8
-0.156, 2.969e-8
-0.157, 2.984e-8
-0.158, 2.983e-8
-0.159, 2.988e-8
-0.160, 3.003e-8
-0.161, 3.011e-8
-0.162, 3.009e-8
-0.163, 3.024e-8
-0.164, 3.037e-8
-0.165, 3.036e-8
-0.166, 3.045e-8
-0.167, 3.065e-8
-0.168, 3.064e-8
-0.169, 3.070e-8
-0.170, 3.088e-8
-0.171, 3.097e-8
-0.172, 3.100e-8
-0.173, 3.114e-8
-0.174, 3.127e-8
-0.175, 3.133e-8
-0.176, 3.140e-8
-0.177, 3.162e-8
-0.178, 3.165e-8
-0.179, 3.172e-8
-0.180, 3.194e-8
-0.181, 3.202e-8
-0.182, 3.204e-8
-0.183, 3.225e-8
-0.184, 3.238e-8
-0.185, 3.245e-8
-0.186, 3.255e-8
-0.187, 3.277e-8
-0.188, 3.285e-8
-0.189, 3.291e-8
-0.190, 3.314e-8
-0.191, 3.328e-8
-0.192, 3.331e-8
-0.193, 3.353e-8
-0.194, 3.368e-8
-0.195, 3.374e-8
-0.196, 3.391e-8
-0.197, 3.413e-8
-0.198, 3.420e-8
-0.199, 3.432e-8
