Mar. 16, 2023   10:09:15
Cyclic Voltammetry
File: c:/users/oliverrz/desktop/electrolab/data/2023_03_16\fcmeoh_macros_1_mm\electrode2_cv_50mvs_1_mm.bin
Data Source:  Experiment
Instrument Model:  CHI760E
Header: CV
Note: 

Init E (V) = -0.2
High E (V) = 0.3
Low E (V) = -0.2
Final E (V) = -0.2
Init P/N = P
Scan Rate (V/s) = 0.05
Segment = 3
Sample Interval (V) = 0.001
Quiet Time (sec) = 2
Sensitivity (A/V) = 1e-7

Results:

Channel 1:
Segment 1:
Ep = 0.132V
ip = -5.156e-8A
Ah = -6.590e-8C

Segment 2:
Ep = 0.061V
ip = 4.712e-8A
Ah = 6.094e-8C

Segment 3:

Potential/V, Current/A

-0.200, 4.203e-9
-0.199, 3.719e-9
-0.198, 3.569e-9
-0.197, 3.488e-9
-0.196, 3.417e-9
-0.195, 3.359e-9
-0.194, 3.296e-9
-0.193, 3.239e-9
-0.192, 3.191e-9
-0.191, 3.141e-9
-0.190, 3.096e-9
-0.189, 3.047e-9
-0.188, 3.000e-9
-0.187, 2.963e-9
-0.186, 2.920e-9
-0.185, 2.878e-9
-0.184, 2.836e-9
-0.183, 2.792e-9
-0.182, 2.757e-9
-0.181, 2.721e-9
-0.180, 2.684e-9
-0.179, 2.645e-9
-0.178, 2.605e-9
-0.177, 2.574e-9
-0.176, 2.545e-9
-0.175, 2.507e-9
-0.174, 2.474e-9
-0.173, 2.439e-9
-0.172, 2.408e-9
-0.171, 2.378e-9
-0.170, 2.345e-9
-0.169, 2.313e-9
-0.168, 2.284e-9
-0.167, 2.254e-9
-0.166, 2.225e-9
-0.165, 2.200e-9
-0.164, 2.166e-9
-0.163, 2.138e-9
-0.162, 2.109e-9
-0.161, 2.082e-9
-0.160, 2.057e-9
-0.159, 2.024e-9
-0.158, 1.999e-9
-0.157, 1.974e-9
-0.156, 1.947e-9
-0.155, 1.925e-9
-0.154, 1.892e-9
-0.153, 1.865e-9
-0.152, 1.845e-9
-0.151, 1.818e-9
-0.150, 1.798e-9
-0.149, 1.770e-9
-0.148, 1.744e-9
-0.147, 1.727e-9
-0.146, 1.702e-9
-0.145, 1.680e-9
-0.144, 1.656e-9
-0.143, 1.628e-9
-0.142, 1.611e-9
-0.141, 1.589e-9
-0.140, 1.562e-9
-0.139, 1.542e-9
-0.138, 1.517e-9
-0.137, 1.500e-9
-0.136, 1.482e-9
-0.135, 1.458e-9
-0.134, 1.437e-9
-0.133, 1.415e-9
-0.132, 1.396e-9
-0.131, 1.380e-9
-0.130, 1.356e-9
-0.129, 1.334e-9
-0.128, 1.312e-9
-0.127, 1.293e-9
-0.126, 1.280e-9
-0.125, 1.260e-9
-0.124, 1.239e-9
-0.123, 1.222e-9
-0.122, 1.205e-9
-0.121, 1.189e-9
-0.120, 1.171e-9
-0.119, 1.147e-9
-0.118, 1.130e-9
-0.117, 1.116e-9
-0.116, 1.099e-9
-0.115, 1.079e-9
-0.114, 1.058e-9
-0.113, 1.040e-9
-0.112, 1.029e-9
-0.111, 1.010e-9
-0.110, 9.944e-10
-0.109, 9.755e-10
-0.108, 9.561e-10
-0.107, 9.450e-10
-0.106, 9.282e-10
-0.105, 9.122e-10
-0.104, 8.922e-10
-0.103, 8.707e-10
-0.102, 8.556e-10
-0.101, 8.432e-10
-0.100, 8.250e-10
-0.099, 8.087e-10
-0.098, 7.896e-10
-0.097, 7.775e-10
-0.096, 7.656e-10
-0.095, 7.479e-10
-0.094, 7.308e-10
-0.093, 7.147e-10
-0.092, 7.004e-10
-0.091, 6.903e-10
-0.090, 6.706e-10
-0.089, 6.510e-10
-0.088, 6.343e-10
-0.087, 6.192e-10
-0.086, 6.069e-10
-0.085, 5.877e-10
-0.084, 5.671e-10
-0.083, 5.525e-10
-0.082, 5.377e-10
-0.081, 5.220e-10
-0.080, 5.068e-10
-0.079, 4.870e-10
-0.078, 4.735e-10
-0.077, 4.583e-10
-0.076, 4.436e-10
-0.075, 4.302e-10
-0.074, 4.080e-10
-0.073, 3.907e-10
-0.072, 3.792e-10
-0.071, 3.610e-10
-0.070, 3.478e-10
-0.069, 3.230e-10
-0.068, 3.057e-10
-0.067, 2.959e-10
-0.066, 2.774e-10
-0.065, 2.596e-10
-0.064, 2.365e-10
-0.063, 2.200e-10
-0.062, 2.053e-10
-0.061, 1.907e-10
-0.060, 1.684e-10
-0.059, 1.473e-10
-0.058, 1.253e-10
-0.057, 1.093e-10
-0.056, 9.394e-11
-0.055, 7.061e-11
-0.054, 4.954e-11
-0.053, 2.699e-11
-0.052, 7.699e-12
-0.051, -1.347e-11
-0.050, -3.582e-11
-0.049, -6.131e-11
-0.048, -8.120e-11
-0.047, -1.021e-10
-0.046, -1.244e-10
-0.045, -1.497e-10
-0.044, -1.806e-10
-0.043, -2.036e-10
-0.042, -2.303e-10
-0.041, -2.546e-10
-0.040, -2.805e-10
-0.039, -3.174e-10
-0.038, -3.440e-10
-0.037, -3.726e-10
-0.036, -4.029e-10
-0.035, -4.319e-10
-0.034, -4.697e-10
-0.033, -5.022e-10
-0.032, -5.306e-10
-0.031, -5.666e-10
-0.030, -6.016e-10
-0.029, -6.439e-10
-0.028, -6.836e-10
-0.027, -7.174e-10
-0.026, -7.596e-10
-0.025, -8.052e-10
-0.024, -8.501e-10
-0.023, -8.954e-10
-0.022, -9.335e-10
-0.021, -9.810e-10
-0.020, -1.034e-9
-0.019, -1.083e-9
-0.018, -1.137e-9
-0.017, -1.184e-9
-0.016, -1.238e-9
-0.015, -1.299e-9
-0.014, -1.360e-9
-0.013, -1.422e-9
-0.012, -1.485e-9
-0.011, -1.545e-9
-0.010, -1.617e-9
-0.009, -1.690e-9
-0.008, -1.762e-9
-0.007, -1.836e-9
-0.006, -1.908e-9
-0.005, -1.992e-9
-0.004, -2.079e-9
-0.003, -2.161e-9
-0.002, -2.250e-9
-0.001, -2.340e-9
-0.000, -2.462e-9
0.001, -2.561e-9
0.002, -2.650e-9
0.003, -2.753e-9
0.004, -2.858e-9
0.005, -2.969e-9
0.006, -3.093e-9
0.007, -3.211e-9
0.008, -3.338e-9
0.009, -3.462e-9
0.010, -3.588e-9
0.011, -3.733e-9
0.012, -3.874e-9
0.013, -4.019e-9
0.014, -4.174e-9
0.015, -4.334e-9
0.016, -4.497e-9
0.017, -4.672e-9
0.018, -4.835e-9
0.019, -5.017e-9
0.020, -5.210e-9
0.021, -5.403e-9
0.022, -5.604e-9
0.023, -5.805e-9
0.024, -6.020e-9
0.025, -6.243e-9
0.026, -6.475e-9
0.027, -6.710e-9
0.028, -6.954e-9
0.029, -7.198e-9
0.030, -7.470e-9
0.031, -7.733e-9
0.032, -8.006e-9
0.033, -8.293e-9
0.034, -8.580e-9
0.035, -8.887e-9
0.036, -9.202e-9
0.037, -9.510e-9
0.038, -9.846e-9
0.039, -1.019e-8
0.040, -1.054e-8
0.041, -1.090e-8
0.042, -1.126e-8
0.043, -1.164e-8
0.044, -1.203e-8
0.045, -1.242e-8
0.046, -1.285e-8
0.047, -1.326e-8
0.048, -1.369e-8
0.049, -1.413e-8
0.050, -1.458e-8
0.051, -1.506e-8
0.052, -1.555e-8
0.053, -1.603e-8
0.054, -1.654e-8
0.055, -1.704e-8
0.056, -1.756e-8
0.057, -1.810e-8
0.058, -1.863e-8
0.059, -1.918e-8
0.060, -1.975e-8
0.061, -2.032e-8
0.062, -2.090e-8
0.063, -2.149e-8
0.064, -2.211e-8
0.065, -2.273e-8
0.066, -2.335e-8
0.067, -2.398e-8
0.068, -2.462e-8
0.069, -2.526e-8
0.070, -2.593e-8
0.071, -2.658e-8
0.072, -2.724e-8
0.073, -2.792e-8
0.074, -2.859e-8
0.075, -2.929e-8
0.076, -2.997e-8
0.077, -3.067e-8
0.078, -3.139e-8
0.079, -3.208e-8
0.080, -3.276e-8
0.081, -3.347e-8
0.082, -3.415e-8
0.083, -3.485e-8
0.084, -3.555e-8
0.085, -3.623e-8
0.086, -3.694e-8
0.087, -3.760e-8
0.088, -3.829e-8
0.089, -3.896e-8
0.090, -3.964e-8
0.091, -4.031e-8
0.092, -4.096e-8
0.093, -4.157e-8
0.094, -4.222e-8
0.095, -4.283e-8
0.096, -4.345e-8
0.097, -4.405e-8
0.098, -4.461e-8
0.099, -4.519e-8
0.100, -4.576e-8
0.101, -4.628e-8
0.102, -4.683e-8
0.103, -4.737e-8
0.104, -4.785e-8
0.105, -4.834e-8
0.106, -4.878e-8
0.107, -4.923e-8
0.108, -4.965e-8
0.109, -5.003e-8
0.110, -5.044e-8
0.111, -5.080e-8
0.112, -5.115e-8
0.113, -5.149e-8
0.114, -5.179e-8
0.115, -5.210e-8
0.116, -5.239e-8
0.117, -5.263e-8
0.118, -5.287e-8
0.119, -5.308e-8
0.120, -5.328e-8
0.121, -5.348e-8
0.122, -5.364e-8
0.123, -5.380e-8
0.124, -5.393e-8
0.125, -5.404e-8
0.126, -5.416e-8
0.127, -5.423e-8
0.128, -5.432e-8
0.129, -5.438e-8
0.130, -5.441e-8
0.131, -5.444e-8
0.132, -5.446e-8
0.133, -5.445e-8
0.134, -5.445e-8
0.135, -5.442e-8
0.136, -5.439e-8
0.137, -5.435e-8
0.138, -5.428e-8
0.139, -5.423e-8
0.140, -5.416e-8
0.141, -5.407e-8
0.142, -5.398e-8
0.143, -5.387e-8
0.144, -5.377e-8
0.145, -5.365e-8
0.146, -5.352e-8
0.147, -5.339e-8
0.148, -5.326e-8
0.149, -5.312e-8
0.150, -5.298e-8
0.151, -5.283e-8
0.152, -5.268e-8
0.153, -5.252e-8
0.154, -5.236e-8
0.155, -5.220e-8
0.156, -5.203e-8
0.157, -5.186e-8
0.158, -5.169e-8
0.159, -5.151e-8
0.160, -5.134e-8
0.161, -5.116e-8
0.162, -5.097e-8
0.163, -5.080e-8
0.164, -5.063e-8
0.165, -5.044e-8
0.166, -5.027e-8
0.167, -5.008e-8
0.168, -4.989e-8
0.169, -4.971e-8
0.170, -4.953e-8
0.171, -4.935e-8
0.172, -4.917e-8
0.173, -4.897e-8
0.174, -4.879e-8
0.175, -4.862e-8
0.176, -4.844e-8
0.177, -4.826e-8
0.178, -4.809e-8
0.179, -4.792e-8
0.180, -4.775e-8
0.181, -4.758e-8
0.182, -4.740e-8
0.183, -4.723e-8
0.184, -4.706e-8
0.185, -4.689e-8
0.186, -4.672e-8
0.187, -4.655e-8
0.188, -4.638e-8
0.189, -4.622e-8
0.190, -4.606e-8
0.191, -4.590e-8
0.192, -4.575e-8
0.193, -4.559e-8
0.194, -4.544e-8
0.195, -4.529e-8
0.196, -4.515e-8
0.197, -4.500e-8
0.198, -4.486e-8
0.199, -4.471e-8
0.200, -4.457e-8
0.201, -4.444e-8
0.202, -4.429e-8
0.203, -4.416e-8
0.204, -4.403e-8
0.205, -4.390e-8
0.206, -4.378e-8
0.207, -4.364e-8
0.208, -4.351e-8
0.209, -4.339e-8
0.210, -4.327e-8
0.211, -4.315e-8
0.212, -4.303e-8
0.213, -4.291e-8
0.214, -4.280e-8
0.215, -4.268e-8
0.216, -4.257e-8
0.217, -4.246e-8
0.218, -4.235e-8
0.219, -4.224e-8
0.220, -4.213e-8
0.221, -4.202e-8
0.222, -4.192e-8
0.223, -4.182e-8
0.224, -4.172e-8
0.225, -4.162e-8
0.226, -4.152e-8
0.227, -4.142e-8
0.228, -4.133e-8
0.229, -4.124e-8
0.230, -4.116e-8
0.231, -4.107e-8
0.232, -4.097e-8
0.233, -4.088e-8
0.234, -4.079e-8
0.235, -4.071e-8
0.236, -4.063e-8
0.237, -4.054e-8
0.238, -4.046e-8
0.239, -4.038e-8
0.240, -4.030e-8
0.241, -4.022e-8
0.242, -4.014e-8
0.243, -4.007e-8
0.244, -4.000e-8
0.245, -3.993e-8
0.246, -3.986e-8
0.247, -3.979e-8
0.248, -3.971e-8
0.249, -3.965e-8
0.250, -3.958e-8
0.251, -3.952e-8
0.252, -3.945e-8
0.253, -3.938e-8
0.254, -3.932e-8
0.255, -3.926e-8
0.256, -3.920e-8
0.257, -3.914e-8
0.258, -3.908e-8
0.259, -3.902e-8
0.260, -3.896e-8
0.261, -3.890e-8
0.262, -3.885e-8
0.263, -3.879e-8
0.264, -3.873e-8
0.265, -3.868e-8
0.266, -3.863e-8
0.267, -3.857e-8
0.268, -3.852e-8
0.269, -3.847e-8
0.270, -3.842e-8
0.271, -3.838e-8
0.272, -3.833e-8
0.273, -3.829e-8
0.274, -3.824e-8
0.275, -3.820e-8
0.276, -3.815e-8
0.277, -3.810e-8
0.278, -3.806e-8
0.279, -3.802e-8
0.280, -3.798e-8
0.281, -3.794e-8
0.282, -3.789e-8
0.283, -3.785e-8
0.284, -3.782e-8
0.285, -3.778e-8
0.286, -3.774e-8
0.287, -3.770e-8
0.288, -3.766e-8
0.289, -3.763e-8
0.290, -3.759e-8
0.291, -3.756e-8
0.292, -3.752e-8
0.293, -3.749e-8
0.294, -3.746e-8
0.295, -3.743e-8
0.296, -3.740e-8
0.297, -3.737e-8
0.298, -3.734e-8
0.299, -3.731e-8
0.300, -3.697e-8
0.299, -3.607e-8
0.298, -3.577e-8
0.297, -3.561e-8
0.296, -3.547e-8
0.295, -3.535e-8
0.294, -3.523e-8
0.293, -3.513e-8
0.292, -3.502e-8
0.291, -3.493e-8
0.290, -3.485e-8
0.289, -3.477e-8
0.288, -3.469e-8
0.287, -3.460e-8
0.286, -3.453e-8
0.285, -3.445e-8
0.284, -3.438e-8
0.283, -3.431e-8
0.282, -3.423e-8
0.281, -3.416e-8
0.280, -3.410e-8
0.279, -3.403e-8
0.278, -3.397e-8
0.277, -3.390e-8
0.276, -3.383e-8
0.275, -3.378e-8
0.274, -3.371e-8
0.273, -3.365e-8
0.272, -3.359e-8
0.271, -3.353e-8
0.270, -3.348e-8
0.269, -3.341e-8
0.268, -3.335e-8
0.267, -3.330e-8
0.266, -3.325e-8
0.265, -3.320e-8
0.264, -3.314e-8
0.263, -3.307e-8
0.262, -3.302e-8
0.261, -3.297e-8
0.260, -3.293e-8
0.259, -3.288e-8
0.258, -3.282e-8
0.257, -3.277e-8
0.256, -3.272e-8
0.255, -3.267e-8
0.254, -3.262e-8
0.253, -3.257e-8
0.252, -3.252e-8
0.251, -3.247e-8
0.250, -3.242e-8
0.249, -3.237e-8
0.248, -3.232e-8
0.247, -3.227e-8
0.246, -3.222e-8
0.245, -3.217e-8
0.244, -3.212e-8
0.243, -3.206e-8
0.242, -3.200e-8
0.241, -3.196e-8
0.240, -3.191e-8
0.239, -3.184e-8
0.238, -3.179e-8
0.237, -3.174e-8
0.236, -3.169e-8
0.235, -3.164e-8
0.234, -3.158e-8
0.233, -3.152e-8
0.232, -3.146e-8
0.231, -3.141e-8
0.230, -3.136e-8
0.229, -3.130e-8
0.228, -3.124e-8
0.227, -3.119e-8
0.226, -3.113e-8
0.225, -3.107e-8
0.224, -3.101e-8
0.223, -3.094e-8
0.222, -3.088e-8
0.221, -3.081e-8
0.220, -3.076e-8
0.219, -3.069e-8
0.218, -3.062e-8
0.217, -3.055e-8
0.216, -3.049e-8
0.215, -3.042e-8
0.214, -3.035e-8
0.213, -3.027e-8
0.212, -3.020e-8
0.211, -3.013e-8
0.210, -3.005e-8
0.209, -2.997e-8
0.208, -2.988e-8
0.207, -2.979e-8
0.206, -2.971e-8
0.205, -2.963e-8
0.204, -2.953e-8
0.203, -2.944e-8
0.202, -2.934e-8
0.201, -2.925e-8
0.200, -2.916e-8
0.199, -2.905e-8
0.198, -2.895e-8
0.197, -2.884e-8
0.196, -2.873e-8
0.195, -2.862e-8
0.194, -2.850e-8
0.193, -2.839e-8
0.192, -2.826e-8
0.191, -2.813e-8
0.190, -2.800e-8
0.189, -2.787e-8
0.188, -2.774e-8
0.187, -2.759e-8
0.186, -2.745e-8
0.185, -2.730e-8
0.184, -2.715e-8
0.183, -2.699e-8
0.182, -2.682e-8
0.181, -2.665e-8
0.180, -2.648e-8
0.179, -2.630e-8
0.178, -2.611e-8
0.177, -2.593e-8
0.176, -2.573e-8
0.175, -2.553e-8
0.174, -2.533e-8
0.173, -2.511e-8
0.172, -2.489e-8
0.171, -2.467e-8
0.170, -2.444e-8
0.169, -2.419e-8
0.168, -2.394e-8
0.167, -2.368e-8
0.166, -2.342e-8
0.165, -2.315e-8
0.164, -2.287e-8
0.163, -2.258e-8
0.162, -2.228e-8
0.161, -2.199e-8
0.160, -2.168e-8
0.159, -2.135e-8
0.158, -2.102e-8
0.157, -2.067e-8
0.156, -2.034e-8
0.155, -1.999e-8
0.154, -1.961e-8
0.153, -1.923e-8
0.152, -1.884e-8
0.151, -1.844e-8
0.150, -1.804e-8
0.149, -1.762e-8
0.148, -1.719e-8
0.147, -1.675e-8
0.146, -1.630e-8
0.145, -1.585e-8
0.144, -1.537e-8
0.143, -1.488e-8
0.142, -1.439e-8
0.141, -1.387e-8
0.140, -1.336e-8
0.139, -1.283e-8
0.138, -1.229e-8
0.137, -1.175e-8
0.136, -1.120e-8
0.135, -1.062e-8
0.134, -1.005e-8
0.133, -9.447e-9
0.132, -8.855e-9
0.131, -8.257e-9
0.130, -7.623e-9
0.129, -6.995e-9
0.128, -6.349e-9
0.127, -5.693e-9
0.126, -5.055e-9
0.125, -4.386e-9
0.124, -3.741e-9
0.123, -3.073e-9
0.122, -2.386e-9
0.121, -1.728e-9
0.120, -1.027e-9
0.119, -3.351e-10
0.118, 3.517e-10
0.117, 1.064e-9
0.116, 1.756e-9
0.115, 2.464e-9
0.114, 3.171e-9
0.113, 3.855e-9
0.112, 4.565e-9
0.111, 5.254e-9
0.110, 5.933e-9
0.109, 6.641e-9
0.108, 7.312e-9
0.107, 7.997e-9
0.106, 8.692e-9
0.105, 9.336e-9
0.104, 1.001e-8
0.103, 1.067e-8
0.102, 1.133e-8
0.101, 1.196e-8
0.100, 1.256e-8
0.099, 1.317e-8
0.098, 1.378e-8
0.097, 1.435e-8
0.096, 1.493e-8
0.095, 1.548e-8
0.094, 1.602e-8
0.093, 1.657e-8
0.092, 1.708e-8
0.091, 1.757e-8
0.090, 1.807e-8
0.089, 1.853e-8
0.088, 1.899e-8
0.087, 1.942e-8
0.086, 1.981e-8
0.085, 2.021e-8
0.084, 2.058e-8
0.083, 2.093e-8
0.082, 2.128e-8
0.081, 2.160e-8
0.080, 2.190e-8
0.079, 2.219e-8
0.078, 2.246e-8
0.077, 2.272e-8
0.076, 2.295e-8
0.075, 2.315e-8
0.074, 2.337e-8
0.073, 2.353e-8
0.072, 2.370e-8
0.071, 2.385e-8
0.070, 2.396e-8
0.069, 2.410e-8
0.068, 2.419e-8
0.067, 2.428e-8
0.066, 2.436e-8
0.065, 2.441e-8
0.064, 2.446e-8
0.063, 2.450e-8
0.062, 2.450e-8
0.061, 2.451e-8
0.060, 2.449e-8
0.059, 2.448e-8
0.058, 2.446e-8
0.057, 2.441e-8
0.056, 2.436e-8
0.055, 2.430e-8
0.054, 2.423e-8
0.053, 2.416e-8
0.052, 2.407e-8
0.051, 2.399e-8
0.050, 2.389e-8
0.049, 2.378e-8
0.048, 2.367e-8
0.047, 2.355e-8
0.046, 2.342e-8
0.045, 2.330e-8
0.044, 2.316e-8
0.043, 2.303e-8
0.042, 2.290e-8
0.041, 2.274e-8
0.040, 2.260e-8
0.039, 2.246e-8
0.038, 2.230e-8
0.037, 2.215e-8
0.036, 2.198e-8
0.035, 2.182e-8
0.034, 2.167e-8
0.033, 2.150e-8
0.032, 2.134e-8
0.031, 2.118e-8
0.030, 2.100e-8
0.029, 2.085e-8
0.028, 2.068e-8
0.027, 2.051e-8
0.026, 2.035e-8
0.025, 2.019e-8
0.024, 2.002e-8
0.023, 1.986e-8
0.022, 1.969e-8
0.021, 1.952e-8
0.020, 1.936e-8
0.019, 1.920e-8
0.018, 1.904e-8
0.017, 1.887e-8
0.016, 1.871e-8
0.015, 1.856e-8
0.014, 1.840e-8
0.013, 1.825e-8
0.012, 1.809e-8
0.011, 1.794e-8
0.010, 1.779e-8
0.009, 1.763e-8
0.008, 1.749e-8
0.007, 1.734e-8
0.006, 1.719e-8
0.005, 1.705e-8
0.004, 1.691e-8
0.003, 1.677e-8
0.002, 1.663e-8
0.001, 1.649e-8
0.000, 1.638e-8
-0.001, 1.624e-8
-0.002, 1.609e-8
-0.003, 1.596e-8
-0.004, 1.583e-8
-0.005, 1.570e-8
-0.006, 1.558e-8
-0.007, 1.545e-8
-0.008, 1.533e-8
-0.009, 1.521e-8
-0.010, 1.508e-8
-0.011, 1.497e-8
-0.012, 1.486e-8
-0.013, 1.475e-8
-0.014, 1.463e-8
-0.015, 1.453e-8
-0.016, 1.442e-8
-0.017, 1.432e-8
-0.018, 1.421e-8
-0.019, 1.411e-8
-0.020, 1.400e-8
-0.021, 1.390e-8
-0.022, 1.381e-8
-0.023, 1.371e-8
-0.024, 1.361e-8
-0.025, 1.352e-8
-0.026, 1.343e-8
-0.027, 1.334e-8
-0.028, 1.325e-8
-0.029, 1.316e-8
-0.030, 1.308e-8
-0.031, 1.299e-8
-0.032, 1.291e-8
-0.033, 1.283e-8
-0.034, 1.274e-8
-0.035, 1.266e-8
-0.036, 1.259e-8
-0.037, 1.251e-8
-0.038, 1.244e-8
-0.039, 1.236e-8
-0.040, 1.229e-8
-0.041, 1.223e-8
-0.042, 1.216e-8
-0.043, 1.209e-8
-0.044, 1.202e-8
-0.045, 1.195e-8
-0.046, 1.189e-8
-0.047, 1.183e-8
-0.048, 1.176e-8
-0.049, 1.170e-8
-0.050, 1.163e-8
-0.051, 1.158e-8
-0.052, 1.152e-8
-0.053, 1.146e-8
-0.054, 1.140e-8
-0.055, 1.134e-8
-0.056, 1.129e-8
-0.057, 1.124e-8
-0.058, 1.118e-8
-0.059, 1.113e-8
-0.060, 1.108e-8
-0.061, 1.103e-8
-0.062, 1.098e-8
-0.063, 1.093e-8
-0.064, 1.088e-8
-0.065, 1.084e-8
-0.066, 1.079e-8
-0.067, 1.075e-8
-0.068, 1.070e-8
-0.069, 1.066e-8
-0.070, 1.061e-8
-0.071, 1.057e-8
-0.072, 1.053e-8
-0.073, 1.049e-8
-0.074, 1.045e-8
-0.075, 1.041e-8
-0.076, 1.038e-8
-0.077, 1.034e-8
-0.078, 1.031e-8
-0.079, 1.026e-8
-0.080, 1.023e-8
-0.081, 1.020e-8
-0.082, 1.016e-8
-0.083, 1.013e-8
-0.084, 1.009e-8
-0.085, 1.006e-8
-0.086, 1.004e-8
-0.087, 1.000e-8
-0.088, 9.973e-9
-0.089, 9.942e-9
-0.090, 9.913e-9
-0.091, 9.889e-9
-0.092, 9.863e-9
-0.093, 9.833e-9
-0.094, 9.807e-9
-0.095, 9.781e-9
-0.096, 9.757e-9
-0.097, 9.735e-9
-0.098, 9.705e-9
-0.099, 9.681e-9
-0.100, 9.659e-9
-0.101, 9.637e-9
-0.102, 9.621e-9
-0.103, 9.600e-9
-0.104, 9.576e-9
-0.105, 9.559e-9
-0.106, 9.537e-9
-0.107, 9.523e-9
-0.108, 9.501e-9
-0.109, 9.477e-9
-0.110, 9.465e-9
-0.111, 9.444e-9
-0.112, 9.430e-9
-0.113, 9.414e-9
-0.114, 9.393e-9
-0.115, 9.382e-9
-0.116, 9.369e-9
-0.117, 9.352e-9
-0.118, 9.340e-9
-0.119, 9.321e-9
-0.120, 9.310e-9
-0.121, 9.300e-9
-0.122, 9.287e-9
-0.123, 9.274e-9
-0.124, 9.261e-9
-0.125, 9.249e-9
-0.126, 9.244e-9
-0.127, 9.233e-9
-0.128, 9.222e-9
-0.129, 9.213e-9
-0.130, 9.203e-9
-0.131, 9.198e-9
-0.132, 9.190e-9
-0.133, 9.180e-9
-0.134, 9.170e-9
-0.135, 9.166e-9
-0.136, 9.160e-9
-0.137, 9.158e-9
-0.138, 9.146e-9
-0.139, 9.139e-9
-0.140, 9.137e-9
-0.141, 9.135e-9
-0.142, 9.134e-9
-0.143, 9.124e-9
-0.144, 9.119e-9
-0.145, 9.120e-9
-0.146, 9.117e-9
-0.147, 9.117e-9
-0.148, 9.113e-9
-0.149, 9.108e-9
-0.150, 9.111e-9
-0.151, 9.110e-9
-0.152, 9.112e-9
-0.153, 9.114e-9
-0.154, 9.109e-9
-0.155, 9.114e-9
-0.156, 9.119e-9
-0.157, 9.119e-9
-0.158, 9.121e-9
-0.159, 9.120e-9
-0.160, 9.125e-9
-0.161, 9.131e-9
-0.162, 9.135e-9
-0.163, 9.137e-9
-0.164, 9.139e-9
-0.165, 9.145e-9
-0.166, 9.155e-9
-0.167, 9.160e-9
-0.168, 9.163e-9
-0.169, 9.167e-9
-0.170, 9.175e-9
-0.171, 9.188e-9
-0.172, 9.196e-9
-0.173, 9.199e-9
-0.174, 9.209e-9
-0.175, 9.219e-9
-0.176, 9.229e-9
-0.177, 9.243e-9
-0.178, 9.248e-9
-0.179, 9.260e-9
-0.180, 9.275e-9
-0.181, 9.287e-9
-0.182, 9.301e-9
-0.183, 9.311e-9
-0.184, 9.318e-9
-0.185, 9.336e-9
-0.186, 9.348e-9
-0.187, 9.366e-9
-0.188, 9.379e-9
-0.189, 9.390e-9
-0.190, 9.411e-9
-0.191, 9.427e-9
-0.192, 9.446e-9
-0.193, 9.461e-9
-0.194, 9.472e-9
-0.195, 9.498e-9
-0.196, 9.517e-9
-0.197, 9.534e-9
-0.198, 9.552e-9
-0.199, 9.565e-9
