Mar. 16, 2023   10:13:13
Cyclic Voltammetry
File: c:/users/oliverrz/desktop/electrolab/data/2023_03_16\fcmeoh_macros_1_mm\electrode5_cv_50mvs_1_mm.bin
Data Source:  Experiment
Instrument Model:  CHI760E
Header: CV
Note: 

Init E (V) = -0.2
High E (V) = 0.3
Low E (V) = -0.2
Final E (V) = -0.2
Init P/N = P
Scan Rate (V/s) = 0.05
Segment = 3
Sample Interval (V) = 0.001
Quiet Time (sec) = 2
Sensitivity (A/V) = 1e-7

Results:

Channel 1:
Segment 1:
Ep = 0.124V
ip = -5.067e-8A
Ah = -6.410e-8C

Segment 2:
Ep = 0.052V
ip = 4.868e-8A
Ah = 6.411e-8C

Segment 3:

Potential/V, Current/A

-0.200, 8.699e-9
-0.199, 8.147e-9
-0.198, 7.935e-9
-0.197, 7.795e-9
-0.196, 7.673e-9
-0.195, 7.562e-9
-0.194, 7.446e-9
-0.193, 7.334e-9
-0.192, 7.232e-9
-0.191, 7.132e-9
-0.190, 7.035e-9
-0.189, 6.935e-9
-0.188, 6.834e-9
-0.187, 6.744e-9
-0.186, 6.653e-9
-0.185, 6.563e-9
-0.184, 6.475e-9
-0.183, 6.385e-9
-0.182, 6.302e-9
-0.181, 6.216e-9
-0.180, 6.131e-9
-0.179, 6.045e-9
-0.178, 5.958e-9
-0.177, 5.884e-9
-0.176, 5.809e-9
-0.175, 5.728e-9
-0.174, 5.652e-9
-0.173, 5.572e-9
-0.172, 5.493e-9
-0.171, 5.424e-9
-0.170, 5.353e-9
-0.169, 5.280e-9
-0.168, 5.206e-9
-0.167, 5.133e-9
-0.166, 5.069e-9
-0.165, 5.000e-9
-0.164, 4.933e-9
-0.163, 4.865e-9
-0.162, 4.800e-9
-0.161, 4.736e-9
-0.160, 4.675e-9
-0.159, 4.610e-9
-0.158, 4.542e-9
-0.157, 4.481e-9
-0.156, 4.423e-9
-0.155, 4.372e-9
-0.154, 4.309e-9
-0.153, 4.245e-9
-0.152, 4.191e-9
-0.151, 4.133e-9
-0.150, 4.084e-9
-0.149, 4.026e-9
-0.148, 3.967e-9
-0.147, 3.916e-9
-0.146, 3.862e-9
-0.145, 3.812e-9
-0.144, 3.760e-9
-0.143, 3.700e-9
-0.142, 3.654e-9
-0.141, 3.605e-9
-0.140, 3.557e-9
-0.139, 3.512e-9
-0.138, 3.458e-9
-0.137, 3.413e-9
-0.136, 3.368e-9
-0.135, 3.321e-9
-0.134, 3.277e-9
-0.133, 3.227e-9
-0.132, 3.181e-9
-0.131, 3.142e-9
-0.130, 3.097e-9
-0.129, 3.054e-9
-0.128, 3.007e-9
-0.127, 2.964e-9
-0.126, 2.929e-9
-0.125, 2.887e-9
-0.124, 2.843e-9
-0.123, 2.803e-9
-0.122, 2.763e-9
-0.121, 2.729e-9
-0.120, 2.691e-9
-0.119, 2.648e-9
-0.118, 2.610e-9
-0.117, 2.576e-9
-0.116, 2.539e-9
-0.115, 2.505e-9
-0.114, 2.466e-9
-0.113, 2.428e-9
-0.112, 2.395e-9
-0.111, 2.361e-9
-0.110, 2.330e-9
-0.109, 2.293e-9
-0.108, 2.259e-9
-0.107, 2.229e-9
-0.106, 2.195e-9
-0.105, 2.164e-9
-0.104, 2.131e-9
-0.103, 2.091e-9
-0.102, 2.059e-9
-0.101, 2.032e-9
-0.100, 2.000e-9
-0.099, 1.971e-9
-0.098, 1.935e-9
-0.097, 1.906e-9
-0.096, 1.878e-9
-0.095, 1.847e-9
-0.094, 1.816e-9
-0.093, 1.785e-9
-0.092, 1.756e-9
-0.091, 1.733e-9
-0.090, 1.703e-9
-0.089, 1.671e-9
-0.088, 1.641e-9
-0.087, 1.611e-9
-0.086, 1.587e-9
-0.085, 1.557e-9
-0.084, 1.526e-9
-0.083, 1.498e-9
-0.082, 1.468e-9
-0.081, 1.445e-9
-0.080, 1.418e-9
-0.079, 1.387e-9
-0.078, 1.356e-9
-0.077, 1.327e-9
-0.076, 1.301e-9
-0.075, 1.278e-9
-0.074, 1.249e-9
-0.073, 1.219e-9
-0.072, 1.194e-9
-0.071, 1.167e-9
-0.070, 1.142e-9
-0.069, 1.111e-9
-0.068, 1.077e-9
-0.067, 1.053e-9
-0.066, 1.025e-9
-0.065, 9.989e-10
-0.064, 9.668e-10
-0.063, 9.326e-10
-0.062, 9.082e-10
-0.061, 8.795e-10
-0.060, 8.483e-10
-0.059, 8.142e-10
-0.058, 7.813e-10
-0.057, 7.537e-10
-0.056, 7.270e-10
-0.055, 6.943e-10
-0.054, 6.623e-10
-0.053, 6.243e-10
-0.052, 5.897e-10
-0.051, 5.551e-10
-0.050, 5.216e-10
-0.049, 4.852e-10
-0.048, 4.514e-10
-0.047, 4.158e-10
-0.046, 3.845e-10
-0.045, 3.453e-10
-0.044, 3.040e-10
-0.043, 2.649e-10
-0.042, 2.262e-10
-0.041, 1.906e-10
-0.040, 1.519e-10
-0.039, 1.055e-10
-0.038, 6.047e-11
-0.037, 1.941e-11
-0.036, -2.410e-11
-0.035, -6.555e-11
-0.034, -1.172e-10
-0.033, -1.669e-10
-0.032, -2.128e-10
-0.031, -2.620e-10
-0.030, -3.136e-10
-0.029, -3.699e-10
-0.028, -4.300e-10
-0.027, -4.810e-10
-0.026, -5.404e-10
-0.025, -6.010e-10
-0.024, -6.617e-10
-0.023, -7.307e-10
-0.022, -7.901e-10
-0.021, -8.575e-10
-0.020, -9.244e-10
-0.019, -9.951e-10
-0.018, -1.074e-9
-0.017, -1.145e-9
-0.016, -1.218e-9
-0.015, -1.301e-9
-0.014, -1.382e-9
-0.013, -1.473e-9
-0.012, -1.562e-9
-0.011, -1.646e-9
-0.010, -1.746e-9
-0.009, -1.844e-9
-0.008, -1.943e-9
-0.007, -2.049e-9
-0.006, -2.152e-9
-0.005, -2.262e-9
-0.004, -2.380e-9
-0.003, -2.494e-9
-0.002, -2.618e-9
-0.001, -2.742e-9
-0.000, -2.905e-9
0.001, -3.042e-9
0.002, -3.170e-9
0.003, -3.313e-9
0.004, -3.452e-9
0.005, -3.596e-9
0.006, -3.763e-9
0.007, -3.927e-9
0.008, -4.094e-9
0.009, -4.270e-9
0.010, -4.447e-9
0.011, -4.639e-9
0.012, -4.833e-9
0.013, -5.029e-9
0.014, -5.241e-9
0.015, -5.449e-9
0.016, -5.668e-9
0.017, -5.902e-9
0.018, -6.128e-9
0.019, -6.370e-9
0.020, -6.617e-9
0.021, -6.879e-9
0.022, -7.148e-9
0.023, -7.424e-9
0.024, -7.702e-9
0.025, -8.000e-9
0.026, -8.305e-9
0.027, -8.617e-9
0.028, -8.936e-9
0.029, -9.252e-9
0.030, -9.595e-9
0.031, -9.943e-9
0.032, -1.030e-8
0.033, -1.067e-8
0.034, -1.103e-8
0.035, -1.143e-8
0.036, -1.183e-8
0.037, -1.223e-8
0.038, -1.266e-8
0.039, -1.309e-8
0.040, -1.353e-8
0.041, -1.399e-8
0.042, -1.445e-8
0.043, -1.493e-8
0.044, -1.542e-8
0.045, -1.590e-8
0.046, -1.642e-8
0.047, -1.695e-8
0.048, -1.747e-8
0.049, -1.802e-8
0.050, -1.856e-8
0.051, -1.914e-8
0.052, -1.971e-8
0.053, -2.030e-8
0.054, -2.090e-8
0.055, -2.149e-8
0.056, -2.210e-8
0.057, -2.275e-8
0.058, -2.337e-8
0.059, -2.402e-8
0.060, -2.467e-8
0.061, -2.532e-8
0.062, -2.600e-8
0.063, -2.666e-8
0.064, -2.735e-8
0.065, -2.805e-8
0.066, -2.874e-8
0.067, -2.943e-8
0.068, -3.013e-8
0.069, -3.083e-8
0.070, -3.155e-8
0.071, -3.224e-8
0.072, -3.296e-8
0.073, -3.368e-8
0.074, -3.437e-8
0.075, -3.510e-8
0.076, -3.580e-8
0.077, -3.651e-8
0.078, -3.722e-8
0.079, -3.791e-8
0.080, -3.859e-8
0.081, -3.930e-8
0.082, -3.996e-8
0.083, -4.063e-8
0.084, -4.130e-8
0.085, -4.194e-8
0.086, -4.259e-8
0.087, -4.320e-8
0.088, -4.382e-8
0.089, -4.445e-8
0.090, -4.502e-8
0.091, -4.563e-8
0.092, -4.620e-8
0.093, -4.673e-8
0.094, -4.728e-8
0.095, -4.779e-8
0.096, -4.829e-8
0.097, -4.878e-8
0.098, -4.923e-8
0.099, -4.968e-8
0.100, -5.012e-8
0.101, -5.053e-8
0.102, -5.093e-8
0.103, -5.133e-8
0.104, -5.168e-8
0.105, -5.202e-8
0.106, -5.233e-8
0.107, -5.263e-8
0.108, -5.291e-8
0.109, -5.316e-8
0.110, -5.342e-8
0.111, -5.364e-8
0.112, -5.384e-8
0.113, -5.403e-8
0.114, -5.419e-8
0.115, -5.437e-8
0.116, -5.451e-8
0.117, -5.462e-8
0.118, -5.474e-8
0.119, -5.481e-8
0.120, -5.489e-8
0.121, -5.496e-8
0.122, -5.499e-8
0.123, -5.502e-8
0.124, -5.504e-8
0.125, -5.503e-8
0.126, -5.503e-8
0.127, -5.501e-8
0.128, -5.498e-8
0.129, -5.494e-8
0.130, -5.486e-8
0.131, -5.481e-8
0.132, -5.474e-8
0.133, -5.465e-8
0.134, -5.456e-8
0.135, -5.444e-8
0.136, -5.433e-8
0.137, -5.422e-8
0.138, -5.409e-8
0.139, -5.397e-8
0.140, -5.383e-8
0.141, -5.369e-8
0.142, -5.356e-8
0.143, -5.339e-8
0.144, -5.324e-8
0.145, -5.308e-8
0.146, -5.291e-8
0.147, -5.275e-8
0.148, -5.258e-8
0.149, -5.240e-8
0.150, -5.223e-8
0.151, -5.205e-8
0.152, -5.187e-8
0.153, -5.169e-8
0.154, -5.151e-8
0.155, -5.133e-8
0.156, -5.115e-8
0.157, -5.095e-8
0.158, -5.077e-8
0.159, -5.059e-8
0.160, -5.040e-8
0.161, -5.022e-8
0.162, -5.003e-8
0.163, -4.985e-8
0.164, -4.966e-8
0.165, -4.947e-8
0.166, -4.930e-8
0.167, -4.912e-8
0.168, -4.893e-8
0.169, -4.875e-8
0.170, -4.857e-8
0.171, -4.840e-8
0.172, -4.823e-8
0.173, -4.805e-8
0.174, -4.788e-8
0.175, -4.770e-8
0.176, -4.754e-8
0.177, -4.738e-8
0.178, -4.720e-8
0.179, -4.704e-8
0.180, -4.687e-8
0.181, -4.671e-8
0.182, -4.654e-8
0.183, -4.637e-8
0.184, -4.621e-8
0.185, -4.605e-8
0.186, -4.590e-8
0.187, -4.575e-8
0.188, -4.560e-8
0.189, -4.545e-8
0.190, -4.530e-8
0.191, -4.516e-8
0.192, -4.501e-8
0.193, -4.487e-8
0.194, -4.473e-8
0.195, -4.459e-8
0.196, -4.446e-8
0.197, -4.433e-8
0.198, -4.420e-8
0.199, -4.406e-8
0.200, -4.394e-8
0.201, -4.381e-8
0.202, -4.368e-8
0.203, -4.356e-8
0.204, -4.344e-8
0.205, -4.332e-8
0.206, -4.321e-8
0.207, -4.309e-8
0.208, -4.297e-8
0.209, -4.285e-8
0.210, -4.274e-8
0.211, -4.263e-8
0.212, -4.253e-8
0.213, -4.242e-8
0.214, -4.232e-8
0.215, -4.221e-8
0.216, -4.211e-8
0.217, -4.202e-8
0.218, -4.192e-8
0.219, -4.182e-8
0.220, -4.172e-8
0.221, -4.162e-8
0.222, -4.152e-8
0.223, -4.143e-8
0.224, -4.133e-8
0.225, -4.125e-8
0.226, -4.116e-8
0.227, -4.108e-8
0.228, -4.099e-8
0.229, -4.090e-8
0.230, -4.083e-8
0.231, -4.075e-8
0.232, -4.066e-8
0.233, -4.058e-8
0.234, -4.050e-8
0.235, -4.042e-8
0.236, -4.035e-8
0.237, -4.027e-8
0.238, -4.019e-8
0.239, -4.012e-8
0.240, -4.004e-8
0.241, -3.998e-8
0.242, -3.991e-8
0.243, -3.984e-8
0.244, -3.978e-8
0.245, -3.971e-8
0.246, -3.965e-8
0.247, -3.958e-8
0.248, -3.951e-8
0.249, -3.945e-8
0.250, -3.938e-8
0.251, -3.933e-8
0.252, -3.926e-8
0.253, -3.920e-8
0.254, -3.914e-8
0.255, -3.909e-8
0.256, -3.904e-8
0.257, -3.898e-8
0.258, -3.892e-8
0.259, -3.886e-8
0.260, -3.881e-8
0.261, -3.875e-8
0.262, -3.870e-8
0.263, -3.864e-8
0.264, -3.859e-8
0.265, -3.854e-8
0.266, -3.849e-8
0.267, -3.844e-8
0.268, -3.839e-8
0.269, -3.835e-8
0.270, -3.830e-8
0.271, -3.826e-8
0.272, -3.821e-8
0.273, -3.817e-8
0.274, -3.812e-8
0.275, -3.808e-8
0.276, -3.805e-8
0.277, -3.801e-8
0.278, -3.796e-8
0.279, -3.792e-8
0.280, -3.789e-8
0.281, -3.786e-8
0.282, -3.782e-8
0.283, -3.777e-8
0.284, -3.774e-8
0.285, -3.770e-8
0.286, -3.768e-8
0.287, -3.764e-8
0.288, -3.761e-8
0.289, -3.757e-8
0.290, -3.754e-8
0.291, -3.751e-8
0.292, -3.748e-8
0.293, -3.744e-8
0.294, -3.742e-8
0.295, -3.739e-8
0.296, -3.737e-8
0.297, -3.734e-8
0.298, -3.731e-8
0.299, -3.728e-8
0.300, -3.693e-8
0.299, -3.602e-8
0.298, -3.574e-8
0.297, -3.558e-8
0.296, -3.545e-8
0.295, -3.533e-8
0.294, -3.522e-8
0.293, -3.512e-8
0.292, -3.503e-8
0.291, -3.494e-8
0.290, -3.486e-8
0.289, -3.478e-8
0.288, -3.471e-8
0.287, -3.463e-8
0.286, -3.455e-8
0.285, -3.448e-8
0.284, -3.441e-8
0.283, -3.434e-8
0.282, -3.427e-8
0.281, -3.420e-8
0.280, -3.414e-8
0.279, -3.408e-8
0.278, -3.403e-8
0.277, -3.396e-8
0.276, -3.390e-8
0.275, -3.384e-8
0.274, -3.378e-8
0.273, -3.373e-8
0.272, -3.367e-8
0.271, -3.361e-8
0.270, -3.356e-8
0.269, -3.351e-8
0.268, -3.345e-8
0.267, -3.340e-8
0.266, -3.334e-8
0.265, -3.329e-8
0.264, -3.324e-8
0.263, -3.319e-8
0.262, -3.314e-8
0.261, -3.308e-8
0.260, -3.303e-8
0.259, -3.299e-8
0.258, -3.294e-8
0.257, -3.289e-8
0.256, -3.283e-8
0.255, -3.278e-8
0.254, -3.274e-8
0.253, -3.269e-8
0.252, -3.264e-8
0.251, -3.259e-8
0.250, -3.255e-8
0.249, -3.251e-8
0.248, -3.247e-8
0.247, -3.242e-8
0.246, -3.237e-8
0.245, -3.233e-8
0.244, -3.228e-8
0.243, -3.224e-8
0.242, -3.219e-8
0.241, -3.215e-8
0.240, -3.210e-8
0.239, -3.205e-8
0.238, -3.200e-8
0.237, -3.195e-8
0.236, -3.190e-8
0.235, -3.185e-8
0.234, -3.180e-8
0.233, -3.175e-8
0.232, -3.170e-8
0.231, -3.165e-8
0.230, -3.160e-8
0.229, -3.155e-8
0.228, -3.150e-8
0.227, -3.145e-8
0.226, -3.140e-8
0.225, -3.135e-8
0.224, -3.130e-8
0.223, -3.125e-8
0.222, -3.119e-8
0.221, -3.113e-8
0.220, -3.107e-8
0.219, -3.102e-8
0.218, -3.096e-8
0.217, -3.089e-8
0.216, -3.083e-8
0.215, -3.077e-8
0.214, -3.072e-8
0.213, -3.066e-8
0.212, -3.059e-8
0.211, -3.053e-8
0.210, -3.046e-8
0.209, -3.040e-8
0.208, -3.032e-8
0.207, -3.025e-8
0.206, -3.018e-8
0.205, -3.011e-8
0.204, -3.004e-8
0.203, -2.997e-8
0.202, -2.989e-8
0.201, -2.981e-8
0.200, -2.973e-8
0.199, -2.965e-8
0.198, -2.956e-8
0.197, -2.947e-8
0.196, -2.938e-8
0.195, -2.929e-8
0.194, -2.920e-8
0.193, -2.911e-8
0.192, -2.900e-8
0.191, -2.890e-8
0.190, -2.880e-8
0.189, -2.869e-8
0.188, -2.858e-8
0.187, -2.846e-8
0.186, -2.834e-8
0.185, -2.823e-8
0.184, -2.811e-8
0.183, -2.798e-8
0.182, -2.785e-8
0.181, -2.771e-8
0.180, -2.757e-8
0.179, -2.742e-8
0.178, -2.728e-8
0.177, -2.713e-8
0.176, -2.698e-8
0.175, -2.681e-8
0.174, -2.665e-8
0.173, -2.648e-8
0.172, -2.631e-8
0.171, -2.613e-8
0.170, -2.594e-8
0.169, -2.576e-8
0.168, -2.556e-8
0.167, -2.535e-8
0.166, -2.514e-8
0.165, -2.493e-8
0.164, -2.471e-8
0.163, -2.448e-8
0.162, -2.424e-8
0.161, -2.400e-8
0.160, -2.375e-8
0.159, -2.349e-8
0.158, -2.323e-8
0.157, -2.294e-8
0.156, -2.266e-8
0.155, -2.238e-8
0.154, -2.208e-8
0.153, -2.177e-8
0.152, -2.145e-8
0.151, -2.111e-8
0.150, -2.079e-8
0.149, -2.044e-8
0.148, -2.009e-8
0.147, -1.972e-8
0.146, -1.934e-8
0.145, -1.897e-8
0.144, -1.858e-8
0.143, -1.817e-8
0.142, -1.776e-8
0.141, -1.733e-8
0.140, -1.690e-8
0.139, -1.646e-8
0.138, -1.600e-8
0.137, -1.554e-8
0.136, -1.504e-8
0.135, -1.454e-8
0.134, -1.406e-8
0.133, -1.353e-8
0.132, -1.301e-8
0.131, -1.248e-8
0.130, -1.193e-8
0.129, -1.139e-8
0.128, -1.080e-8
0.127, -1.021e-8
0.126, -9.640e-9
0.125, -9.035e-9
0.124, -8.443e-9
0.123, -7.827e-9
0.122, -7.191e-9
0.121, -6.572e-9
0.120, -5.925e-9
0.119, -5.262e-9
0.118, -4.617e-9
0.117, -3.939e-9
0.116, -3.271e-9
0.115, -2.590e-9
0.114, -1.898e-9
0.113, -1.219e-9
0.112, -5.201e-10
0.111, 1.850e-10
0.110, 8.847e-10
0.109, 1.605e-9
0.108, 2.303e-9
0.107, 3.013e-9
0.106, 3.746e-9
0.105, 4.433e-9
0.104, 5.149e-9
0.103, 5.872e-9
0.102, 6.596e-9
0.101, 7.301e-9
0.100, 7.981e-9
0.099, 8.655e-9
0.098, 9.358e-9
0.097, 1.002e-8
0.096, 1.071e-8
0.095, 1.136e-8
0.094, 1.201e-8
0.093, 1.266e-8
0.092, 1.329e-8
0.091, 1.391e-8
0.090, 1.454e-8
0.089, 1.512e-8
0.088, 1.571e-8
0.087, 1.629e-8
0.086, 1.683e-8
0.085, 1.739e-8
0.084, 1.790e-8
0.083, 1.841e-8
0.082, 1.891e-8
0.081, 1.936e-8
0.080, 1.984e-8
0.079, 2.027e-8
0.078, 2.068e-8
0.077, 2.111e-8
0.076, 2.150e-8
0.075, 2.185e-8
0.074, 2.221e-8
0.073, 2.253e-8
0.072, 2.284e-8
0.071, 2.315e-8
0.070, 2.340e-8
0.069, 2.367e-8
0.068, 2.391e-8
0.067, 2.412e-8
0.066, 2.435e-8
0.065, 2.453e-8
0.064, 2.471e-8
0.063, 2.486e-8
0.062, 2.499e-8
0.061, 2.512e-8
0.060, 2.522e-8
0.059, 2.530e-8
0.058, 2.538e-8
0.057, 2.544e-8
0.056, 2.549e-8
0.055, 2.552e-8
0.054, 2.553e-8
0.053, 2.555e-8
0.052, 2.555e-8
0.051, 2.554e-8
0.050, 2.553e-8
0.049, 2.547e-8
0.048, 2.543e-8
0.047, 2.538e-8
0.046, 2.531e-8
0.045, 2.524e-8
0.044, 2.516e-8
0.043, 2.506e-8
0.042, 2.498e-8
0.041, 2.487e-8
0.040, 2.476e-8
0.039, 2.465e-8
0.038, 2.453e-8
0.037, 2.441e-8
0.036, 2.428e-8
0.035, 2.414e-8
0.034, 2.400e-8
0.033, 2.386e-8
0.032, 2.371e-8
0.031, 2.356e-8
0.030, 2.341e-8
0.029, 2.326e-8
0.028, 2.310e-8
0.027, 2.294e-8
0.026, 2.280e-8
0.025, 2.263e-8
0.024, 2.247e-8
0.023, 2.231e-8
0.022, 2.215e-8
0.021, 2.199e-8
0.020, 2.182e-8
0.019, 2.165e-8
0.018, 2.149e-8
0.017, 2.133e-8
0.016, 2.116e-8
0.015, 2.100e-8
0.014, 2.083e-8
0.013, 2.068e-8
0.012, 2.052e-8
0.011, 2.035e-8
0.010, 2.019e-8
0.009, 2.003e-8
0.008, 1.988e-8
0.007, 1.973e-8
0.006, 1.956e-8
0.005, 1.942e-8
0.004, 1.926e-8
0.003, 1.911e-8
0.002, 1.897e-8
0.001, 1.882e-8
0.000, 1.870e-8
-0.001, 1.855e-8
-0.002, 1.840e-8
-0.003, 1.825e-8
-0.004, 1.811e-8
-0.005, 1.797e-8
-0.006, 1.784e-8
-0.007, 1.770e-8
-0.008, 1.757e-8
-0.009, 1.744e-8
-0.010, 1.731e-8
-0.011, 1.718e-8
-0.012, 1.706e-8
-0.013, 1.694e-8
-0.014, 1.682e-8
-0.015, 1.669e-8
-0.016, 1.657e-8
-0.017, 1.646e-8
-0.018, 1.634e-8
-0.019, 1.623e-8
-0.020, 1.611e-8
-0.021, 1.600e-8
-0.022, 1.590e-8
-0.023, 1.579e-8
-0.024, 1.569e-8
-0.025, 1.559e-8
-0.026, 1.549e-8
-0.027, 1.539e-8
-0.028, 1.529e-8
-0.029, 1.520e-8
-0.030, 1.510e-8
-0.031, 1.501e-8
-0.032, 1.492e-8
-0.033, 1.484e-8
-0.034, 1.475e-8
-0.035, 1.466e-8
-0.036, 1.458e-8
-0.037, 1.450e-8
-0.038, 1.442e-8
-0.039, 1.435e-8
-0.040, 1.426e-8
-0.041, 1.419e-8
-0.042, 1.411e-8
-0.043, 1.404e-8
-0.044, 1.397e-8
-0.045, 1.390e-8
-0.046, 1.383e-8
-0.047, 1.376e-8
-0.048, 1.370e-8
-0.049, 1.363e-8
-0.050, 1.357e-8
-0.051, 1.351e-8
-0.052, 1.345e-8
-0.053, 1.339e-8
-0.054, 1.334e-8
-0.055, 1.328e-8
-0.056, 1.322e-8
-0.057, 1.317e-8
-0.058, 1.312e-8
-0.059, 1.307e-8
-0.060, 1.302e-8
-0.061, 1.296e-8
-0.062, 1.292e-8
-0.063, 1.287e-8
-0.064, 1.283e-8
-0.065, 1.278e-8
-0.066, 1.274e-8
-0.067, 1.270e-8
-0.068, 1.266e-8
-0.069, 1.261e-8
-0.070, 1.258e-8
-0.071, 1.253e-8
-0.072, 1.250e-8
-0.073, 1.247e-8
-0.074, 1.243e-8
-0.075, 1.239e-8
-0.076, 1.236e-8
-0.077, 1.234e-8
-0.078, 1.231e-8
-0.079, 1.228e-8
-0.080, 1.225e-8
-0.081, 1.223e-8
-0.082, 1.220e-8
-0.083, 1.218e-8
-0.084, 1.215e-8
-0.085, 1.213e-8
-0.086, 1.210e-8
-0.087, 1.208e-8
-0.088, 1.206e-8
-0.089, 1.205e-8
-0.090, 1.202e-8
-0.091, 1.201e-8
-0.092, 1.199e-8
-0.093, 1.197e-8
-0.094, 1.196e-8
-0.095, 1.194e-8
-0.096, 1.193e-8
-0.097, 1.192e-8
-0.098, 1.191e-8
-0.099, 1.190e-8
-0.100, 1.189e-8
-0.101, 1.188e-8
-0.102, 1.188e-8
-0.103, 1.187e-8
-0.104, 1.186e-8
-0.105, 1.186e-8
-0.106, 1.185e-8
-0.107, 1.185e-8
-0.108, 1.185e-8
-0.109, 1.185e-8
-0.110, 1.184e-8
-0.111, 1.184e-8
-0.112, 1.185e-8
-0.113, 1.185e-8
-0.114, 1.185e-8
-0.115, 1.185e-8
-0.116, 1.186e-8
-0.117, 1.186e-8
-0.118, 1.187e-8
-0.119, 1.188e-8
-0.120, 1.188e-8
-0.121, 1.189e-8
-0.122, 1.190e-8
-0.123, 1.191e-8
-0.124, 1.192e-8
-0.125, 1.193e-8
-0.126, 1.195e-8
-0.127, 1.196e-8
-0.128, 1.198e-8
-0.129, 1.200e-8
-0.130, 1.201e-8
-0.131, 1.202e-8
-0.132, 1.205e-8
-0.133, 1.206e-8
-0.134, 1.209e-8
-0.135, 1.210e-8
-0.136, 1.212e-8
-0.137, 1.215e-8
-0.138, 1.217e-8
-0.139, 1.220e-8
-0.140, 1.222e-8
-0.141, 1.225e-8
-0.142, 1.228e-8
-0.143, 1.230e-8
-0.144, 1.233e-8
-0.145, 1.235e-8
-0.146, 1.238e-8
-0.147, 1.241e-8
-0.148, 1.245e-8
-0.149, 1.248e-8
-0.150, 1.252e-8
-0.151, 1.255e-8
-0.152, 1.259e-8
-0.153, 1.263e-8
-0.154, 1.267e-8
-0.155, 1.270e-8
-0.156, 1.274e-8
-0.157, 1.278e-8
-0.158, 1.283e-8
-0.159, 1.287e-8
-0.160, 1.291e-8
-0.161, 1.296e-8
-0.162, 1.301e-8
-0.163, 1.306e-8
-0.164, 1.310e-8
-0.165, 1.315e-8
-0.166, 1.320e-8
-0.167, 1.325e-8
-0.168, 1.331e-8
-0.169, 1.336e-8
-0.170, 1.340e-8
-0.171, 1.347e-8
-0.172, 1.352e-8
-0.173, 1.358e-8
-0.174, 1.364e-8
-0.175, 1.369e-8
-0.176, 1.375e-8
-0.177, 1.382e-8
-0.178, 1.388e-8
-0.179, 1.395e-8
-0.180, 1.401e-8
-0.181, 1.407e-8
-0.182, 1.415e-8
-0.183, 1.421e-8
-0.184, 1.428e-8
-0.185, 1.435e-8
-0.186, 1.442e-8
-0.187, 1.450e-8
-0.188, 1.458e-8
-0.189, 1.465e-8
-0.190, 1.473e-8
-0.191, 1.480e-8
-0.192, 1.488e-8
-0.193, 1.497e-8
-0.194, 1.505e-8
-0.195, 1.513e-8
-0.196, 1.521e-8
-0.197, 1.530e-8
-0.198, 1.539e-8
-0.199, 1.548e-8
