Mar. 16, 2023   10:15:12
Cyclic Voltammetry
File: c:/users/oliverrz/desktop/electrolab/data/2023_03_16\fcmeoh_macros_1_mm\electrode6_cv_200mvs_1_mm.bin
Data Source:  Experiment
Instrument Model:  CHI760E
Header: CV
Note: 

Init E (V) = -0.2
High E (V) = 0.3
Low E (V) = -0.2
Final E (V) = -0.2
Init P/N = P
Scan Rate (V/s) = 0.2
Segment = 3
Sample Interval (V) = 0.001
Quiet Time (sec) = 2
Sensitivity (A/V) = 1e-7

Results:

Channel 1:
Segment 1:
Ep = 0.122V
ip = -9.273e-8A
Ah = -2.839e-8C

Segment 2:
Ep = 0.060V
ip = 8.672e-8A
Ah = 2.713e-8C

Segment 3:

Potential/V, Current/A

-0.200, 1.209e-8
-0.199, 1.068e-8
-0.198, 1.041e-8
-0.197, 1.028e-8
-0.196, 9.980e-9
-0.195, 9.772e-9
-0.194, 9.725e-9
-0.193, 9.514e-9
-0.192, 9.287e-9
-0.191, 9.208e-9
-0.190, 9.097e-9
-0.189, 8.875e-9
-0.188, 8.735e-9
-0.187, 8.712e-9
-0.186, 8.493e-9
-0.185, 8.279e-9
-0.184, 8.295e-9
-0.183, 8.142e-9
-0.182, 7.905e-9
-0.181, 7.883e-9
-0.180, 7.775e-9
-0.179, 7.561e-9
-0.178, 7.480e-9
-0.177, 7.425e-9
-0.176, 7.270e-9
-0.175, 7.086e-9
-0.174, 7.084e-9
-0.173, 6.961e-9
-0.172, 6.747e-9
-0.171, 6.722e-9
-0.170, 6.659e-9
-0.169, 6.443e-9
-0.168, 6.378e-9
-0.167, 6.352e-9
-0.166, 6.164e-9
-0.165, 6.028e-9
-0.164, 6.024e-9
-0.163, 5.917e-9
-0.162, 5.730e-9
-0.161, 5.694e-9
-0.160, 5.643e-9
-0.159, 5.461e-9
-0.158, 5.367e-9
-0.157, 5.387e-9
-0.156, 5.203e-9
-0.155, 5.077e-9
-0.154, 5.090e-9
-0.153, 4.952e-9
-0.152, 4.804e-9
-0.151, 4.799e-9
-0.150, 4.733e-9
-0.149, 4.556e-9
-0.148, 4.486e-9
-0.147, 4.504e-9
-0.146, 4.354e-9
-0.145, 4.201e-9
-0.144, 4.263e-9
-0.143, 4.142e-9
-0.142, 3.961e-9
-0.141, 3.976e-9
-0.140, 3.920e-9
-0.139, 3.751e-9
-0.138, 3.723e-9
-0.137, 3.696e-9
-0.136, 3.578e-9
-0.135, 3.447e-9
-0.134, 3.480e-9
-0.133, 3.399e-9
-0.132, 3.224e-9
-0.131, 3.244e-9
-0.130, 3.201e-9
-0.129, 3.031e-9
-0.128, 2.976e-9
-0.127, 3.010e-9
-0.126, 2.852e-9
-0.125, 2.764e-9
-0.124, 2.791e-9
-0.123, 2.711e-9
-0.122, 2.557e-9
-0.121, 2.564e-9
-0.120, 2.552e-9
-0.119, 2.387e-9
-0.118, 2.328e-9
-0.117, 2.380e-9
-0.116, 2.232e-9
-0.115, 2.132e-9
-0.114, 2.194e-9
-0.113, 2.075e-9
-0.112, 1.962e-9
-0.111, 1.969e-9
-0.110, 1.935e-9
-0.109, 1.807e-9
-0.108, 1.750e-9
-0.107, 1.797e-9
-0.106, 1.673e-9
-0.105, 1.548e-9
-0.104, 1.623e-9
-0.103, 1.521e-9
-0.102, 1.370e-9
-0.101, 1.423e-9
-0.100, 1.379e-9
-0.099, 1.257e-9
-0.098, 1.221e-9
-0.097, 1.239e-9
-0.096, 1.151e-9
-0.095, 1.028e-9
-0.094, 1.073e-9
-0.093, 1.017e-9
-0.092, 8.609e-10
-0.091, 9.013e-10
-0.090, 8.855e-10
-0.089, 7.237e-10
-0.088, 7.109e-10
-0.087, 7.462e-10
-0.086, 6.058e-10
-0.085, 5.231e-10
-0.084, 5.786e-10
-0.083, 5.051e-10
-0.082, 3.725e-10
-0.081, 3.822e-10
-0.080, 3.945e-10
-0.079, 2.386e-10
-0.078, 2.047e-10
-0.077, 2.421e-10
-0.076, 9.798e-11
-0.075, 3.251e-11
-0.074, 8.774e-11
-0.073, -6.281e-12
-0.072, -1.149e-10
-0.071, -8.927e-11
-0.070, -1.294e-10
-0.069, -2.521e-10
-0.068, -2.998e-10
-0.067, -2.446e-10
-0.066, -3.722e-10
-0.065, -4.897e-10
-0.064, -4.135e-10
-0.063, -4.943e-10
-0.062, -6.542e-10
-0.061, -6.075e-10
-0.060, -6.396e-10
-0.059, -7.733e-10
-0.058, -8.221e-10
-0.057, -7.902e-10
-0.056, -9.104e-10
-0.055, -1.017e-9
-0.054, -9.744e-10
-0.053, -1.049e-9
-0.052, -1.211e-9
-0.051, -1.174e-9
-0.050, -1.207e-9
-0.049, -1.377e-9
-0.048, -1.395e-9
-0.047, -1.377e-9
-0.046, -1.535e-9
-0.045, -1.624e-9
-0.044, -1.600e-9
-0.043, -1.687e-9
-0.042, -1.848e-9
-0.041, -1.862e-9
-0.040, -1.880e-9
-0.039, -2.053e-9
-0.038, -2.133e-9
-0.037, -2.100e-9
-0.036, -2.271e-9
-0.035, -2.379e-9
-0.034, -2.359e-9
-0.033, -2.488e-9
-0.032, -2.654e-9
-0.031, -2.660e-9
-0.030, -2.742e-9
-0.029, -2.896e-9
-0.028, -3.017e-9
-0.027, -3.011e-9
-0.026, -3.198e-9
-0.025, -3.371e-9
-0.024, -3.353e-9
-0.023, -3.468e-9
-0.022, -3.715e-9
-0.021, -3.725e-9
-0.020, -3.839e-9
-0.019, -4.044e-9
-0.018, -4.151e-9
-0.017, -4.219e-9
-0.016, -4.410e-9
-0.015, -4.620e-9
-0.014, -4.668e-9
-0.013, -4.835e-9
-0.012, -5.105e-9
-0.011, -5.157e-9
-0.010, -5.302e-9
-0.009, -5.579e-9
-0.008, -5.737e-9
-0.007, -5.829e-9
-0.006, -6.110e-9
-0.005, -6.339e-9
-0.004, -6.452e-9
-0.003, -6.673e-9
-0.002, -6.979e-9
-0.001, -7.153e-9
-0.000, -7.491e-9
0.001, -7.706e-9
0.002, -7.958e-9
0.003, -8.097e-9
0.004, -8.462e-9
0.005, -8.757e-9
0.006, -8.931e-9
0.007, -9.296e-9
0.008, -9.634e-9
0.009, -9.889e-9
0.010, -1.019e-8
0.011, -1.059e-8
0.012, -1.095e-8
0.013, -1.121e-8
0.014, -1.165e-8
0.015, -1.209e-8
0.016, -1.234e-8
0.017, -1.280e-8
0.018, -1.330e-8
0.019, -1.363e-8
0.020, -1.409e-8
0.021, -1.461e-8
0.022, -1.507e-8
0.023, -1.550e-8
0.024, -1.606e-8
0.025, -1.664e-8
0.026, -1.711e-8
0.027, -1.765e-8
0.028, -1.833e-8
0.029, -1.880e-8
0.030, -1.943e-8
0.031, -2.009e-8
0.032, -2.069e-8
0.033, -2.130e-8
0.034, -2.207e-8
0.035, -2.275e-8
0.036, -2.343e-8
0.037, -2.415e-8
0.038, -2.499e-8
0.039, -2.571e-8
0.040, -2.649e-8
0.041, -2.737e-8
0.042, -2.819e-8
0.043, -2.897e-8
0.044, -2.995e-8
0.045, -3.082e-8
0.046, -3.167e-8
0.047, -3.269e-8
0.048, -3.364e-8
0.049, -3.459e-8
0.050, -3.559e-8
0.051, -3.666e-8
0.052, -3.774e-8
0.053, -3.870e-8
0.054, -3.985e-8
0.055, -4.101e-8
0.056, -4.199e-8
0.057, -4.320e-8
0.058, -4.440e-8
0.059, -4.548e-8
0.060, -4.676e-8
0.061, -4.791e-8
0.062, -4.916e-8
0.063, -5.035e-8
0.064, -5.167e-8
0.065, -5.294e-8
0.066, -5.416e-8
0.067, -5.538e-8
0.068, -5.682e-8
0.069, -5.801e-8
0.070, -5.932e-8
0.071, -6.066e-8
0.072, -6.197e-8
0.073, -6.326e-8
0.074, -6.464e-8
0.075, -6.593e-8
0.076, -6.725e-8
0.077, -6.855e-8
0.078, -6.988e-8
0.079, -7.121e-8
0.080, -7.242e-8
0.081, -7.375e-8
0.082, -7.505e-8
0.083, -7.618e-8
0.084, -7.756e-8
0.085, -7.873e-8
0.086, -7.986e-8
0.087, -8.113e-8
0.088, -8.227e-8
0.089, -8.342e-8
0.090, -8.456e-8
0.091, -8.562e-8
0.092, -8.673e-8
0.093, -8.766e-8
0.094, -8.870e-8
0.095, -8.976e-8
0.096, -9.056e-8
0.097, -9.154e-8
0.098, -9.245e-8
0.099, -9.318e-8
0.100, -9.409e-8
0.101, -9.480e-8
0.102, -9.564e-8
0.103, -9.629e-8
0.104, -9.697e-8
0.105, -9.760e-8
0.106, -9.809e-8
0.107, -9.868e-8
0.108, -9.925e-8
0.109, -9.958e-8
0.110, -1.001e-7
0.111, -1.005e-7
0.112, -1.008e-7
0.113, -1.011e-7
0.114, -1.015e-7
0.115, -1.017e-7
0.116, -1.019e-7
0.117, -1.021e-7
0.118, -1.022e-7
0.119, -1.023e-7
0.120, -1.024e-7
0.121, -1.025e-7
0.122, -1.025e-7
0.123, -1.023e-7
0.124, -1.024e-7
0.125, -1.023e-7
0.126, -1.022e-7
0.127, -1.021e-7
0.128, -1.020e-7
0.129, -1.018e-7
0.130, -1.016e-7
0.131, -1.014e-7
0.132, -1.012e-7
0.133, -1.008e-7
0.134, -1.006e-7
0.135, -1.004e-7
0.136, -9.994e-8
0.137, -9.967e-8
0.138, -9.939e-8
0.139, -9.894e-8
0.140, -9.863e-8
0.141, -9.826e-8
0.142, -9.790e-8
0.143, -9.743e-8
0.144, -9.706e-8
0.145, -9.669e-8
0.146, -9.620e-8
0.147, -9.577e-8
0.148, -9.544e-8
0.149, -9.489e-8
0.150, -9.444e-8
0.151, -9.407e-8
0.152, -9.359e-8
0.153, -9.306e-8
0.154, -9.270e-8
0.155, -9.224e-8
0.156, -9.172e-8
0.157, -9.124e-8
0.158, -9.085e-8
0.159, -9.036e-8
0.160, -8.983e-8
0.161, -8.945e-8
0.162, -8.899e-8
0.163, -8.843e-8
0.164, -8.806e-8
0.165, -8.763e-8
0.166, -8.709e-8
0.167, -8.668e-8
0.168, -8.628e-8
0.169, -8.576e-8
0.170, -8.530e-8
0.171, -8.490e-8
0.172, -8.449e-8
0.173, -8.395e-8
0.174, -8.360e-8
0.175, -8.323e-8
0.176, -8.268e-8
0.177, -8.229e-8
0.178, -8.200e-8
0.179, -8.150e-8
0.180, -8.107e-8
0.181, -8.073e-8
0.182, -8.033e-8
0.183, -7.988e-8
0.184, -7.952e-8
0.185, -7.920e-8
0.186, -7.874e-8
0.187, -7.835e-8
0.188, -7.809e-8
0.189, -7.763e-8
0.190, -7.724e-8
0.191, -7.698e-8
0.192, -7.662e-8
0.193, -7.617e-8
0.194, -7.592e-8
0.195, -7.560e-8
0.196, -7.519e-8
0.197, -7.486e-8
0.198, -7.463e-8
0.199, -7.425e-8
0.200, -7.390e-8
0.201, -7.366e-8
0.202, -7.337e-8
0.203, -7.295e-8
0.204, -7.275e-8
0.205, -7.250e-8
0.206, -7.211e-8
0.207, -7.184e-8
0.208, -7.164e-8
0.209, -7.129e-8
0.210, -7.100e-8
0.211, -7.079e-8
0.212, -7.054e-8
0.213, -7.015e-8
0.214, -6.997e-8
0.215, -6.979e-8
0.216, -6.941e-8
0.217, -6.919e-8
0.218, -6.905e-8
0.219, -6.871e-8
0.220, -6.846e-8
0.221, -6.829e-8
0.222, -6.807e-8
0.223, -6.776e-8
0.224, -6.760e-8
0.225, -6.743e-8
0.226, -6.711e-8
0.227, -6.689e-8
0.228, -6.681e-8
0.229, -6.651e-8
0.230, -6.628e-8
0.231, -6.618e-8
0.232, -6.595e-8
0.233, -6.565e-8
0.234, -6.555e-8
0.235, -6.540e-8
0.236, -6.511e-8
0.237, -6.493e-8
0.238, -6.484e-8
0.239, -6.462e-8
0.240, -6.438e-8
0.241, -6.430e-8
0.242, -6.414e-8
0.243, -6.385e-8
0.244, -6.378e-8
0.245, -6.365e-8
0.246, -6.338e-8
0.247, -6.325e-8
0.248, -6.317e-8
0.249, -6.294e-8
0.250, -6.277e-8
0.251, -6.268e-8
0.252, -6.255e-8
0.253, -6.229e-8
0.254, -6.220e-8
0.255, -6.214e-8
0.256, -6.188e-8
0.257, -6.175e-8
0.258, -6.173e-8
0.259, -6.149e-8
0.260, -6.135e-8
0.261, -6.128e-8
0.262, -6.116e-8
0.263, -6.094e-8
0.264, -6.088e-8
0.265, -6.080e-8
0.266, -6.059e-8
0.267, -6.046e-8
0.268, -6.046e-8
0.269, -6.026e-8
0.270, -6.010e-8
0.271, -6.009e-8
0.272, -5.995e-8
0.273, -5.975e-8
0.274, -5.973e-8
0.275, -5.965e-8
0.276, -5.947e-8
0.277, -5.935e-8
0.278, -5.934e-8
0.279, -5.920e-8
0.280, -5.903e-8
0.281, -5.903e-8
0.282, -5.895e-8
0.283, -5.873e-8
0.284, -5.872e-8
0.285, -5.866e-8
0.286, -5.847e-8
0.287, -5.841e-8
0.288, -5.840e-8
0.289, -5.824e-8
0.290, -5.813e-8
0.291, -5.811e-8
0.292, -5.804e-8
0.293, -5.785e-8
0.294, -5.783e-8
0.295, -5.783e-8
0.296, -5.762e-8
0.297, -5.755e-8
0.298, -5.759e-8
0.299, -5.742e-8
0.300, -5.415e-8
0.299, -5.161e-8
0.298, -5.107e-8
0.297, -5.056e-8
0.296, -5.034e-8
0.295, -5.009e-8
0.294, -4.974e-8
0.293, -4.952e-8
0.292, -4.937e-8
0.291, -4.912e-8
0.290, -4.887e-8
0.289, -4.875e-8
0.288, -4.859e-8
0.287, -4.829e-8
0.286, -4.821e-8
0.285, -4.811e-8
0.284, -4.781e-8
0.283, -4.769e-8
0.282, -4.762e-8
0.281, -4.739e-8
0.280, -4.724e-8
0.279, -4.715e-8
0.278, -4.704e-8
0.277, -4.679e-8
0.276, -4.671e-8
0.275, -4.665e-8
0.274, -4.642e-8
0.273, -4.628e-8
0.272, -4.627e-8
0.271, -4.606e-8
0.270, -4.591e-8
0.269, -4.587e-8
0.268, -4.575e-8
0.267, -4.555e-8
0.266, -4.550e-8
0.265, -4.541e-8
0.264, -4.523e-8
0.263, -4.509e-8
0.262, -4.512e-8
0.261, -4.491e-8
0.260, -4.477e-8
0.259, -4.476e-8
0.258, -4.464e-8
0.257, -4.442e-8
0.256, -4.440e-8
0.255, -4.434e-8
0.254, -4.414e-8
0.253, -4.405e-8
0.252, -4.403e-8
0.251, -4.387e-8
0.250, -4.373e-8
0.249, -4.370e-8
0.248, -4.361e-8
0.247, -4.339e-8
0.246, -4.338e-8
0.245, -4.332e-8
0.244, -4.310e-8
0.243, -4.303e-8
0.242, -4.302e-8
0.241, -4.283e-8
0.240, -4.271e-8
0.239, -4.267e-8
0.238, -4.259e-8
0.237, -4.237e-8
0.236, -4.233e-8
0.235, -4.231e-8
0.234, -4.208e-8
0.233, -4.197e-8
0.232, -4.200e-8
0.231, -4.177e-8
0.230, -4.164e-8
0.229, -4.162e-8
0.228, -4.150e-8
0.227, -4.131e-8
0.226, -4.125e-8
0.225, -4.118e-8
0.224, -4.099e-8
0.223, -4.087e-8
0.222, -4.086e-8
0.221, -4.067e-8
0.220, -4.049e-8
0.219, -4.047e-8
0.218, -4.034e-8
0.217, -4.010e-8
0.216, -4.007e-8
0.215, -3.997e-8
0.214, -3.975e-8
0.213, -3.963e-8
0.212, -3.957e-8
0.211, -3.938e-8
0.210, -3.919e-8
0.209, -3.912e-8
0.208, -3.900e-8
0.207, -3.872e-8
0.206, -3.865e-8
0.205, -3.855e-8
0.204, -3.826e-8
0.203, -3.813e-8
0.202, -3.807e-8
0.201, -3.780e-8
0.200, -3.761e-8
0.199, -3.749e-8
0.198, -3.732e-8
0.197, -3.703e-8
0.196, -3.689e-8
0.195, -3.678e-8
0.194, -3.646e-8
0.193, -3.625e-8
0.192, -3.614e-8
0.191, -3.584e-8
0.190, -3.558e-8
0.189, -3.546e-8
0.188, -3.518e-8
0.187, -3.488e-8
0.186, -3.470e-8
0.185, -3.446e-8
0.184, -3.413e-8
0.183, -3.384e-8
0.182, -3.366e-8
0.181, -3.331e-8
0.180, -3.296e-8
0.179, -3.275e-8
0.178, -3.243e-8
0.177, -3.199e-8
0.176, -3.176e-8
0.175, -3.144e-8
0.174, -3.100e-8
0.173, -3.065e-8
0.172, -3.033e-8
0.171, -2.991e-8
0.170, -2.948e-8
0.169, -2.912e-8
0.168, -2.874e-8
0.167, -2.816e-8
0.166, -2.782e-8
0.165, -2.741e-8
0.164, -2.681e-8
0.163, -2.639e-8
0.162, -2.595e-8
0.161, -2.535e-8
0.160, -2.484e-8
0.159, -2.430e-8
0.158, -2.377e-8
0.157, -2.311e-8
0.156, -2.253e-8
0.155, -2.201e-8
0.154, -2.127e-8
0.153, -2.062e-8
0.152, -2.008e-8
0.151, -1.929e-8
0.150, -1.861e-8
0.149, -1.793e-8
0.148, -1.718e-8
0.147, -1.637e-8
0.146, -1.567e-8
0.145, -1.485e-8
0.144, -1.400e-8
0.143, -1.315e-8
0.142, -1.237e-8
0.141, -1.145e-8
0.140, -1.051e-8
0.139, -9.663e-9
0.138, -8.720e-9
0.137, -7.668e-9
0.136, -6.789e-9
0.135, -5.792e-9
0.134, -4.719e-9
0.133, -3.690e-9
0.132, -2.650e-9
0.131, -1.609e-9
0.130, -4.577e-10
0.129, 6.415e-10
0.128, 1.770e-9
0.127, 3.052e-9
0.126, 4.081e-9
0.125, 5.253e-9
0.124, 6.540e-9
0.123, 7.707e-9
0.122, 8.899e-9
0.121, 1.021e-8
0.120, 1.145e-8
0.119, 1.272e-8
0.118, 1.394e-8
0.117, 1.531e-8
0.116, 1.660e-8
0.115, 1.785e-8
0.114, 1.926e-8
0.113, 2.051e-8
0.112, 2.180e-8
0.111, 2.322e-8
0.110, 2.447e-8
0.109, 2.575e-8
0.108, 2.714e-8
0.107, 2.843e-8
0.106, 2.968e-8
0.105, 3.102e-8
0.104, 3.234e-8
0.103, 3.366e-8
0.102, 3.490e-8
0.101, 3.616e-8
0.100, 3.745e-8
0.099, 3.855e-8
0.098, 3.985e-8
0.097, 4.104e-8
0.096, 4.213e-8
0.095, 4.330e-8
0.094, 4.443e-8
0.093, 4.552e-8
0.092, 4.659e-8
0.091, 4.757e-8
0.090, 4.864e-8
0.089, 4.962e-8
0.088, 5.049e-8
0.087, 5.152e-8
0.086, 5.226e-8
0.085, 5.316e-8
0.084, 5.407e-8
0.083, 5.472e-8
0.082, 5.552e-8
0.081, 5.625e-8
0.080, 5.684e-8
0.079, 5.753e-8
0.078, 5.812e-8
0.077, 5.874e-8
0.076, 5.925e-8
0.075, 5.962e-8
0.074, 6.016e-8
0.073, 6.053e-8
0.072, 6.083e-8
0.071, 6.125e-8
0.070, 6.152e-8
0.069, 6.176e-8
0.068, 6.204e-8
0.067, 6.224e-8
0.066, 6.239e-8
0.065, 6.248e-8
0.064, 6.267e-8
0.063, 6.275e-8
0.062, 6.269e-8
0.061, 6.275e-8
0.060, 6.279e-8
0.059, 6.268e-8
0.058, 6.262e-8
0.057, 6.263e-8
0.056, 6.237e-8
0.055, 6.229e-8
0.054, 6.216e-8
0.053, 6.195e-8
0.052, 6.173e-8
0.051, 6.157e-8
0.050, 6.134e-8
0.049, 6.105e-8
0.048, 6.073e-8
0.047, 6.058e-8
0.046, 6.019e-8
0.045, 5.983e-8
0.044, 5.962e-8
0.043, 5.923e-8
0.042, 5.884e-8
0.041, 5.854e-8
0.040, 5.818e-8
0.039, 5.779e-8
0.038, 5.740e-8
0.037, 5.709e-8
0.036, 5.666e-8
0.035, 5.617e-8
0.034, 5.587e-8
0.033, 5.547e-8
0.032, 5.496e-8
0.031, 5.463e-8
0.030, 5.421e-8
0.029, 5.375e-8
0.028, 5.335e-8
0.027, 5.299e-8
0.026, 5.253e-8
0.025, 5.208e-8
0.024, 5.173e-8
0.023, 5.131e-8
0.022, 5.080e-8
0.021, 5.044e-8
0.020, 5.009e-8
0.019, 4.957e-8
0.018, 4.915e-8
0.017, 4.887e-8
0.016, 4.837e-8
0.015, 4.795e-8
0.014, 4.761e-8
0.013, 4.722e-8
0.012, 4.676e-8
0.011, 4.639e-8
0.010, 4.606e-8
0.009, 4.562e-8
0.008, 4.520e-8
0.007, 4.496e-8
0.006, 4.450e-8
0.005, 4.409e-8
0.004, 4.384e-8
0.003, 4.346e-8
0.002, 4.302e-8
0.001, 4.275e-8
0.000, 4.257e-8
-0.001, 4.207e-8
-0.002, 4.169e-8
-0.003, 4.146e-8
-0.004, 4.109e-8
-0.005, 4.068e-8
-0.006, 4.046e-8
-0.007, 4.016e-8
-0.008, 3.973e-8
-0.009, 3.951e-8
-0.010, 3.924e-8
-0.011, 3.886e-8
-0.012, 3.859e-8
-0.013, 3.839e-8
-0.014, 3.803e-8
-0.015, 3.772e-8
-0.016, 3.752e-8
-0.017, 3.726e-8
-0.018, 3.689e-8
-0.019, 3.670e-8
-0.020, 3.652e-8
-0.021, 3.615e-8
-0.022, 3.590e-8
-0.023, 3.579e-8
-0.024, 3.546e-8
-0.025, 3.517e-8
-0.026, 3.505e-8
-0.027, 3.480e-8
-0.028, 3.451e-8
-0.029, 3.432e-8
-0.030, 3.416e-8
-0.031, 3.389e-8
-0.032, 3.364e-8
-0.033, 3.356e-8
-0.034, 3.328e-8
-0.035, 3.302e-8
-0.036, 3.295e-8
-0.037, 3.274e-8
-0.038, 3.245e-8
-0.039, 3.234e-8
-0.040, 3.219e-8
-0.041, 3.194e-8
-0.042, 3.175e-8
-0.043, 3.168e-8
-0.044, 3.146e-8
-0.045, 3.121e-8
-0.046, 3.116e-8
-0.047, 3.100e-8
-0.048, 3.074e-8
-0.049, 3.067e-8
-0.050, 3.056e-8
-0.051, 3.033e-8
-0.052, 3.019e-8
-0.053, 3.013e-8
-0.054, 2.993e-8
-0.055, 2.975e-8
-0.056, 2.969e-8
-0.057, 2.958e-8
-0.058, 2.934e-8
-0.059, 2.929e-8
-0.060, 2.922e-8
-0.061, 2.899e-8
-0.062, 2.887e-8
-0.063, 2.889e-8
-0.064, 2.868e-8
-0.065, 2.853e-8
-0.066, 2.850e-8
-0.067, 2.840e-8
-0.068, 2.820e-8
-0.069, 2.815e-8
-0.070, 2.811e-8
-0.071, 2.794e-8
-0.072, 2.781e-8
-0.073, 2.786e-8
-0.074, 2.768e-8
-0.075, 2.753e-8
-0.076, 2.757e-8
-0.077, 2.748e-8
-0.078, 2.728e-8
-0.079, 2.728e-8
-0.080, 2.723e-8
-0.081, 2.709e-8
-0.082, 2.699e-8
-0.083, 2.702e-8
-0.084, 2.690e-8
-0.085, 2.676e-8
-0.086, 2.679e-8
-0.087, 2.674e-8
-0.088, 2.656e-8
-0.089, 2.658e-8
-0.090, 2.657e-8
-0.091, 2.641e-8
-0.092, 2.637e-8
-0.093, 2.641e-8
-0.094, 2.629e-8
-0.095, 2.620e-8
-0.096, 2.622e-8
-0.097, 2.620e-8
-0.098, 2.604e-8
-0.099, 2.606e-8
-0.100, 2.609e-8
-0.101, 2.594e-8
-0.102, 2.590e-8
-0.103, 2.599e-8
-0.104, 2.586e-8
-0.105, 2.579e-8
-0.106, 2.585e-8
-0.107, 2.581e-8
-0.108, 2.570e-8
-0.109, 2.571e-8
-0.110, 2.576e-8
-0.111, 2.565e-8
-0.112, 2.559e-8
-0.113, 2.571e-8
-0.114, 2.562e-8
-0.115, 2.553e-8
-0.116, 2.564e-8
-0.117, 2.559e-8
-0.118, 2.549e-8
-0.119, 2.556e-8
-0.120, 2.558e-8
-0.121, 2.551e-8
-0.122, 2.548e-8
-0.123, 2.558e-8
-0.124, 2.552e-8
-0.125, 2.544e-8
-0.126, 2.555e-8
-0.127, 2.557e-8
-0.128, 2.545e-8
-0.129, 2.554e-8
-0.130, 2.558e-8
-0.131, 2.550e-8
-0.132, 2.552e-8
-0.133, 2.561e-8
-0.134, 2.556e-8
-0.135, 2.553e-8
-0.136, 2.563e-8
-0.137, 2.567e-8
-0.138, 2.556e-8
-0.139, 2.565e-8
-0.140, 2.574e-8
-0.141, 2.567e-8
-0.142, 2.567e-8
-0.143, 2.583e-8
-0.144, 2.576e-8
-0.145, 2.574e-8
-0.146, 2.587e-8
-0.147, 2.590e-8
-0.148, 2.586e-8
-0.149, 2.592e-8
-0.150, 2.602e-8
-0.151, 2.599e-8
-0.152, 2.599e-8
-0.153, 2.617e-8
-0.154, 2.614e-8
-0.155, 2.610e-8
-0.156, 2.627e-8
-0.157, 2.629e-8
-0.158, 2.626e-8
-0.159, 2.637e-8
-0.160, 2.645e-8
-0.161, 2.645e-8
-0.162, 2.647e-8
-0.163, 2.664e-8
-0.164, 2.665e-8
-0.165, 2.662e-8
-0.166, 2.679e-8
-0.167, 2.686e-8
-0.168, 2.680e-8
-0.169, 2.695e-8
-0.170, 2.706e-8
-0.171, 2.704e-8
-0.172, 2.712e-8
-0.173, 2.727e-8
-0.174, 2.729e-8
-0.175, 2.732e-8
-0.176, 2.746e-8
-0.177, 2.756e-8
-0.178, 2.753e-8
-0.179, 2.768e-8
-0.180, 2.783e-8
-0.181, 2.781e-8
-0.182, 2.788e-8
-0.183, 2.809e-8
-0.184, 2.808e-8
-0.185, 2.813e-8
-0.186, 2.832e-8
-0.187, 2.839e-8
-0.188, 2.843e-8
-0.189, 2.856e-8
-0.190, 2.871e-8
-0.191, 2.875e-8
-0.192, 2.881e-8
-0.193, 2.904e-8
-0.194, 2.906e-8
-0.195, 2.911e-8
-0.196, 2.932e-8
-0.197, 2.942e-8
-0.198, 2.943e-8
-0.199, 2.962e-8
