May 25, 2023   22:13:12
Cyclic Voltammetry
File: c:/users/mapence2/desktop/data/2023_05_24\expt5\mix_6\cv_1.bin
Data Source:  Experiment
Instrument Model:  CHI760E
Header: CV
Note: 

Init E (V) = 0
High E (V) = 0.7
Low E (V) = 0
Final E (V) = 0
Init P/N = P
Scan Rate (V/s) = 0.005
Segment = 3
Sample Interval (V) = 0.001
Quiet Time (sec) = 2
Sensitivity (A/V) = 1e-9

Results:

Channel 1:
Segment 1:

Segment 2:

Segment 3:

Potential/V, Current/A

0.000, 1.643e-11
0.001, 1.342e-11
0.002, 1.158e-11
0.003, 1.020e-11
0.004, 8.899e-12
0.005, 7.801e-12
0.006, 6.980e-12
0.007, 6.227e-12
0.008, 5.625e-12
0.009, 5.016e-12
0.010, 4.603e-12
0.011, 4.284e-12
0.012, 3.918e-12
0.013, 3.595e-12
0.014, 3.406e-12
0.015, 3.039e-12
0.016, 2.724e-12
0.017, 2.595e-12
0.018, 2.301e-12
0.019, 2.120e-12
0.020, 1.920e-12
0.021, 1.796e-12
0.022, 1.637e-12
0.023, 1.478e-12
0.024, 1.346e-12
0.025, 1.278e-12
0.026, 1.081e-12
0.027, 9.805e-13
0.028, 1.003e-12
0.029, 9.656e-13
0.030, 8.931e-13
0.031, 8.010e-13
0.032, 6.891e-13
0.033, 6.183e-13
0.034, 6.781e-13
0.035, 6.293e-13
0.036, 5.623e-13
0.037, 4.820e-13
0.038, 4.135e-13
0.039, 4.064e-13
0.040, 3.489e-13
0.041, 2.875e-13
0.042, 2.056e-13
0.043, 1.961e-13
0.044, 1.441e-13
0.045, 1.512e-13
0.046, 1.520e-13
0.047, 1.047e-13
0.048, 1.418e-14
0.049, -2.599e-14
0.050, -5.514e-15
0.051, 3.780e-14
0.052, -1.000e-13
0.053, -1.819e-13
0.054, -2.371e-13
0.055, -1.922e-13
0.056, -2.182e-13
0.057, -2.961e-13
0.058, -2.505e-13
0.059, -3.733e-13
0.060, -3.993e-13
0.061, -4.875e-13
0.062, -6.120e-13
0.063, -5.190e-13
0.064, -5.104e-13
0.065, -4.812e-13
0.066, -6.687e-13
0.067, -7.474e-13
0.068, -6.899e-13
0.069, -6.529e-13
0.070, -6.884e-13
0.071, -7.537e-13
0.072, -7.482e-13
0.073, -7.734e-13
0.074, -7.671e-13
0.075, -8.600e-13
0.076, -9.002e-13
0.077, -9.183e-13
0.078, -1.011e-12
0.079, -1.031e-12
0.080, -1.083e-12
0.081, -1.153e-12
0.082, -1.208e-12
0.083, -1.296e-12
0.084, -1.245e-12
0.085, -1.246e-12
0.086, -1.276e-12
0.087, -1.272e-12
0.088, -1.329e-12
0.089, -1.614e-12
0.090, -1.555e-12
0.091, -1.593e-12
0.092, -1.593e-12
0.093, -1.641e-12
0.094, -1.656e-12
0.095, -1.679e-12
0.096, -1.730e-12
0.097, -1.820e-12
0.098, -1.778e-12
0.099, -1.823e-12
0.100, -1.855e-12
0.101, -1.918e-12
0.102, -1.962e-12
0.103, -1.995e-12
0.104, -2.092e-12
0.105, -2.171e-12
0.106, -2.252e-12
0.107, -2.286e-12
0.108, -2.349e-12
0.109, -2.315e-12
0.110, -2.341e-12
0.111, -2.374e-12
0.112, -2.464e-12
0.113, -2.598e-12
0.114, -2.720e-12
0.115, -2.685e-12
0.116, -2.720e-12
0.117, -2.787e-12
0.118, -2.857e-12
0.119, -2.911e-12
0.120, -2.995e-12
0.121, -3.034e-12
0.122, -3.103e-12
0.123, -3.172e-12
0.124, -3.317e-12
0.125, -3.352e-12
0.126, -3.357e-12
0.127, -3.368e-12
0.128, -3.471e-12
0.129, -3.577e-12
0.130, -3.700e-12
0.131, -3.723e-12
0.132, -3.833e-12
0.133, -3.931e-12
0.134, -3.978e-12
0.135, -4.080e-12
0.136, -4.200e-12
0.137, -4.206e-12
0.138, -4.260e-12
0.139, -4.384e-12
0.140, -4.516e-12
0.141, -4.503e-12
0.142, -4.559e-12
0.143, -4.651e-12
0.144, -4.735e-12
0.145, -4.893e-12
0.146, -4.963e-12
0.147, -5.068e-12
0.148, -5.077e-12
0.149, -5.241e-12
0.150, -5.387e-12
0.151, -5.387e-12
0.152, -5.415e-12
0.153, -5.553e-12
0.154, -5.619e-12
0.155, -5.743e-12
0.156, -5.855e-12
0.157, -5.960e-12
0.158, -6.062e-12
0.159, -6.238e-12
0.160, -6.342e-12
0.161, -6.453e-12
0.162, -6.576e-12
0.163, -6.657e-12
0.164, -6.721e-12
0.165, -6.906e-12
0.166, -7.059e-12
0.167, -7.104e-12
0.168, -7.224e-12
0.169, -7.350e-12
0.170, -7.447e-12
0.171, -7.617e-12
0.172, -7.710e-12
0.173, -7.811e-12
0.174, -8.019e-12
0.175, -8.159e-12
0.176, -8.224e-12
0.177, -8.374e-12
0.178, -8.440e-12
0.179, -8.600e-12
0.180, -8.782e-12
0.181, -8.910e-12
0.182, -9.023e-12
0.183, -9.197e-12
0.184, -9.341e-12
0.185, -9.568e-12
0.186, -9.681e-12
0.187, -9.784e-12
0.188, -9.942e-12
0.189, -1.010e-11
0.190, -1.028e-11
0.191, -1.044e-11
0.192, -1.058e-11
0.193, -1.069e-11
0.194, -1.088e-11
0.195, -1.117e-11
0.196, -1.134e-11
0.197, -1.150e-11
0.198, -1.164e-11
0.199, -1.174e-11
0.200, -1.187e-11
0.201, -1.211e-11
0.202, -1.231e-11
0.203, -1.255e-11
0.204, -1.283e-11
0.205, -1.303e-11
0.206, -1.316e-11
0.207, -1.333e-11
0.208, -1.346e-11
0.209, -1.367e-11
0.210, -1.382e-11
0.211, -1.412e-11
0.212, -1.429e-11
0.213, -1.450e-11
0.214, -1.464e-11
0.215, -1.484e-11
0.216, -1.510e-11
0.217, -1.530e-11
0.218, -1.550e-11
0.219, -1.572e-11
0.220, -1.592e-11
0.221, -1.615e-11
0.222, -1.637e-11
0.223, -1.655e-11
0.224, -1.679e-11
0.225, -1.705e-11
0.226, -1.730e-11
0.227, -1.757e-11
0.228, -1.786e-11
0.229, -1.814e-11
0.230, -1.847e-11
0.231, -1.874e-11
0.232, -1.894e-11
0.233, -1.923e-11
0.234, -1.956e-11
0.235, -1.987e-11
0.236, -2.013e-11
0.237, -2.038e-11
0.238, -2.070e-11
0.239, -2.105e-11
0.240, -2.143e-11
0.241, -2.175e-11
0.242, -2.208e-11
0.243, -2.229e-11
0.244, -2.261e-11
0.245, -2.293e-11
0.246, -2.331e-11
0.247, -2.367e-11
0.248, -2.398e-11
0.249, -2.421e-11
0.250, -2.452e-11
0.251, -2.489e-11
0.252, -2.524e-11
0.253, -2.556e-11
0.254, -2.590e-11
0.255, -2.627e-11
0.256, -2.657e-11
0.257, -2.688e-11
0.258, -2.722e-11
0.259, -2.761e-11
0.260, -2.801e-11
0.261, -2.826e-11
0.262, -2.874e-11
0.263, -2.907e-11
0.264, -2.941e-11
0.265, -2.978e-11
0.266, -3.018e-11
0.267, -3.059e-11
0.268, -3.101e-11
0.269, -3.139e-11
0.270, -3.181e-11
0.271, -3.227e-11
0.272, -3.271e-11
0.273, -3.319e-11
0.274, -3.366e-11
0.275, -3.411e-11
0.276, -3.457e-11
0.277, -3.505e-11
0.278, -3.557e-11
0.279, -3.621e-11
0.280, -3.681e-11
0.281, -3.736e-11
0.282, -3.786e-11
0.283, -3.836e-11
0.284, -3.897e-11
0.285, -3.965e-11
0.286, -4.018e-11
0.287, -4.075e-11
0.288, -4.132e-11
0.289, -4.189e-11
0.290, -4.245e-11
0.291, -4.297e-11
0.292, -4.356e-11
0.293, -4.420e-11
0.294, -4.497e-11
0.295, -4.570e-11
0.296, -4.635e-11
0.297, -4.695e-11
0.298, -4.761e-11
0.299, -4.826e-11
0.300, -4.887e-11
0.301, -4.959e-11
0.302, -5.030e-11
0.303, -5.099e-11
0.304, -5.177e-11
0.305, -5.241e-11
0.306, -5.310e-11
0.307, -5.381e-11
0.308, -5.457e-11
0.309, -5.519e-11
0.310, -5.602e-11
0.311, -5.671e-11
0.312, -5.744e-11
0.313, -5.821e-11
0.314, -5.893e-11
0.315, -5.973e-11
0.316, -6.046e-11
0.317, -6.113e-11
0.318, -6.194e-11
0.319, -6.289e-11
0.320, -6.378e-11
0.321, -6.455e-11
0.322, -6.533e-11
0.323, -6.616e-11
0.324, -6.698e-11
0.325, -6.786e-11
0.326, -6.872e-11
0.327, -6.954e-11
0.328, -7.040e-11
0.329, -7.126e-11
0.330, -7.213e-11
0.331, -7.299e-11
0.332, -7.386e-11
0.333, -7.474e-11
0.334, -7.561e-11
0.335, -7.644e-11
0.336, -7.735e-11
0.337, -7.826e-11
0.338, -7.913e-11
0.339, -8.003e-11
0.340, -8.090e-11
0.341, -8.182e-11
0.342, -8.278e-11
0.343, -8.369e-11
0.344, -8.465e-11
0.345, -8.559e-11
0.346, -8.649e-11
0.347, -8.749e-11
0.348, -8.841e-11
0.349, -8.933e-11
0.350, -9.033e-11
0.351, -9.132e-11
0.352, -9.232e-11
0.353, -9.331e-11
0.354, -9.430e-11
0.355, -9.530e-11
0.356, -9.639e-11
0.357, -9.740e-11
0.358, -9.828e-11
0.359, -9.928e-11
0.360, -1.002e-10
0.361, -1.012e-10
0.362, -1.022e-10
0.363, -1.032e-10
0.364, -1.042e-10
0.365, -1.052e-10
0.366, -1.062e-10
0.367, -1.070e-10
0.368, -1.079e-10
0.369, -1.089e-10
0.370, -1.098e-10
0.371, -1.107e-10
0.372, -1.116e-10
0.373, -1.127e-10
0.374, -1.136e-10
0.375, -1.145e-10
0.376, -1.155e-10
0.377, -1.164e-10
0.378, -1.173e-10
0.379, -1.181e-10
0.380, -1.189e-10
0.381, -1.198e-10
0.382, -1.208e-10
0.383, -1.216e-10
0.384, -1.225e-10
0.385, -1.235e-10
0.386, -1.244e-10
0.387, -1.253e-10
0.388, -1.262e-10
0.389, -1.271e-10
0.390, -1.279e-10
0.391, -1.287e-10
0.392, -1.295e-10
0.393, -1.303e-10
0.394, -1.311e-10
0.395, -1.319e-10
0.396, -1.327e-10
0.397, -1.335e-10
0.398, -1.343e-10
0.399, -1.353e-10
0.400, -1.361e-10
0.401, -1.368e-10
0.402, -1.376e-10
0.403, -1.383e-10
0.404, -1.391e-10
0.405, -1.398e-10
0.406, -1.405e-10
0.407, -1.412e-10
0.408, -1.420e-10
0.409, -1.428e-10
0.410, -1.437e-10
0.411, -1.444e-10
0.412, -1.451e-10
0.413, -1.459e-10
0.414, -1.466e-10
0.415, -1.475e-10
0.416, -1.483e-10
0.417, -1.491e-10
0.418, -1.498e-10
0.419, -1.505e-10
0.420, -1.513e-10
0.421, -1.521e-10
0.422, -1.528e-10
0.423, -1.535e-10
0.424, -1.542e-10
0.425, -1.549e-10
0.426, -1.556e-10
0.427, -1.563e-10
0.428, -1.570e-10
0.429, -1.577e-10
0.430, -1.582e-10
0.431, -1.588e-10
0.432, -1.594e-10
0.433, -1.599e-10
0.434, -1.604e-10
0.435, -1.609e-10
0.436, -1.615e-10
0.437, -1.619e-10
0.438, -1.625e-10
0.439, -1.630e-10
0.440, -1.635e-10
0.441, -1.641e-10
0.442, -1.647e-10
0.443, -1.652e-10
0.444, -1.656e-10
0.445, -1.662e-10
0.446, -1.667e-10
0.447, -1.672e-10
0.448, -1.677e-10
0.449, -1.682e-10
0.450, -1.686e-10
0.451, -1.692e-10
0.452, -1.697e-10
0.453, -1.702e-10
0.454, -1.706e-10
0.455, -1.711e-10
0.456, -1.717e-10
0.457, -1.722e-10
0.458, -1.726e-10
0.459, -1.731e-10
0.460, -1.737e-10
0.461, -1.744e-10
0.462, -1.748e-10
0.463, -1.752e-10
0.464, -1.758e-10
0.465, -1.764e-10
0.466, -1.767e-10
0.467, -1.770e-10
0.468, -1.773e-10
0.469, -1.777e-10
0.470, -1.780e-10
0.471, -1.784e-10
0.472, -1.788e-10
0.473, -1.792e-10
0.474, -1.795e-10
0.475, -1.799e-10
0.476, -1.802e-10
0.477, -1.805e-10
0.478, -1.809e-10
0.479, -1.811e-10
0.480, -1.815e-10
0.481, -1.817e-10
0.482, -1.821e-10
0.483, -1.826e-10
0.484, -1.830e-10
0.485, -1.834e-10
0.486, -1.837e-10
0.487, -1.841e-10
0.488, -1.846e-10
0.489, -1.848e-10
0.490, -1.850e-10
0.491, -1.852e-10
0.492, -1.856e-10
0.493, -1.859e-10
0.494, -1.862e-10
0.495, -1.865e-10
0.496, -1.869e-10
0.497, -1.872e-10
0.498, -1.875e-10
0.499, -1.878e-10
0.500, -1.881e-10
0.501, -1.885e-10
0.502, -1.890e-10
0.503, -1.894e-10
0.504, -1.898e-10
0.505, -1.903e-10
0.506, -1.908e-10
0.507, -1.914e-10
0.508, -1.920e-10
0.509, -1.927e-10
0.510, -1.937e-10
0.511, -1.947e-10
0.512, -1.956e-10
0.513, -1.964e-10
0.514, -1.968e-10
0.515, -1.973e-10
0.516, -1.976e-10
0.517, -1.978e-10
0.518, -1.979e-10
0.519, -1.980e-10
0.520, -1.983e-10
0.521, -1.985e-10
0.522, -1.989e-10
0.523, -1.993e-10
0.524, -1.996e-10
0.525, -2.000e-10
0.526, -2.002e-10
0.527, -2.004e-10
0.528, -2.004e-10
0.529, -2.007e-10
0.530, -2.009e-10
0.531, -2.011e-10
0.532, -2.015e-10
0.533, -2.017e-10
0.534, -2.018e-10
0.535, -2.020e-10
0.536, -2.023e-10
0.537, -2.025e-10
0.538, -2.027e-10
0.539, -2.029e-10
0.540, -2.030e-10
0.541, -2.032e-10
0.542, -2.033e-10
0.543, -2.035e-10
0.544, -2.039e-10
0.545, -2.042e-10
0.546, -2.046e-10
0.547, -2.048e-10
0.548, -2.049e-10
0.549, -2.050e-10
0.550, -2.050e-10
0.551, -2.052e-10
0.552, -2.054e-10
0.553, -2.060e-10
0.554, -2.065e-10
0.555, -2.069e-10
0.556, -2.072e-10
0.557, -2.075e-10
0.558, -2.077e-10
0.559, -2.077e-10
0.560, -2.076e-10
0.561, -2.079e-10
0.562, -2.081e-10
0.563, -2.083e-10
0.564, -2.084e-10
0.565, -2.087e-10
0.566, -2.091e-10
0.567, -2.093e-10
0.568, -2.095e-10
0.569, -2.098e-10
0.570, -2.100e-10
0.571, -2.102e-10
0.572, -2.106e-10
0.573, -2.107e-10
0.574, -2.109e-10
0.575, -2.111e-10
0.576, -2.114e-10
0.577, -2.119e-10
0.578, -2.122e-10
0.579, -2.125e-10
0.580, -2.127e-10
0.581, -2.130e-10
0.582, -2.133e-10
0.583, -2.136e-10
0.584, -2.138e-10
0.585, -2.140e-10
0.586, -2.141e-10
0.587, -2.142e-10
0.588, -2.143e-10
0.589, -2.143e-10
0.590, -2.143e-10
0.591, -2.146e-10
0.592, -2.148e-10
0.593, -2.149e-10
0.594, -2.150e-10
0.595, -2.150e-10
0.596, -2.152e-10
0.597, -2.153e-10
0.598, -2.154e-10
0.599, -2.156e-10
0.600, -2.156e-10
0.601, -2.156e-10
0.602, -2.158e-10
0.603, -2.160e-10
0.604, -2.162e-10
0.605, -2.162e-10
0.606, -2.165e-10
0.607, -2.167e-10
0.608, -2.169e-10
0.609, -2.172e-10
0.610, -2.175e-10
0.611, -2.178e-10
0.612, -2.181e-10
0.613, -2.183e-10
0.614, -2.187e-10
0.615, -2.190e-10
0.616, -2.195e-10
0.617, -2.199e-10
0.618, -2.202e-10
0.619, -2.206e-10
0.620, -2.209e-10
0.621, -2.211e-10
0.622, -2.213e-10
0.623, -2.216e-10
0.624, -2.218e-10
0.625, -2.221e-10
0.626, -2.223e-10
0.627, -2.224e-10
0.628, -2.227e-10
0.629, -2.230e-10
0.630, -2.231e-10
0.631, -2.233e-10
0.632, -2.238e-10
0.633, -2.242e-10
0.634, -2.246e-10
0.635, -2.249e-10
0.636, -2.253e-10
0.637, -2.256e-10
0.638, -2.260e-10
0.639, -2.265e-10
0.640, -2.268e-10
0.641, -2.271e-10
0.642, -2.275e-10
0.643, -2.278e-10
0.644, -2.281e-10
0.645, -2.284e-10
0.646, -2.289e-10
0.647, -2.292e-10
0.648, -2.294e-10
0.649, -2.296e-10
0.650, -2.297e-10
0.651, -2.299e-10
0.652, -2.300e-10
0.653, -2.302e-10
0.654, -2.305e-10
0.655, -2.307e-10
0.656, -2.311e-10
0.657, -2.314e-10
0.658, -2.318e-10
0.659, -2.322e-10
0.660, -2.327e-10
0.661, -2.332e-10
0.662, -2.336e-10
0.663, -2.340e-10
0.664, -2.345e-10
0.665, -2.350e-10
0.666, -2.355e-10
0.667, -2.360e-10
0.668, -2.364e-10
0.669, -2.369e-10
0.670, -2.373e-10
0.671, -2.378e-10
0.672, -2.380e-10
0.673, -2.382e-10
0.674, -2.384e-10
0.675, -2.385e-10
0.676, -2.388e-10
0.677, -2.391e-10
0.678, -2.392e-10
0.679, -2.392e-10
0.680, -2.393e-10
0.681, -2.395e-10
0.682, -2.398e-10
0.683, -2.404e-10
0.684, -2.413e-10
0.685, -2.421e-10
0.686, -2.428e-10
0.687, -2.434e-10
0.688, -2.437e-10
0.689, -2.442e-10
0.690, -2.448e-10
0.691, -2.454e-10
0.692, -2.463e-10
0.693, -2.469e-10
0.694, -2.475e-10
0.695, -2.479e-10
0.696, -2.485e-10
0.697, -2.488e-10
0.698, -2.492e-10
0.699, -2.496e-10
0.700, -2.495e-10
0.699, -2.480e-10
0.698, -2.469e-10
0.697, -2.461e-10
0.696, -2.453e-10
0.695, -2.446e-10
0.694, -2.438e-10
0.693, -2.431e-10
0.692, -2.424e-10
0.691, -2.417e-10
0.690, -2.410e-10
0.689, -2.406e-10
0.688, -2.404e-10
0.687, -2.401e-10
0.686, -2.400e-10
0.685, -2.398e-10
0.684, -2.396e-10
0.683, -2.394e-10
0.682, -2.390e-10
0.681, -2.385e-10
0.680, -2.379e-10
0.679, -2.373e-10
0.678, -2.366e-10
0.677, -2.357e-10
0.676, -2.347e-10
0.675, -2.338e-10
0.674, -2.328e-10
0.673, -2.320e-10
0.672, -2.313e-10
0.671, -2.306e-10
0.670, -2.301e-10
0.669, -2.295e-10
0.668, -2.289e-10
0.667, -2.285e-10
0.666, -2.279e-10
0.665, -2.272e-10
0.664, -2.265e-10
0.663, -2.259e-10
0.662, -2.254e-10
0.661, -2.248e-10
0.660, -2.244e-10
0.659, -2.241e-10
0.658, -2.237e-10
0.657, -2.233e-10
0.656, -2.229e-10
0.655, -2.225e-10
0.654, -2.221e-10
0.653, -2.217e-10
0.652, -2.214e-10
0.651, -2.211e-10
0.650, -2.206e-10
0.649, -2.203e-10
0.648, -2.200e-10
0.647, -2.195e-10
0.646, -2.190e-10
0.645, -2.185e-10
0.644, -2.179e-10
0.643, -2.172e-10
0.642, -2.167e-10
0.641, -2.161e-10
0.640, -2.157e-10
0.639, -2.154e-10
0.638, -2.151e-10
0.637, -2.147e-10
0.636, -2.144e-10
0.635, -2.140e-10
0.634, -2.137e-10
0.633, -2.133e-10
0.632, -2.129e-10
0.631, -2.124e-10
0.630, -2.120e-10
0.629, -2.116e-10
0.628, -2.113e-10
0.627, -2.111e-10
0.626, -2.110e-10
0.625, -2.110e-10
0.624, -2.113e-10
0.623, -2.116e-10
0.622, -2.118e-10
0.621, -2.118e-10
0.620, -2.117e-10
0.619, -2.114e-10
0.618, -2.110e-10
0.617, -2.107e-10
0.616, -2.104e-10
0.615, -2.100e-10
0.614, -2.095e-10
0.613, -2.089e-10
0.612, -2.085e-10
0.611, -2.080e-10
0.610, -2.075e-10
0.609, -2.070e-10
0.608, -2.063e-10
0.607, -2.055e-10
0.606, -2.048e-10
0.605, -2.042e-10
0.604, -2.035e-10
0.603, -2.028e-10
0.602, -2.022e-10
0.601, -2.015e-10
0.600, -2.009e-10
0.599, -2.003e-10
0.598, -1.998e-10
0.597, -1.993e-10
0.596, -1.987e-10
0.595, -1.983e-10
0.594, -1.978e-10
0.593, -1.976e-10
0.592, -1.973e-10
0.591, -1.970e-10
0.590, -1.967e-10
0.589, -1.961e-10
0.588, -1.954e-10
0.587, -1.947e-10
0.586, -1.940e-10
0.585, -1.934e-10
0.584, -1.929e-10
0.583, -1.924e-10
0.582, -1.920e-10
0.581, -1.915e-10
0.580, -1.910e-10
0.579, -1.907e-10
0.578, -1.900e-10
0.577, -1.894e-10
0.576, -1.888e-10
0.575, -1.881e-10
0.574, -1.874e-10
0.573, -1.867e-10
0.572, -1.860e-10
0.571, -1.853e-10
0.570, -1.846e-10
0.569, -1.841e-10
0.568, -1.837e-10
0.567, -1.832e-10
0.566, -1.826e-10
0.565, -1.820e-10
0.564, -1.815e-10
0.563, -1.811e-10
0.562, -1.807e-10
0.561, -1.803e-10
0.560, -1.800e-10
0.559, -1.797e-10
0.558, -1.795e-10
0.557, -1.791e-10
0.556, -1.786e-10
0.555, -1.781e-10
0.554, -1.777e-10
0.553, -1.772e-10
0.552, -1.767e-10
0.551, -1.761e-10
0.550, -1.755e-10
0.549, -1.750e-10
0.548, -1.744e-10
0.547, -1.737e-10
0.546, -1.730e-10
0.545, -1.724e-10
0.544, -1.719e-10
0.543, -1.712e-10
0.542, -1.704e-10
0.541, -1.698e-10
0.540, -1.691e-10
0.539, -1.683e-10
0.538, -1.676e-10
0.537, -1.671e-10
0.536, -1.664e-10
0.535, -1.656e-10
0.534, -1.650e-10
0.533, -1.644e-10
0.532, -1.636e-10
0.531, -1.629e-10
0.530, -1.622e-10
0.529, -1.614e-10
0.528, -1.608e-10
0.527, -1.601e-10
0.526, -1.594e-10
0.525, -1.586e-10
0.524, -1.579e-10
0.523, -1.573e-10
0.522, -1.566e-10
0.521, -1.559e-10
0.520, -1.552e-10
0.519, -1.546e-10
0.518, -1.539e-10
0.517, -1.533e-10
0.516, -1.526e-10
0.515, -1.519e-10
0.514, -1.512e-10
0.513, -1.506e-10
0.512, -1.498e-10
0.511, -1.491e-10
0.510, -1.484e-10
0.509, -1.477e-10
0.508, -1.471e-10
0.507, -1.464e-10
0.506, -1.457e-10
0.505, -1.451e-10
0.504, -1.445e-10
0.503, -1.438e-10
0.502, -1.431e-10
0.501, -1.425e-10
0.500, -1.417e-10
0.499, -1.410e-10
0.498, -1.404e-10
0.497, -1.398e-10
0.496, -1.390e-10
0.495, -1.383e-10
0.494, -1.375e-10
0.493, -1.369e-10
0.492, -1.361e-10
0.491, -1.353e-10
0.490, -1.345e-10
0.489, -1.339e-10
0.488, -1.333e-10
0.487, -1.328e-10
0.486, -1.323e-10
0.485, -1.317e-10
0.484, -1.310e-10
0.483, -1.303e-10
0.482, -1.297e-10
0.481, -1.290e-10
0.480, -1.285e-10
0.479, -1.280e-10
0.478, -1.273e-10
0.477, -1.267e-10
0.476, -1.264e-10
0.475, -1.258e-10
0.474, -1.252e-10
0.473, -1.246e-10
0.472, -1.239e-10
0.471, -1.231e-10
0.470, -1.223e-10
0.469, -1.215e-10
0.468, -1.209e-10
0.467, -1.203e-10
0.466, -1.196e-10
0.465, -1.189e-10
0.464, -1.183e-10
0.463, -1.177e-10
0.462, -1.171e-10
0.461, -1.164e-10
0.460, -1.160e-10
0.459, -1.156e-10
0.458, -1.149e-10
0.457, -1.142e-10
0.456, -1.134e-10
0.455, -1.128e-10
0.454, -1.121e-10
0.453, -1.113e-10
0.452, -1.107e-10
0.451, -1.102e-10
0.450, -1.096e-10
0.449, -1.090e-10
0.448, -1.084e-10
0.447, -1.077e-10
0.446, -1.069e-10
0.445, -1.060e-10
0.444, -1.052e-10
0.443, -1.043e-10
0.442, -1.034e-10
0.441, -1.028e-10
0.440, -1.022e-10
0.439, -1.015e-10
0.438, -1.009e-10
0.437, -1.001e-10
0.436, -9.944e-11
0.435, -9.872e-11
0.434, -9.803e-11
0.433, -9.731e-11
0.432, -9.655e-11
0.431, -9.572e-11
0.430, -9.490e-11
0.429, -9.409e-11
0.428, -9.332e-11
0.427, -9.259e-11
0.426, -9.178e-11
0.425, -9.107e-11
0.424, -9.031e-11
0.423, -8.953e-11
0.422, -8.875e-11
0.421, -8.801e-11
0.420, -8.726e-11
0.419, -8.649e-11
0.418, -8.575e-11
0.417, -8.506e-11
0.416, -8.443e-11
0.415, -8.379e-11
0.414, -8.323e-11
0.413, -8.263e-11
0.412, -8.206e-11
0.411, -8.143e-11
0.410, -8.076e-11
0.409, -8.012e-11
0.408, -7.941e-11
0.407, -7.881e-11
0.406, -7.818e-11
0.405, -7.753e-11
0.404, -7.691e-11
0.403, -7.635e-11
0.402, -7.572e-11
0.401, -7.506e-11
0.400, -7.447e-11
0.399, -7.375e-11
0.398, -7.309e-11
0.397, -7.243e-11
0.396, -7.175e-11
0.395, -7.106e-11
0.394, -7.038e-11
0.393, -6.974e-11
0.392, -6.909e-11
0.391, -6.853e-11
0.390, -6.803e-11
0.389, -6.739e-11
0.388, -6.681e-11
0.387, -6.629e-11
0.386, -6.574e-11
0.385, -6.516e-11
0.384, -6.455e-11
0.383, -6.398e-11
0.382, -6.343e-11
0.381, -6.280e-11
0.380, -6.222e-11
0.379, -6.176e-11
0.378, -6.131e-11
0.377, -6.078e-11
0.376, -6.026e-11
0.375, -5.971e-11
0.374, -5.919e-11
0.373, -5.871e-11
0.372, -5.823e-11
0.371, -5.775e-11
0.370, -5.719e-11
0.369, -5.668e-11
0.368, -5.614e-11
0.367, -5.554e-11
0.366, -5.507e-11
0.365, -5.465e-11
0.364, -5.431e-11
0.363, -5.372e-11
0.362, -5.317e-11
0.361, -5.262e-11
0.360, -5.206e-11
0.359, -5.148e-11
0.358, -5.105e-11
0.357, -5.049e-11
0.356, -5.000e-11
0.355, -4.964e-11
0.354, -4.911e-11
0.353, -4.872e-11
0.352, -4.825e-11
0.351, -4.780e-11
0.350, -4.732e-11
0.349, -4.685e-11
0.348, -4.635e-11
0.347, -4.583e-11
0.346, -4.536e-11
0.345, -4.484e-11
0.344, -4.436e-11
0.343, -4.385e-11
0.342, -4.343e-11
0.341, -4.294e-11
0.340, -4.234e-11
0.339, -4.185e-11
0.338, -4.134e-11
0.337, -4.085e-11
0.336, -4.033e-11
0.335, -3.979e-11
0.334, -3.939e-11
0.333, -3.892e-11
0.332, -3.845e-11
0.331, -3.809e-11
0.330, -3.773e-11
0.329, -3.735e-11
0.328, -3.695e-11
0.327, -3.650e-11
0.326, -3.598e-11
0.325, -3.547e-11
0.324, -3.513e-11
0.323, -3.481e-11
0.322, -3.437e-11
0.321, -3.411e-11
0.320, -3.370e-11
0.319, -3.322e-11
0.318, -3.283e-11
0.317, -3.234e-11
0.316, -3.193e-11
0.315, -3.157e-11
0.314, -3.125e-11
0.313, -3.083e-11
0.312, -3.043e-11
0.311, -3.005e-11
0.310, -2.968e-11
0.309, -2.924e-11
0.308, -2.890e-11
0.307, -2.857e-11
0.306, -2.821e-11
0.305, -2.786e-11
0.304, -2.748e-11
0.303, -2.706e-11
0.302, -2.671e-11
0.301, -2.630e-11
0.300, -2.589e-11
0.299, -2.558e-11
0.298, -2.527e-11
0.297, -2.490e-11
0.296, -2.453e-11
0.295, -2.412e-11
0.294, -2.384e-11
0.293, -2.352e-11
0.292, -2.314e-11
0.291, -2.281e-11
0.290, -2.245e-11
0.289, -2.215e-11
0.288, -2.186e-11
0.287, -2.155e-11
0.286, -2.121e-11
0.285, -2.092e-11
0.284, -2.062e-11
0.283, -2.029e-11
0.282, -1.989e-11
0.281, -1.962e-11
0.280, -1.944e-11
0.279, -1.916e-11
0.278, -1.883e-11
0.277, -1.857e-11
0.276, -1.828e-11
0.275, -1.801e-11
0.274, -1.767e-11
0.273, -1.739e-11
0.272, -1.710e-11
0.271, -1.683e-11
0.270, -1.657e-11
0.269, -1.628e-11
0.268, -1.602e-11
0.267, -1.575e-11
0.266, -1.546e-11
0.265, -1.521e-11
0.264, -1.496e-11
0.263, -1.467e-11
0.262, -1.438e-11
0.261, -1.406e-11
0.260, -1.377e-11
0.259, -1.353e-11
0.258, -1.332e-11
0.257, -1.302e-11
0.256, -1.277e-11
0.255, -1.256e-11
0.254, -1.227e-11
0.253, -1.210e-11
0.252, -1.186e-11
0.251, -1.159e-11
0.250, -1.133e-11
0.249, -1.118e-11
0.248, -1.098e-11
0.247, -1.079e-11
0.246, -1.054e-11
0.245, -1.031e-11
0.244, -1.014e-11
0.243, -9.976e-12
0.242, -9.748e-12
0.241, -9.535e-12
0.240, -9.322e-12
0.239, -9.175e-12
0.238, -9.038e-12
0.237, -8.798e-12
0.236, -8.558e-12
0.235, -8.367e-12
0.234, -8.155e-12
0.233, -7.941e-12
0.232, -7.759e-12
0.231, -7.612e-12
0.230, -7.384e-12
0.229, -7.195e-12
0.228, -7.043e-12
0.227, -6.865e-12
0.226, -6.691e-12
0.225, -6.522e-12
0.224, -6.387e-12
0.223, -6.257e-12
0.222, -6.111e-12
0.221, -5.915e-12
0.220, -5.741e-12
0.219, -5.600e-12
0.218, -5.490e-12
0.217, -5.403e-12
0.216, -5.249e-12
0.215, -5.028e-12
0.214, -4.923e-12
0.213, -4.859e-12
0.212, -4.711e-12
0.211, -4.590e-12
0.210, -4.392e-12
0.209, -4.321e-12
0.208, -4.206e-12
0.207, -4.036e-12
0.206, -3.905e-12
0.205, -3.820e-12
0.204, -3.684e-12
0.203, -3.581e-12
0.202, -3.450e-12
0.201, -3.291e-12
0.200, -3.153e-12
0.199, -3.060e-12
0.198, -2.927e-12
0.197, -2.819e-12
0.196, -2.709e-12
0.195, -2.597e-12
0.194, -2.419e-12
0.193, -2.329e-12
0.192, -2.251e-12
0.191, -2.208e-12
0.190, -2.070e-12
0.189, -1.940e-12
0.188, -1.948e-12
0.187, -1.809e-12
0.186, -1.679e-12
0.185, -1.578e-12
0.184, -1.405e-12
0.183, -1.331e-12
0.182, -1.188e-12
0.181, -1.077e-12
0.180, -1.001e-12
0.179, -9.183e-13
0.178, -8.238e-13
0.177, -7.781e-13
0.176, -6.931e-13
0.175, -6.411e-13
0.174, -5.426e-13
0.173, -4.214e-13
0.172, -3.505e-13
0.171, -2.741e-13
0.170, -1.528e-13
0.169, -5.907e-14
0.168, 3.387e-14
0.167, 9.924e-14
0.166, 1.733e-13
0.165, 2.796e-13
0.164, 3.773e-13
0.163, 4.269e-13
0.162, 4.206e-13
0.161, 5.143e-13
0.160, 6.435e-13
0.159, 7.191e-13
0.158, 7.884e-13
0.157, 8.380e-13
0.156, 9.388e-13
0.155, 1.025e-12
0.154, 1.093e-12
0.153, 1.119e-12
0.152, 1.190e-12
0.151, 1.270e-12
0.150, 1.283e-12
0.149, 1.351e-12
0.148, 1.458e-12
0.147, 1.526e-12
0.146, 1.592e-12
0.145, 1.643e-12
0.144, 1.685e-12
0.143, 1.727e-12
0.142, 1.812e-12
0.141, 1.795e-12
0.140, 1.843e-12
0.139, 1.946e-12
0.138, 2.092e-12
0.137, 2.176e-12
0.136, 2.211e-12
0.135, 2.219e-12
0.134, 2.249e-12
0.133, 2.269e-12
0.132, 2.334e-12
0.131, 2.393e-12
0.130, 2.422e-12
0.129, 2.477e-12
0.128, 2.554e-12
0.127, 2.625e-12
0.126, 2.600e-12
0.125, 2.677e-12
0.124, 2.703e-12
0.123, 2.804e-12
0.122, 2.876e-12
0.121, 2.927e-12
0.120, 2.957e-12
0.119, 3.024e-12
0.118, 3.085e-12
0.117, 3.111e-12
0.116, 3.188e-12
0.115, 3.171e-12
0.114, 3.171e-12
0.113, 3.245e-12
0.112, 3.299e-12
0.111, 3.343e-12
0.110, 3.412e-12
0.109, 3.465e-12
0.108, 3.488e-12
0.107, 3.517e-12
0.106, 3.567e-12
0.105, 3.568e-12
0.104, 3.646e-12
0.103, 3.571e-12
0.102, 3.519e-12
0.101, 3.571e-12
0.100, 3.706e-12
0.099, 3.682e-12
0.098, 3.699e-12
0.097, 3.791e-12
0.096, 3.849e-12
0.095, 3.858e-12
0.094, 3.858e-12
0.093, 3.885e-12
0.092, 3.938e-12
0.091, 3.917e-12
0.090, 3.992e-12
0.089, 4.043e-12
0.088, 4.081e-12
0.087, 4.110e-12
0.086, 4.132e-12
0.085, 4.158e-12
0.084, 4.151e-12
0.083, 4.102e-12
0.082, 4.173e-12
0.081, 4.222e-12
0.080, 4.308e-12
0.079, 4.319e-12
0.078, 4.372e-12
0.077, 4.344e-12
0.076, 4.384e-12
0.075, 4.370e-12
0.074, 4.332e-12
0.073, 4.381e-12
0.072, 4.425e-12
0.071, 4.462e-12
0.070, 4.456e-12
0.069, 4.482e-12
0.068, 4.443e-12
0.067, 4.503e-12
0.066, 4.511e-12
0.065, 4.540e-12
0.064, 4.585e-12
0.063, 4.561e-12
0.062, 4.569e-12
0.061, 4.581e-12
0.060, 4.626e-12
0.059, 4.635e-12
0.058, 4.653e-12
0.057, 4.644e-12
0.056, 4.636e-12
0.055, 4.620e-12
0.054, 4.536e-12
0.053, 4.600e-12
0.052, 4.632e-12
0.051, 4.705e-12
0.050, 4.771e-12
0.049, 4.795e-12
0.048, 4.740e-12
0.047, 4.736e-12
0.046, 4.747e-12
0.045, 4.814e-12
0.044, 4.735e-12
0.043, 4.720e-12
0.042, 4.742e-12
0.041, 4.804e-12
0.040, 4.785e-12
0.039, 4.700e-12
0.038, 4.748e-12
0.037, 4.796e-12
0.036, 4.790e-12
0.035, 4.822e-12
0.034, 4.868e-12
0.033, 4.899e-12
0.032, 4.884e-12
0.031, 4.932e-12
0.030, 4.930e-12
0.029, 4.910e-12
0.028, 4.854e-12
0.027, 4.822e-12
0.026, 4.835e-12
0.025, 4.881e-12
0.024, 4.846e-12
0.023, 4.878e-12
0.022, 4.855e-12
0.021, 4.896e-12
0.020, 4.952e-12
0.019, 4.913e-12
0.018, 4.940e-12
0.017, 4.981e-12
0.016, 4.993e-12
0.015, 4.948e-12
0.014, 4.934e-12
0.013, 4.934e-12
0.012, 4.958e-12
0.011, 4.973e-12
0.010, 4.926e-12
0.009, 4.904e-12
0.008, 4.935e-12
0.007, 5.023e-12
0.006, 5.081e-12
0.005, 5.030e-12
0.004, 5.006e-12
0.003, 4.962e-12
0.002, 4.877e-12
0.001, 4.932e-12
