May 25, 2023   16:54:18
Amperometric i-t Curve
File: c:/users/mapence2/desktop/data/2023_05_24\expt4\mix_2\it_1.bin
Data Source:  Experiment
Instrument Model:  CHI760E
Header: CA
Note: 

Init E (V) = 0.7
Sample Interval (s) = 0.1
Run Time (sec) = 30
Quiet Time (sec) = 2
Sensitivity (A/V) = 1e-9

Results:

Channel 1:

Time/sec, Current/A

1.000e-1, -4.211e-10
2.000e-1, -4.162e-10
3.000e-1, -4.119e-10
4.000e-1, -4.079e-10
5.000e-1, -4.041e-10
6.000e-1, -4.006e-10
7.000e-1, -3.975e-10
8.000e-1, -3.944e-10
9.000e-1, -3.915e-10
1.000e+0, -3.888e-10
1.100e+0, -3.862e-10
1.200e+0, -3.839e-10
1.300e+0, -3.816e-10
1.400e+0, -3.795e-10
1.500e+0, -3.775e-10
1.600e+0, -3.756e-10
1.700e+0, -3.739e-10
1.800e+0, -3.721e-10
1.900e+0, -3.704e-10
2.000e+0, -3.686e-10
2.100e+0, -3.670e-10
2.200e+0, -3.655e-10
2.300e+0, -3.641e-10
2.400e+0, -3.627e-10
2.500e+0, -3.613e-10
2.600e+0, -3.599e-10
2.700e+0, -3.586e-10
2.800e+0, -3.574e-10
2.900e+0, -3.562e-10
3.000e+0, -3.550e-10
3.100e+0, -3.539e-10
3.200e+0, -3.528e-10
3.300e+0, -3.519e-10
3.400e+0, -3.507e-10
3.500e+0, -3.498e-10
3.600e+0, -3.490e-10
3.700e+0, -3.480e-10
3.800e+0, -3.470e-10
3.900e+0, -3.462e-10
4.000e+0, -3.452e-10
4.100e+0, -3.444e-10
4.200e+0, -3.435e-10
4.300e+0, -3.427e-10
4.400e+0, -3.419e-10
4.500e+0, -3.410e-10
4.600e+0, -3.402e-10
4.700e+0, -3.394e-10
4.800e+0, -3.387e-10
4.900e+0, -3.379e-10
5.000e+0, -3.373e-10
5.100e+0, -3.367e-10
5.200e+0, -3.360e-10
5.300e+0, -3.354e-10
5.400e+0, -3.349e-10
5.500e+0, -3.344e-10
5.600e+0, -3.338e-10
5.700e+0, -3.334e-10
5.800e+0, -3.327e-10
5.900e+0, -3.319e-10
6.000e+0, -3.313e-10
6.100e+0, -3.306e-10
6.200e+0, -3.300e-10
6.300e+0, -3.294e-10
6.400e+0, -3.288e-10
6.500e+0, -3.282e-10
6.600e+0, -3.279e-10
6.700e+0, -3.275e-10
6.800e+0, -3.271e-10
6.900e+0, -3.269e-10
7.000e+0, -3.267e-10
7.100e+0, -3.265e-10
7.200e+0, -3.263e-10
7.300e+0, -3.260e-10
7.400e+0, -3.258e-10
7.500e+0, -3.255e-10
7.600e+0, -3.254e-10
7.700e+0, -3.251e-10
7.800e+0, -3.249e-10
7.900e+0, -3.245e-10
8.000e+0, -3.243e-10
8.100e+0, -3.242e-10
8.200e+0, -3.240e-10
8.300e+0, -3.237e-10
8.400e+0, -3.235e-10
8.500e+0, -3.233e-10
8.600e+0, -3.231e-10
8.700e+0, -3.229e-10
8.800e+0, -3.229e-10
8.900e+0, -3.228e-10
9.000e+0, -3.226e-10
9.100e+0, -3.225e-10
9.200e+0, -3.224e-10
9.300e+0, -3.223e-10
9.400e+0, -3.221e-10
9.500e+0, -3.218e-10
9.600e+0, -3.216e-10
9.700e+0, -3.212e-10
9.800e+0, -3.209e-10
9.900e+0, -3.205e-10
1.000e+1, -3.201e-10
1.010e+1, -3.199e-10
1.020e+1, -3.197e-10
1.030e+1, -3.193e-10
1.040e+1, -3.190e-10
1.050e+1, -3.188e-10
1.060e+1, -3.185e-10
1.070e+1, -3.183e-10
1.080e+1, -3.180e-10
1.090e+1, -3.177e-10
1.100e+1, -3.173e-10
1.110e+1, -3.170e-10
1.120e+1, -3.167e-10
1.130e+1, -3.163e-10
1.140e+1, -3.160e-10
1.150e+1, -3.156e-10
1.160e+1, -3.153e-10
1.170e+1, -3.150e-10
1.180e+1, -3.145e-10
1.190e+1, -3.143e-10
1.200e+1, -3.140e-10
1.210e+1, -3.137e-10
1.220e+1, -3.135e-10
1.230e+1, -3.131e-10
1.240e+1, -3.128e-10
1.250e+1, -3.125e-10
1.260e+1, -3.122e-10
1.270e+1, -3.119e-10
1.280e+1, -3.116e-10
1.290e+1, -3.113e-10
1.300e+1, -3.109e-10
1.310e+1, -3.106e-10
1.320e+1, -3.103e-10
1.330e+1, -3.100e-10
1.340e+1, -3.097e-10
1.350e+1, -3.094e-10
1.360e+1, -3.090e-10
1.370e+1, -3.088e-10
1.380e+1, -3.084e-10
1.390e+1, -3.081e-10
1.400e+1, -3.077e-10
1.410e+1, -3.074e-10
1.420e+1, -3.071e-10
1.430e+1, -3.068e-10
1.440e+1, -3.066e-10
1.450e+1, -3.062e-10
1.460e+1, -3.060e-10
1.470e+1, -3.057e-10
1.480e+1, -3.054e-10
1.490e+1, -3.051e-10
1.500e+1, -3.048e-10
1.510e+1, -3.045e-10
1.520e+1, -3.041e-10
1.530e+1, -3.038e-10
1.540e+1, -3.036e-10
1.550e+1, -3.033e-10
1.560e+1, -3.030e-10
1.570e+1, -3.028e-10
1.580e+1, -3.025e-10
1.590e+1, -3.021e-10
1.600e+1, -3.020e-10
1.610e+1, -3.018e-10
1.620e+1, -3.017e-10
1.630e+1, -3.014e-10
1.640e+1, -3.012e-10
1.650e+1, -3.009e-10
1.660e+1, -3.007e-10
1.670e+1, -3.006e-10
1.680e+1, -3.003e-10
1.690e+1, -3.000e-10
1.700e+1, -2.998e-10
1.710e+1, -2.996e-10
1.720e+1, -2.995e-10
1.730e+1, -2.991e-10
1.740e+1, -2.989e-10
1.750e+1, -2.988e-10
1.760e+1, -2.986e-10
1.770e+1, -2.985e-10
1.780e+1, -2.983e-10
1.790e+1, -2.981e-10
1.800e+1, -2.980e-10
1.810e+1, -2.979e-10
1.820e+1, -2.978e-10
1.830e+1, -2.976e-10
1.840e+1, -2.976e-10
1.850e+1, -2.977e-10
1.860e+1, -2.976e-10
1.870e+1, -2.976e-10
1.880e+1, -2.976e-10
1.890e+1, -2.975e-10
1.900e+1, -2.974e-10
1.910e+1, -2.972e-10
1.920e+1, -2.971e-10
1.930e+1, -2.968e-10
1.940e+1, -2.965e-10
1.950e+1, -2.966e-10
1.960e+1, -2.965e-10
1.970e+1, -2.966e-10
1.980e+1, -2.966e-10
1.990e+1, -2.968e-10
2.000e+1, -2.970e-10
2.010e+1, -2.972e-10
2.020e+1, -2.973e-10
2.030e+1, -2.974e-10
2.040e+1, -2.973e-10
2.050e+1, -2.974e-10
2.060e+1, -2.975e-10
2.070e+1, -2.977e-10
2.080e+1, -2.979e-10
2.090e+1, -2.982e-10
2.100e+1, -2.984e-10
2.110e+1, -2.986e-10
2.120e+1, -2.989e-10
2.130e+1, -2.992e-10
2.140e+1, -2.994e-10
2.150e+1, -2.997e-10
2.160e+1, -2.998e-10
2.170e+1, -2.998e-10
2.180e+1, -2.997e-10
2.190e+1, -2.998e-10
2.200e+1, -2.999e-10
2.210e+1, -2.999e-10
2.220e+1, -2.999e-10
2.230e+1, -3.001e-10
2.240e+1, -3.001e-10
2.250e+1, -3.003e-10
2.260e+1, -3.006e-10
2.270e+1, -3.007e-10
2.280e+1, -3.008e-10
2.290e+1, -3.012e-10
2.300e+1, -3.015e-10
2.310e+1, -3.018e-10
2.320e+1, -3.021e-10
2.330e+1, -3.027e-10
2.340e+1, -3.033e-10
2.350e+1, -3.038e-10
2.360e+1, -3.043e-10
2.370e+1, -3.047e-10
2.380e+1, -3.051e-10
2.390e+1, -3.054e-10
2.400e+1, -3.058e-10
2.410e+1, -3.061e-10
2.420e+1, -3.063e-10
2.430e+1, -3.066e-10
2.440e+1, -3.071e-10
2.450e+1, -3.070e-10
2.460e+1, -3.067e-10
2.470e+1, -3.064e-10
2.480e+1, -3.062e-10
2.490e+1, -3.056e-10
2.500e+1, -3.052e-10
2.510e+1, -3.045e-10
2.520e+1, -3.041e-10
2.530e+1, -3.037e-10
2.540e+1, -3.033e-10
2.550e+1, -3.029e-10
2.560e+1, -3.028e-10
2.570e+1, -3.030e-10
2.580e+1, -3.030e-10
2.590e+1, -3.033e-10
2.600e+1, -3.036e-10
2.610e+1, -3.038e-10
2.620e+1, -3.042e-10
2.630e+1, -3.047e-10
2.640e+1, -3.051e-10
2.650e+1, -3.052e-10
2.660e+1, -3.053e-10
2.670e+1, -3.051e-10
2.680e+1, -3.048e-10
2.690e+1, -3.045e-10
2.700e+1, -3.040e-10
2.710e+1, -3.035e-10
2.720e+1, -3.031e-10
2.730e+1, -3.025e-10
2.740e+1, -3.020e-10
2.750e+1, -3.017e-10
2.760e+1, -3.014e-10
2.770e+1, -3.011e-10
2.780e+1, -3.008e-10
2.790e+1, -3.003e-10
2.800e+1, -2.999e-10
2.810e+1, -2.994e-10
2.820e+1, -2.989e-10
2.830e+1, -2.984e-10
2.840e+1, -2.978e-10
2.850e+1, -2.974e-10
2.860e+1, -2.969e-10
2.870e+1, -2.963e-10
2.880e+1, -2.958e-10
2.890e+1, -2.953e-10
2.900e+1, -2.948e-10
2.910e+1, -2.944e-10
2.920e+1, -2.940e-10
2.930e+1, -2.936e-10
2.940e+1, -2.931e-10
2.950e+1, -2.927e-10
2.960e+1, -2.923e-10
2.970e+1, -2.920e-10
2.980e+1, -2.916e-10
2.990e+1, -2.913e-10
3.000e+1, -2.909e-10
