Mar. 16, 2023   09:01:22
Cyclic Voltammetry
File: c:/users/oliverrz/desktop/electrolab/data/2023_03_16\fcmeoh_macros_250_um\electrode7_cv_150mvs_250_um.bin
Data Source:  Experiment
Instrument Model:  CHI760E
Header: CV
Note: 

Init E (V) = -0.2
High E (V) = 0.3
Low E (V) = -0.2
Final E (V) = -0.2
Init P/N = P
Scan Rate (V/s) = 0.15
Segment = 3
Sample Interval (V) = 0.001
Quiet Time (sec) = 2
Sensitivity (A/V) = 1e-7

Results:

Channel 1:
Segment 1:
Ep = 0.067V
ip = -2.096e-8A
Ah = -8.971e-9C

Segment 2:
Ep = 0.004V
ip = 2.015e-8A
Ah = 8.165e-9C

Segment 3:

Potential/V, Current/A

-0.200, 2.466e-9
-0.199, 2.367e-9
-0.198, 2.063e-9
-0.197, 2.207e-9
-0.196, 2.140e-9
-0.195, 2.003e-9
-0.194, 2.192e-9
-0.193, 1.936e-9
-0.192, 2.085e-9
-0.191, 2.016e-9
-0.190, 1.901e-9
-0.189, 2.088e-9
-0.188, 1.825e-9
-0.187, 2.001e-9
-0.186, 1.924e-9
-0.185, 1.798e-9
-0.184, 2.013e-9
-0.183, 1.749e-9
-0.182, 1.899e-9
-0.181, 1.854e-9
-0.180, 1.723e-9
-0.179, 1.920e-9
-0.178, 1.671e-9
-0.177, 1.827e-9
-0.176, 1.773e-9
-0.175, 1.659e-9
-0.174, 1.846e-9
-0.173, 1.602e-9
-0.172, 1.764e-9
-0.171, 1.698e-9
-0.170, 1.592e-9
-0.169, 1.780e-9
-0.168, 1.537e-9
-0.167, 1.696e-9
-0.166, 1.636e-9
-0.165, 1.522e-9
-0.164, 1.717e-9
-0.163, 1.471e-9
-0.162, 1.633e-9
-0.161, 1.565e-9
-0.160, 1.464e-9
-0.159, 1.662e-9
-0.158, 1.394e-9
-0.157, 1.583e-9
-0.156, 1.510e-9
-0.155, 1.398e-9
-0.154, 1.600e-9
-0.153, 1.333e-9
-0.152, 1.515e-9
-0.151, 1.455e-9
-0.150, 1.325e-9
-0.149, 1.546e-9
-0.148, 1.284e-9
-0.147, 1.443e-9
-0.146, 1.401e-9
-0.145, 1.276e-9
-0.144, 1.474e-9
-0.143, 1.237e-9
-0.142, 1.386e-9
-0.141, 1.329e-9
-0.140, 1.227e-9
-0.139, 1.416e-9
-0.138, 1.167e-9
-0.137, 1.335e-9
-0.136, 1.279e-9
-0.135, 1.159e-9
-0.134, 1.362e-9
-0.133, 1.107e-9
-0.132, 1.269e-9
-0.131, 1.222e-9
-0.130, 1.098e-9
-0.129, 1.293e-9
-0.128, 1.053e-9
-0.127, 1.210e-9
-0.126, 1.145e-9
-0.125, 1.046e-9
-0.124, 1.231e-9
-0.123, 9.852e-10
-0.122, 1.155e-9
-0.121, 1.084e-9
-0.120, 9.695e-10
-0.119, 1.179e-9
-0.118, 9.107e-10
-0.117, 1.084e-9
-0.116, 1.024e-9
-0.115, 8.972e-10
-0.114, 1.104e-9
-0.113, 8.493e-10
-0.112, 1.013e-9
-0.111, 9.502e-10
-0.110, 8.249e-10
-0.109, 1.037e-9
-0.108, 7.662e-10
-0.107, 9.353e-10
-0.106, 8.794e-10
-0.105, 7.414e-10
-0.104, 9.541e-10
-0.103, 6.875e-10
-0.102, 8.444e-10
-0.101, 7.948e-10
-0.100, 6.582e-10
-0.099, 8.654e-10
-0.098, 6.023e-10
-0.097, 7.467e-10
-0.096, 7.058e-10
-0.095, 5.686e-10
-0.094, 7.544e-10
-0.093, 5.141e-10
-0.092, 6.532e-10
-0.091, 5.818e-10
-0.090, 4.707e-10
-0.089, 6.486e-10
-0.088, 3.868e-10
-0.087, 5.543e-10
-0.086, 4.653e-10
-0.085, 3.418e-10
-0.084, 5.447e-10
-0.083, 2.629e-10
-0.082, 4.124e-10
-0.081, 3.464e-10
-0.080, 2.070e-10
-0.079, 3.939e-10
-0.078, 1.256e-10
-0.077, 2.615e-10
-0.076, 1.900e-10
-0.075, 6.350e-11
-0.074, 2.334e-10
-0.073, -3.975e-11
-0.072, 1.115e-10
-0.071, 2.448e-11
-0.070, -1.234e-10
-0.069, 6.498e-11
-0.068, -2.233e-10
-0.067, -8.580e-11
-0.066, -1.621e-10
-0.065, -3.307e-10
-0.064, -1.492e-10
-0.063, -4.326e-10
-0.062, -3.175e-10
-0.061, -3.973e-10
-0.060, -5.598e-10
-0.059, -3.995e-10
-0.058, -6.811e-10
-0.057, -5.715e-10
-0.056, -6.641e-10
-0.055, -8.347e-10
-0.054, -6.811e-10
-0.053, -9.766e-10
-0.052, -8.790e-10
-0.051, -9.794e-10
-0.050, -1.152e-9
-0.049, -1.024e-9
-0.048, -1.311e-9
-0.047, -1.220e-9
-0.046, -1.349e-9
-0.045, -1.524e-9
-0.044, -1.405e-9
-0.043, -1.719e-9
-0.042, -1.630e-9
-0.041, -1.785e-9
-0.040, -1.956e-9
-0.039, -1.854e-9
-0.038, -2.206e-9
-0.037, -2.113e-9
-0.036, -2.267e-9
-0.035, -2.485e-9
-0.034, -2.373e-9
-0.033, -2.744e-9
-0.032, -2.674e-9
-0.031, -2.837e-9
-0.030, -3.088e-9
-0.029, -2.994e-9
-0.028, -3.360e-9
-0.027, -3.344e-9
-0.026, -3.514e-9
-0.025, -3.770e-9
-0.024, -3.704e-9
-0.023, -4.088e-9
-0.022, -4.076e-9
-0.021, -4.280e-9
-0.020, -4.569e-9
-0.019, -4.511e-9
-0.018, -4.919e-9
-0.017, -4.948e-9
-0.016, -5.146e-9
-0.015, -5.463e-9
-0.014, -5.445e-9
-0.013, -5.873e-9
-0.012, -5.918e-9
-0.011, -6.157e-9
-0.010, -6.473e-9
-0.009, -6.497e-9
-0.008, -6.933e-9
-0.007, -6.993e-9
-0.006, -7.288e-9
-0.005, -7.615e-9
-0.004, -7.659e-9
-0.003, -8.119e-9
-0.002, -8.211e-9
-0.001, -8.521e-9
-0.000, -8.969e-9
0.001, -8.973e-9
0.002, -9.450e-9
0.003, -9.546e-9
0.004, -9.870e-9
0.005, -1.023e-8
0.006, -1.029e-8
0.007, -1.082e-8
0.008, -1.093e-8
0.009, -1.125e-8
0.010, -1.165e-8
0.011, -1.172e-8
0.012, -1.226e-8
0.013, -1.238e-8
0.014, -1.271e-8
0.015, -1.313e-8
0.016, -1.319e-8
0.017, -1.372e-8
0.018, -1.387e-8
0.019, -1.418e-8
0.020, -1.458e-8
0.021, -1.468e-8
0.022, -1.517e-8
0.023, -1.534e-8
0.024, -1.565e-8
0.025, -1.602e-8
0.026, -1.614e-8
0.027, -1.660e-8
0.028, -1.673e-8
0.029, -1.703e-8
0.030, -1.740e-8
0.031, -1.746e-8
0.032, -1.790e-8
0.033, -1.801e-8
0.034, -1.829e-8
0.035, -1.862e-8
0.036, -1.865e-8
0.037, -1.907e-8
0.038, -1.914e-8
0.039, -1.941e-8
0.040, -1.967e-8
0.041, -1.968e-8
0.042, -2.008e-8
0.043, -2.009e-8
0.044, -2.031e-8
0.045, -2.056e-8
0.046, -2.050e-8
0.047, -2.089e-8
0.048, -2.084e-8
0.049, -2.101e-8
0.050, -2.124e-8
0.051, -2.114e-8
0.052, -2.148e-8
0.053, -2.140e-8
0.054, -2.152e-8
0.055, -2.172e-8
0.056, -2.156e-8
0.057, -2.185e-8
0.058, -2.175e-8
0.059, -2.182e-8
0.060, -2.199e-8
0.061, -2.179e-8
0.062, -2.204e-8
0.063, -2.192e-8
0.064, -2.195e-8
0.065, -2.207e-8
0.066, -2.187e-8
0.067, -2.207e-8
0.068, -2.191e-8
0.069, -2.191e-8
0.070, -2.198e-8
0.071, -2.177e-8
0.072, -2.194e-8
0.073, -2.175e-8
0.074, -2.177e-8
0.075, -2.178e-8
0.076, -2.156e-8
0.077, -2.173e-8
0.078, -2.149e-8
0.079, -2.148e-8
0.080, -2.152e-8
0.081, -2.122e-8
0.082, -2.141e-8
0.083, -2.116e-8
0.084, -2.111e-8
0.085, -2.116e-8
0.086, -2.086e-8
0.087, -2.101e-8
0.088, -2.076e-8
0.089, -2.072e-8
0.090, -2.074e-8
0.091, -2.044e-8
0.092, -2.059e-8
0.093, -2.033e-8
0.094, -2.027e-8
0.095, -2.031e-8
0.096, -1.998e-8
0.097, -2.014e-8
0.098, -1.989e-8
0.099, -1.982e-8
0.100, -1.984e-8
0.101, -1.954e-8
0.102, -1.968e-8
0.103, -1.944e-8
0.104, -1.937e-8
0.105, -1.938e-8
0.106, -1.910e-8
0.107, -1.922e-8
0.108, -1.899e-8
0.109, -1.893e-8
0.110, -1.896e-8
0.111, -1.866e-8
0.112, -1.879e-8
0.113, -1.855e-8
0.114, -1.850e-8
0.115, -1.852e-8
0.116, -1.823e-8
0.117, -1.838e-8
0.118, -1.813e-8
0.119, -1.809e-8
0.120, -1.811e-8
0.121, -1.782e-8
0.122, -1.798e-8
0.123, -1.773e-8
0.124, -1.770e-8
0.125, -1.773e-8
0.126, -1.743e-8
0.127, -1.761e-8
0.128, -1.736e-8
0.129, -1.733e-8
0.130, -1.739e-8
0.131, -1.707e-8
0.132, -1.725e-8
0.133, -1.702e-8
0.134, -1.697e-8
0.135, -1.704e-8
0.136, -1.676e-8
0.137, -1.691e-8
0.138, -1.671e-8
0.139, -1.667e-8
0.140, -1.672e-8
0.141, -1.645e-8
0.142, -1.662e-8
0.143, -1.640e-8
0.144, -1.637e-8
0.145, -1.644e-8
0.146, -1.616e-8
0.147, -1.634e-8
0.148, -1.613e-8
0.149, -1.610e-8
0.150, -1.617e-8
0.151, -1.591e-8
0.152, -1.608e-8
0.153, -1.588e-8
0.154, -1.587e-8
0.155, -1.592e-8
0.156, -1.566e-8
0.157, -1.585e-8
0.158, -1.564e-8
0.159, -1.564e-8
0.160, -1.570e-8
0.161, -1.544e-8
0.162, -1.564e-8
0.163, -1.542e-8
0.164, -1.542e-8
0.165, -1.550e-8
0.166, -1.524e-8
0.167, -1.544e-8
0.168, -1.523e-8
0.169, -1.523e-8
0.170, -1.532e-8
0.171, -1.504e-8
0.172, -1.525e-8
0.173, -1.505e-8
0.174, -1.504e-8
0.175, -1.514e-8
0.176, -1.487e-8
0.177, -1.508e-8
0.178, -1.489e-8
0.179, -1.488e-8
0.180, -1.498e-8
0.181, -1.472e-8
0.182, -1.493e-8
0.183, -1.475e-8
0.184, -1.473e-8
0.185, -1.483e-8
0.186, -1.459e-8
0.187, -1.477e-8
0.188, -1.460e-8
0.189, -1.461e-8
0.190, -1.469e-8
0.191, -1.446e-8
0.192, -1.467e-8
0.193, -1.446e-8
0.194, -1.449e-8
0.195, -1.458e-8
0.196, -1.433e-8
0.197, -1.455e-8
0.198, -1.436e-8
0.199, -1.437e-8
0.200, -1.447e-8
0.201, -1.423e-8
0.202, -1.444e-8
0.203, -1.426e-8
0.204, -1.428e-8
0.205, -1.438e-8
0.206, -1.414e-8
0.207, -1.436e-8
0.208, -1.417e-8
0.209, -1.418e-8
0.210, -1.430e-8
0.211, -1.404e-8
0.212, -1.427e-8
0.213, -1.409e-8
0.214, -1.409e-8
0.215, -1.421e-8
0.216, -1.397e-8
0.217, -1.419e-8
0.218, -1.402e-8
0.219, -1.402e-8
0.220, -1.413e-8
0.221, -1.390e-8
0.222, -1.412e-8
0.223, -1.396e-8
0.224, -1.395e-8
0.225, -1.407e-8
0.226, -1.384e-8
0.227, -1.405e-8
0.228, -1.389e-8
0.229, -1.390e-8
0.230, -1.402e-8
0.231, -1.380e-8
0.232, -1.400e-8
0.233, -1.384e-8
0.234, -1.386e-8
0.235, -1.396e-8
0.236, -1.375e-8
0.237, -1.396e-8
0.238, -1.379e-8
0.239, -1.382e-8
0.240, -1.392e-8
0.241, -1.369e-8
0.242, -1.393e-8
0.243, -1.375e-8
0.244, -1.378e-8
0.245, -1.390e-8
0.246, -1.365e-8
0.247, -1.390e-8
0.248, -1.373e-8
0.249, -1.373e-8
0.250, -1.387e-8
0.251, -1.364e-8
0.252, -1.386e-8
0.253, -1.370e-8
0.254, -1.372e-8
0.255, -1.384e-8
0.256, -1.362e-8
0.257, -1.385e-8
0.258, -1.369e-8
0.259, -1.371e-8
0.260, -1.384e-8
0.261, -1.360e-8
0.262, -1.384e-8
0.263, -1.369e-8
0.264, -1.369e-8
0.265, -1.383e-8
0.266, -1.361e-8
0.267, -1.383e-8
0.268, -1.369e-8
0.269, -1.371e-8
0.270, -1.382e-8
0.271, -1.362e-8
0.272, -1.384e-8
0.273, -1.368e-8
0.274, -1.373e-8
0.275, -1.384e-8
0.276, -1.362e-8
0.277, -1.387e-8
0.278, -1.370e-8
0.279, -1.374e-8
0.280, -1.386e-8
0.281, -1.364e-8
0.282, -1.389e-8
0.283, -1.373e-8
0.284, -1.376e-8
0.285, -1.389e-8
0.286, -1.367e-8
0.287, -1.392e-8
0.288, -1.375e-8
0.289, -1.380e-8
0.290, -1.394e-8
0.291, -1.371e-8
0.292, -1.396e-8
0.293, -1.381e-8
0.294, -1.384e-8
0.295, -1.398e-8
0.296, -1.376e-8
0.297, -1.400e-8
0.298, -1.387e-8
0.299, -1.389e-8
0.300, -1.242e-8
0.299, -1.123e-8
0.298, -1.122e-8
0.297, -1.086e-8
0.296, -1.075e-8
0.295, -1.073e-8
0.294, -1.039e-8
0.293, -1.053e-8
0.292, -1.026e-8
0.291, -1.020e-8
0.290, -1.025e-8
0.289, -9.930e-9
0.288, -1.010e-8
0.287, -9.877e-9
0.286, -9.823e-9
0.285, -9.893e-9
0.284, -9.602e-9
0.283, -9.781e-9
0.282, -9.567e-9
0.281, -9.535e-9
0.280, -9.610e-9
0.279, -9.336e-9
0.278, -9.530e-9
0.277, -9.325e-9
0.276, -9.287e-9
0.275, -9.396e-9
0.274, -9.117e-9
0.273, -9.303e-9
0.272, -9.126e-9
0.271, -9.088e-9
0.270, -9.186e-9
0.269, -8.933e-9
0.268, -9.107e-9
0.267, -8.942e-9
0.266, -8.935e-9
0.265, -9.003e-9
0.264, -8.765e-9
0.263, -8.969e-9
0.262, -8.760e-9
0.261, -8.773e-9
0.260, -8.863e-9
0.259, -8.601e-9
0.258, -8.818e-9
0.257, -8.633e-9
0.256, -8.613e-9
0.255, -8.725e-9
0.254, -8.475e-9
0.253, -8.675e-9
0.252, -8.495e-9
0.251, -8.500e-9
0.250, -8.588e-9
0.249, -8.349e-9
0.248, -8.565e-9
0.247, -8.376e-9
0.246, -8.375e-9
0.245, -8.486e-9
0.244, -8.214e-9
0.243, -8.448e-9
0.242, -8.274e-9
0.241, -8.254e-9
0.240, -8.375e-9
0.239, -8.126e-9
0.238, -8.331e-9
0.237, -8.168e-9
0.236, -8.155e-9
0.235, -8.269e-9
0.234, -8.029e-9
0.233, -8.226e-9
0.232, -8.062e-9
0.231, -8.055e-9
0.230, -8.166e-9
0.229, -7.925e-9
0.228, -8.129e-9
0.227, -7.966e-9
0.226, -7.968e-9
0.225, -8.068e-9
0.224, -7.835e-9
0.223, -8.042e-9
0.222, -7.867e-9
0.221, -7.876e-9
0.220, -7.968e-9
0.219, -7.746e-9
0.218, -7.950e-9
0.217, -7.769e-9
0.216, -7.786e-9
0.215, -7.899e-9
0.214, -7.642e-9
0.213, -7.866e-9
0.212, -7.686e-9
0.211, -7.695e-9
0.210, -7.806e-9
0.209, -7.549e-9
0.208, -7.778e-9
0.207, -7.600e-9
0.206, -7.602e-9
0.205, -7.706e-9
0.204, -7.462e-9
0.203, -7.689e-9
0.202, -7.511e-9
0.201, -7.508e-9
0.200, -7.628e-9
0.199, -7.375e-9
0.198, -7.597e-9
0.197, -7.427e-9
0.196, -7.415e-9
0.195, -7.541e-9
0.194, -7.293e-9
0.193, -7.497e-9
0.192, -7.330e-9
0.191, -7.331e-9
0.190, -7.439e-9
0.189, -7.206e-9
0.188, -7.402e-9
0.187, -7.237e-9
0.186, -7.245e-9
0.185, -7.343e-9
0.184, -7.096e-9
0.183, -7.325e-9
0.182, -7.136e-9
0.181, -7.141e-9
0.180, -7.247e-9
0.179, -7.003e-9
0.178, -7.216e-9
0.177, -7.040e-9
0.176, -7.035e-9
0.175, -7.140e-9
0.174, -6.905e-9
0.173, -7.111e-9
0.172, -6.926e-9
0.171, -6.942e-9
0.170, -7.035e-9
0.169, -6.788e-9
0.168, -7.011e-9
0.167, -6.816e-9
0.166, -6.815e-9
0.165, -6.940e-9
0.164, -6.659e-9
0.163, -6.887e-9
0.162, -6.714e-9
0.161, -6.684e-9
0.160, -6.810e-9
0.159, -6.558e-9
0.158, -6.750e-9
0.157, -6.583e-9
0.156, -6.566e-9
0.155, -6.661e-9
0.154, -6.417e-9
0.153, -6.619e-9
0.152, -6.425e-9
0.151, -6.424e-9
0.150, -6.523e-9
0.149, -6.250e-9
0.148, -6.458e-9
0.147, -6.285e-9
0.146, -6.250e-9
0.145, -6.353e-9
0.144, -6.098e-9
0.143, -6.271e-9
0.142, -6.096e-9
0.141, -6.079e-9
0.140, -6.142e-9
0.139, -5.910e-9
0.138, -6.092e-9
0.137, -5.882e-9
0.136, -5.874e-9
0.135, -5.953e-9
0.134, -5.669e-9
0.133, -5.870e-9
0.132, -5.658e-9
0.131, -5.630e-9
0.130, -5.711e-9
0.129, -5.419e-9
0.128, -5.604e-9
0.127, -5.398e-9
0.126, -5.353e-9
0.125, -5.429e-9
0.124, -5.136e-9
0.123, -5.316e-9
0.122, -5.092e-9
0.121, -5.034e-9
0.120, -5.110e-9
0.119, -4.805e-9
0.118, -4.969e-9
0.117, -4.742e-9
0.116, -4.665e-9
0.115, -4.731e-9
0.114, -4.425e-9
0.113, -4.563e-9
0.112, -4.327e-9
0.111, -4.255e-9
0.110, -4.285e-9
0.109, -3.977e-9
0.108, -4.104e-9
0.107, -3.855e-9
0.106, -3.765e-9
0.105, -3.778e-9
0.104, -3.464e-9
0.103, -3.561e-9
0.102, -3.303e-9
0.101, -3.209e-9
0.100, -3.198e-9
0.099, -2.871e-9
0.098, -2.960e-9
0.097, -2.661e-9
0.096, -2.558e-9
0.095, -2.535e-9
0.094, -2.169e-9
0.093, -2.255e-9
0.092, -1.928e-9
0.091, -1.816e-9
0.090, -1.769e-9
0.089, -1.363e-9
0.088, -1.440e-9
0.087, -1.110e-9
0.086, -9.459e-10
0.085, -9.052e-10
0.084, -4.720e-10
0.083, -5.215e-10
0.082, -1.704e-10
0.081, 2.189e-11
0.080, 9.942e-11
0.079, 5.345e-10
0.078, 5.291e-10
0.077, 9.107e-10
0.076, 1.118e-9
0.075, 1.217e-9
0.074, 1.672e-9
0.073, 1.689e-9
0.072, 2.078e-9
0.071, 2.307e-9
0.070, 2.425e-9
0.069, 2.902e-9
0.068, 2.954e-9
0.067, 3.336e-9
0.066, 3.600e-9
0.065, 3.762e-9
0.064, 4.228e-9
0.063, 4.308e-9
0.062, 4.717e-9
0.061, 4.961e-9
0.060, 5.164e-9
0.059, 5.639e-9
0.058, 5.703e-9
0.057, 6.162e-9
0.056, 6.417e-9
0.055, 6.587e-9
0.054, 7.099e-9
0.053, 7.170e-9
0.052, 7.625e-9
0.051, 7.891e-9
0.050, 8.053e-9
0.049, 8.573e-9
0.048, 8.662e-9
0.047, 9.077e-9
0.046, 9.341e-9
0.045, 9.516e-9
0.044, 1.002e-8
0.043, 1.005e-8
0.042, 1.049e-8
0.041, 1.074e-8
0.040, 1.087e-8
0.039, 1.138e-8
0.038, 1.140e-8
0.037, 1.180e-8
0.036, 1.205e-8
0.035, 1.214e-8
0.034, 1.259e-8
0.033, 1.263e-8
0.032, 1.296e-8
0.031, 1.317e-8
0.030, 1.326e-8
0.029, 1.366e-8
0.028, 1.366e-8
0.027, 1.398e-8
0.026, 1.415e-8
0.025, 1.421e-8
0.024, 1.458e-8
0.023, 1.451e-8
0.022, 1.480e-8
0.021, 1.491e-8
0.020, 1.495e-8
0.019, 1.525e-8
0.018, 1.515e-8
0.017, 1.542e-8
0.016, 1.548e-8
0.015, 1.546e-8
0.014, 1.576e-8
0.013, 1.561e-8
0.012, 1.583e-8
0.011, 1.585e-8
0.010, 1.578e-8
0.009, 1.606e-8
0.008, 1.585e-8
0.007, 1.604e-8
0.006, 1.604e-8
0.005, 1.593e-8
0.004, 1.618e-8
0.003, 1.594e-8
0.002, 1.609e-8
0.001, 1.608e-8
0.000, 1.603e-8
-0.001, 1.617e-8
-0.002, 1.590e-8
-0.003, 1.601e-8
-0.004, 1.597e-8
-0.005, 1.578e-8
-0.006, 1.597e-8
-0.007, 1.570e-8
-0.008, 1.579e-8
-0.009, 1.573e-8
-0.010, 1.554e-8
-0.011, 1.569e-8
-0.012, 1.543e-8
-0.013, 1.548e-8
-0.014, 1.540e-8
-0.015, 1.522e-8
-0.016, 1.534e-8
-0.017, 1.505e-8
-0.018, 1.513e-8
-0.019, 1.502e-8
-0.020, 1.483e-8
-0.021, 1.495e-8
-0.022, 1.464e-8
-0.023, 1.472e-8
-0.024, 1.461e-8
-0.025, 1.440e-8
-0.026, 1.455e-8
-0.027, 1.422e-8
-0.028, 1.429e-8
-0.029, 1.418e-8
-0.030, 1.396e-8
-0.031, 1.410e-8
-0.032, 1.378e-8
-0.033, 1.384e-8
-0.034, 1.373e-8
-0.035, 1.352e-8
-0.036, 1.366e-8
-0.037, 1.333e-8
-0.038, 1.341e-8
-0.039, 1.331e-8
-0.040, 1.308e-8
-0.041, 1.323e-8
-0.042, 1.291e-8
-0.043, 1.296e-8
-0.044, 1.290e-8
-0.045, 1.265e-8
-0.046, 1.280e-8
-0.047, 1.251e-8
-0.048, 1.255e-8
-0.049, 1.247e-8
-0.050, 1.228e-8
-0.051, 1.240e-8
-0.052, 1.211e-8
-0.053, 1.218e-8
-0.054, 1.208e-8
-0.055, 1.189e-8
-0.056, 1.204e-8
-0.057, 1.172e-8
-0.058, 1.182e-8
-0.059, 1.173e-8
-0.060, 1.152e-8
-0.061, 1.167e-8
-0.062, 1.138e-8
-0.063, 1.147e-8
-0.064, 1.138e-8
-0.065, 1.119e-8
-0.066, 1.134e-8
-0.067, 1.105e-8
-0.068, 1.115e-8
-0.069, 1.106e-8
-0.070, 1.086e-8
-0.071, 1.105e-8
-0.072, 1.075e-8
-0.073, 1.083e-8
-0.074, 1.078e-8
-0.075, 1.058e-8
-0.076, 1.076e-8
-0.077, 1.048e-8
-0.078, 1.056e-8
-0.079, 1.050e-8
-0.080, 1.031e-8
-0.081, 1.049e-8
-0.082, 1.021e-8
-0.083, 1.030e-8
-0.084, 1.026e-8
-0.085, 1.006e-8
-0.086, 1.024e-8
-0.087, 9.973e-9
-0.088, 1.006e-8
-0.089, 1.002e-8
-0.090, 9.838e-9
-0.091, 1.001e-8
-0.092, 9.758e-9
-0.093, 9.848e-9
-0.094, 9.794e-9
-0.095, 9.635e-9
-0.096, 9.809e-9
-0.097, 9.542e-9
-0.098, 9.659e-9
-0.099, 9.596e-9
-0.100, 9.440e-9
-0.101, 9.621e-9
-0.102, 9.358e-9
-0.103, 9.479e-9
-0.104, 9.419e-9
-0.105, 9.250e-9
-0.106, 9.457e-9
-0.107, 9.183e-9
-0.108, 9.301e-9
-0.109, 9.252e-9
-0.110, 9.086e-9
-0.111, 9.286e-9
-0.112, 9.031e-9
-0.113, 9.142e-9
-0.114, 9.098e-9
-0.115, 8.940e-9
-0.116, 9.148e-9
-0.117, 8.870e-9
-0.118, 9.002e-9
-0.119, 8.967e-9
-0.120, 8.787e-9
-0.121, 9.011e-9
-0.122, 8.745e-9
-0.123, 8.852e-9
-0.124, 8.847e-9
-0.125, 8.663e-9
-0.126, 8.861e-9
-0.127, 8.640e-9
-0.128, 8.742e-9
-0.129, 8.703e-9
-0.130, 8.564e-9
-0.131, 8.753e-9
-0.132, 8.506e-9
-0.133, 8.634e-9
-0.134, 8.590e-9
-0.135, 8.436e-9
-0.136, 8.659e-9
-0.137, 8.387e-9
-0.138, 8.519e-9
-0.139, 8.501e-9
-0.140, 8.336e-9
-0.141, 8.548e-9
-0.142, 8.303e-9
-0.143, 8.429e-9
-0.144, 8.393e-9
-0.145, 8.251e-9
-0.146, 8.454e-9
-0.147, 8.200e-9
-0.148, 8.354e-9
-0.149, 8.304e-9
-0.150, 8.153e-9
-0.151, 8.386e-9
-0.152, 8.119e-9
-0.153, 8.261e-9
-0.154, 8.237e-9
-0.155, 8.078e-9
-0.156, 8.304e-9
-0.157, 8.049e-9
-0.158, 8.176e-9
-0.159, 8.170e-9
-0.160, 8.010e-9
-0.161, 8.224e-9
-0.162, 7.984e-9
-0.163, 8.120e-9
-0.164, 8.101e-9
-0.165, 7.936e-9
-0.166, 8.166e-9
-0.167, 7.926e-9
-0.168, 8.052e-9
-0.169, 8.036e-9
-0.170, 7.886e-9
-0.171, 8.097e-9
-0.172, 7.871e-9
-0.173, 7.991e-9
-0.174, 7.970e-9
-0.175, 7.837e-9
-0.176, 8.045e-9
-0.177, 7.807e-9
-0.178, 7.951e-9
-0.179, 7.929e-9
-0.180, 7.785e-9
-0.181, 8.004e-9
-0.182, 7.758e-9
-0.183, 7.899e-9
-0.184, 7.884e-9
-0.185, 7.734e-9
-0.186, 7.957e-9
-0.187, 7.718e-9
-0.188, 7.861e-9
-0.189, 7.836e-9
-0.190, 7.700e-9
-0.191, 7.924e-9
-0.192, 7.679e-9
-0.193, 7.830e-9
-0.194, 7.801e-9
-0.195, 7.660e-9
-0.196, 7.894e-9
-0.197, 7.645e-9
-0.198, 7.788e-9
-0.199, 7.782e-9
