Mar. 16, 2023   08:56:05
Cyclic Voltammetry
File: c:/users/oliverrz/desktop/electrolab/data/2023_03_16\fcmeoh_macros_250_um\electrode3_cv_150mvs_250_um.bin
Data Source:  Experiment
Instrument Model:  CHI760E
Header: CV
Note: 

Init E (V) = -0.2
High E (V) = 0.3
Low E (V) = -0.2
Final E (V) = -0.2
Init P/N = P
Scan Rate (V/s) = 0.15
Segment = 3
Sample Interval (V) = 0.001
Quiet Time (sec) = 2
Sensitivity (A/V) = 1e-7

Results:

Channel 1:
Segment 1:
Ep = 0.149V
ip = -1.900e-8A
Ah = -8.023e-9C

Segment 2:
Ep = 0.087V
ip = 1.629e-8A
Ah = 6.806e-9C

Segment 3:

Potential/V, Current/A

-0.200, 5.343e-9
-0.199, 4.698e-9
-0.198, 4.651e-9
-0.197, 4.585e-9
-0.196, 4.333e-9
-0.195, 4.449e-9
-0.194, 4.186e-9
-0.193, 4.183e-9
-0.192, 4.133e-9
-0.191, 3.906e-9
-0.190, 4.028e-9
-0.189, 3.775e-9
-0.188, 3.790e-9
-0.187, 3.743e-9
-0.186, 3.531e-9
-0.185, 3.657e-9
-0.184, 3.412e-9
-0.183, 3.436e-9
-0.182, 3.394e-9
-0.181, 3.185e-9
-0.180, 3.319e-9
-0.179, 3.071e-9
-0.178, 3.109e-9
-0.177, 3.069e-9
-0.176, 2.863e-9
-0.175, 3.009e-9
-0.174, 2.763e-9
-0.173, 2.799e-9
-0.172, 2.770e-9
-0.171, 2.562e-9
-0.170, 2.721e-9
-0.169, 2.473e-9
-0.168, 2.514e-9
-0.167, 2.492e-9
-0.166, 2.280e-9
-0.165, 2.444e-9
-0.164, 2.210e-9
-0.163, 2.242e-9
-0.162, 2.230e-9
-0.161, 2.022e-9
-0.160, 2.189e-9
-0.159, 1.954e-9
-0.158, 1.990e-9
-0.157, 1.986e-9
-0.156, 1.780e-9
-0.155, 1.946e-9
-0.154, 1.712e-9
-0.153, 1.750e-9
-0.152, 1.757e-9
-0.151, 1.554e-9
-0.150, 1.711e-9
-0.149, 1.495e-9
-0.148, 1.534e-9
-0.147, 1.523e-9
-0.146, 1.342e-9
-0.145, 1.493e-9
-0.144, 1.288e-9
-0.143, 1.333e-9
-0.142, 1.318e-9
-0.141, 1.129e-9
-0.140, 1.303e-9
-0.139, 1.080e-9
-0.138, 1.139e-9
-0.137, 1.127e-9
-0.136, 9.407e-10
-0.135, 1.121e-9
-0.134, 8.926e-10
-0.133, 9.435e-10
-0.132, 9.564e-10
-0.131, 7.597e-10
-0.130, 9.390e-10
-0.129, 7.130e-10
-0.128, 7.744e-10
-0.127, 7.726e-10
-0.126, 5.767e-10
-0.125, 7.739e-10
-0.124, 5.371e-10
-0.123, 6.131e-10
-0.122, 6.203e-10
-0.121, 4.023e-10
-0.120, 6.171e-10
-0.119, 3.970e-10
-0.118, 4.292e-10
-0.117, 4.707e-10
-0.116, 2.653e-10
-0.115, 4.434e-10
-0.114, 2.535e-10
-0.113, 2.909e-10
-0.112, 3.115e-10
-0.111, 1.333e-10
-0.110, 3.024e-10
-0.109, 9.514e-11
-0.108, 1.641e-10
-0.107, 1.733e-10
-0.106, -1.137e-11
-0.105, 1.778e-10
-0.104, -2.940e-11
-0.103, 1.450e-11
-0.102, 4.813e-11
-0.101, -1.406e-10
-0.100, 4.007e-11
-0.099, -1.474e-10
-0.098, -1.003e-10
-0.097, -9.082e-11
-0.096, -2.472e-10
-0.095, -7.759e-11
-0.094, -2.857e-10
-0.093, -2.082e-10
-0.092, -2.018e-10
-0.091, -3.880e-10
-0.090, -1.767e-10
-0.089, -4.007e-10
-0.088, -3.338e-10
-0.087, -2.999e-10
-0.086, -5.021e-10
-0.085, -2.973e-10
-0.084, -4.945e-10
-0.083, -4.509e-10
-0.082, -4.151e-10
-0.081, -6.020e-10
-0.080, -4.019e-10
-0.079, -6.109e-10
-0.078, -5.468e-10
-0.077, -5.242e-10
-0.076, -7.091e-10
-0.075, -5.029e-10
-0.074, -7.083e-10
-0.073, -6.607e-10
-0.072, -6.065e-10
-0.071, -8.049e-10
-0.070, -6.163e-10
-0.069, -7.971e-10
-0.068, -7.504e-10
-0.067, -7.201e-10
-0.066, -8.937e-10
-0.065, -7.102e-10
-0.064, -9.024e-10
-0.063, -8.373e-10
-0.062, -8.183e-10
-0.061, -9.854e-10
-0.060, -7.953e-10
-0.059, -9.965e-10
-0.058, -9.324e-10
-0.057, -9.103e-10
-0.056, -1.083e-9
-0.055, -8.925e-10
-0.054, -1.088e-9
-0.053, -1.023e-9
-0.052, -9.944e-10
-0.051, -1.177e-9
-0.050, -9.825e-10
-0.049, -1.177e-9
-0.048, -1.114e-9
-0.047, -1.073e-9
-0.046, -1.272e-9
-0.045, -1.065e-9
-0.044, -1.258e-9
-0.043, -1.211e-9
-0.042, -1.165e-9
-0.041, -1.358e-9
-0.040, -1.160e-9
-0.039, -1.346e-9
-0.038, -1.302e-9
-0.037, -1.254e-9
-0.036, -1.443e-9
-0.035, -1.250e-9
-0.034, -1.437e-9
-0.033, -1.393e-9
-0.032, -1.343e-9
-0.031, -1.534e-9
-0.030, -1.343e-9
-0.029, -1.526e-9
-0.028, -1.483e-9
-0.027, -1.439e-9
-0.026, -1.637e-9
-0.025, -1.445e-9
-0.024, -1.625e-9
-0.023, -1.576e-9
-0.022, -1.545e-9
-0.021, -1.718e-9
-0.020, -1.544e-9
-0.019, -1.730e-9
-0.018, -1.672e-9
-0.017, -1.656e-9
-0.016, -1.827e-9
-0.015, -1.639e-9
-0.014, -1.844e-9
-0.013, -1.785e-9
-0.012, -1.752e-9
-0.011, -1.956e-9
-0.010, -1.745e-9
-0.009, -1.957e-9
-0.008, -1.902e-9
-0.007, -1.868e-9
-0.006, -2.071e-9
-0.005, -1.882e-9
-0.004, -2.071e-9
-0.003, -2.031e-9
-0.002, -2.007e-9
-0.001, -2.197e-9
-0.000, -2.066e-9
0.001, -2.226e-9
0.002, -2.186e-9
0.003, -2.147e-9
0.004, -2.359e-9
0.005, -2.160e-9
0.006, -2.373e-9
0.007, -2.354e-9
0.008, -2.297e-9
0.009, -2.513e-9
0.010, -2.346e-9
0.011, -2.531e-9
0.012, -2.523e-9
0.013, -2.497e-9
0.014, -2.690e-9
0.015, -2.543e-9
0.016, -2.744e-9
0.017, -2.709e-9
0.018, -2.713e-9
0.019, -2.914e-9
0.020, -2.743e-9
0.021, -2.975e-9
0.022, -2.952e-9
0.023, -2.937e-9
0.024, -3.163e-9
0.025, -3.014e-9
0.026, -3.234e-9
0.027, -3.224e-9
0.028, -3.228e-9
0.029, -3.442e-9
0.030, -3.307e-9
0.031, -3.539e-9
0.032, -3.520e-9
0.033, -3.536e-9
0.034, -3.785e-9
0.035, -3.626e-9
0.036, -3.883e-9
0.037, -3.897e-9
0.038, -3.901e-9
0.039, -4.173e-9
0.040, -4.039e-9
0.041, -4.282e-9
0.042, -4.335e-9
0.043, -4.340e-9
0.044, -4.613e-9
0.045, -4.501e-9
0.046, -4.766e-9
0.047, -4.818e-9
0.048, -4.846e-9
0.049, -5.126e-9
0.050, -5.052e-9
0.051, -5.322e-9
0.052, -5.390e-9
0.053, -5.441e-9
0.054, -5.732e-9
0.055, -5.673e-9
0.056, -5.955e-9
0.057, -6.037e-9
0.058, -6.130e-9
0.059, -6.432e-9
0.060, -6.382e-9
0.061, -6.692e-9
0.062, -6.792e-9
0.063, -6.909e-9
0.064, -7.236e-9
0.065, -7.201e-9
0.066, -7.547e-9
0.067, -7.656e-9
0.068, -7.789e-9
0.069, -8.148e-9
0.070, -8.131e-9
0.071, -8.501e-9
0.072, -8.634e-9
0.073, -8.781e-9
0.074, -9.163e-9
0.075, -9.165e-9
0.076, -9.557e-9
0.077, -9.712e-9
0.078, -9.883e-9
0.079, -1.029e-8
0.080, -1.030e-8
0.081, -1.071e-8
0.082, -1.091e-8
0.083, -1.107e-8
0.084, -1.151e-8
0.085, -1.155e-8
0.086, -1.195e-8
0.087, -1.219e-8
0.088, -1.236e-8
0.089, -1.280e-8
0.090, -1.289e-8
0.091, -1.329e-8
0.092, -1.352e-8
0.093, -1.374e-8
0.094, -1.415e-8
0.095, -1.426e-8
0.096, -1.468e-8
0.097, -1.489e-8
0.098, -1.514e-8
0.099, -1.557e-8
0.100, -1.565e-8
0.101, -1.609e-8
0.102, -1.633e-8
0.103, -1.654e-8
0.104, -1.697e-8
0.105, -1.705e-8
0.106, -1.747e-8
0.107, -1.769e-8
0.108, -1.790e-8
0.109, -1.829e-8
0.110, -1.837e-8
0.111, -1.880e-8
0.112, -1.896e-8
0.113, -1.916e-8
0.114, -1.957e-8
0.115, -1.957e-8
0.116, -1.998e-8
0.117, -2.015e-8
0.118, -2.028e-8
0.119, -2.069e-8
0.120, -2.067e-8
0.121, -2.102e-8
0.122, -2.119e-8
0.123, -2.128e-8
0.124, -2.163e-8
0.125, -2.159e-8
0.126, -2.190e-8
0.127, -2.203e-8
0.128, -2.210e-8
0.129, -2.239e-8
0.130, -2.234e-8
0.131, -2.259e-8
0.132, -2.268e-8
0.133, -2.270e-8
0.134, -2.296e-8
0.135, -2.287e-8
0.136, -2.310e-8
0.137, -2.313e-8
0.138, -2.313e-8
0.139, -2.334e-8
0.140, -2.321e-8
0.141, -2.342e-8
0.142, -2.340e-8
0.143, -2.337e-8
0.144, -2.354e-8
0.145, -2.336e-8
0.146, -2.355e-8
0.147, -2.348e-8
0.148, -2.341e-8
0.149, -2.358e-8
0.150, -2.336e-8
0.151, -2.351e-8
0.152, -2.342e-8
0.153, -2.334e-8
0.154, -2.348e-8
0.155, -2.323e-8
0.156, -2.336e-8
0.157, -2.326e-8
0.158, -2.313e-8
0.159, -2.326e-8
0.160, -2.298e-8
0.161, -2.309e-8
0.162, -2.299e-8
0.163, -2.283e-8
0.164, -2.295e-8
0.165, -2.267e-8
0.166, -2.274e-8
0.167, -2.264e-8
0.168, -2.247e-8
0.169, -2.256e-8
0.170, -2.231e-8
0.171, -2.235e-8
0.172, -2.224e-8
0.173, -2.208e-8
0.174, -2.216e-8
0.175, -2.189e-8
0.176, -2.195e-8
0.177, -2.180e-8
0.178, -2.166e-8
0.179, -2.176e-8
0.180, -2.145e-8
0.181, -2.153e-8
0.182, -2.139e-8
0.183, -2.122e-8
0.184, -2.132e-8
0.185, -2.102e-8
0.186, -2.109e-8
0.187, -2.096e-8
0.188, -2.080e-8
0.189, -2.088e-8
0.190, -2.060e-8
0.191, -2.068e-8
0.192, -2.053e-8
0.193, -2.039e-8
0.194, -2.049e-8
0.195, -2.018e-8
0.196, -2.027e-8
0.197, -2.016e-8
0.198, -1.997e-8
0.199, -2.010e-8
0.200, -1.980e-8
0.201, -1.987e-8
0.202, -1.978e-8
0.203, -1.961e-8
0.204, -1.972e-8
0.205, -1.946e-8
0.206, -1.953e-8
0.207, -1.943e-8
0.208, -1.926e-8
0.209, -1.938e-8
0.210, -1.912e-8
0.211, -1.919e-8
0.212, -1.910e-8
0.213, -1.895e-8
0.214, -1.908e-8
0.215, -1.882e-8
0.216, -1.889e-8
0.217, -1.882e-8
0.218, -1.867e-8
0.219, -1.879e-8
0.220, -1.853e-8
0.221, -1.863e-8
0.222, -1.853e-8
0.223, -1.840e-8
0.224, -1.852e-8
0.225, -1.827e-8
0.226, -1.839e-8
0.227, -1.829e-8
0.228, -1.816e-8
0.229, -1.830e-8
0.230, -1.805e-8
0.231, -1.816e-8
0.232, -1.808e-8
0.233, -1.795e-8
0.234, -1.810e-8
0.235, -1.785e-8
0.236, -1.796e-8
0.237, -1.789e-8
0.238, -1.776e-8
0.239, -1.792e-8
0.240, -1.766e-8
0.241, -1.779e-8
0.242, -1.773e-8
0.243, -1.759e-8
0.244, -1.776e-8
0.245, -1.752e-8
0.246, -1.763e-8
0.247, -1.759e-8
0.248, -1.745e-8
0.249, -1.761e-8
0.250, -1.740e-8
0.251, -1.750e-8
0.252, -1.745e-8
0.253, -1.733e-8
0.254, -1.750e-8
0.255, -1.728e-8
0.256, -1.740e-8
0.257, -1.735e-8
0.258, -1.723e-8
0.259, -1.741e-8
0.260, -1.717e-8
0.261, -1.730e-8
0.262, -1.726e-8
0.263, -1.715e-8
0.264, -1.731e-8
0.265, -1.710e-8
0.266, -1.723e-8
0.267, -1.718e-8
0.268, -1.708e-8
0.269, -1.725e-8
0.270, -1.703e-8
0.271, -1.718e-8
0.272, -1.712e-8
0.273, -1.702e-8
0.274, -1.722e-8
0.275, -1.697e-8
0.276, -1.713e-8
0.277, -1.710e-8
0.278, -1.698e-8
0.279, -1.718e-8
0.280, -1.696e-8
0.281, -1.709e-8
0.282, -1.708e-8
0.283, -1.696e-8
0.284, -1.715e-8
0.285, -1.695e-8
0.286, -1.708e-8
0.287, -1.706e-8
0.288, -1.695e-8
0.289, -1.715e-8
0.290, -1.694e-8
0.291, -1.708e-8
0.292, -1.706e-8
0.293, -1.695e-8
0.294, -1.715e-8
0.295, -1.696e-8
0.296, -1.708e-8
0.297, -1.708e-8
0.298, -1.698e-8
0.299, -1.716e-8
0.300, -1.526e-8
0.299, -1.432e-8
0.298, -1.400e-8
0.297, -1.368e-8
0.296, -1.368e-8
0.295, -1.331e-8
0.294, -1.331e-8
0.293, -1.316e-8
0.292, -1.291e-8
0.291, -1.301e-8
0.290, -1.268e-8
0.289, -1.271e-8
0.288, -1.259e-8
0.287, -1.239e-8
0.286, -1.249e-8
0.285, -1.220e-8
0.284, -1.224e-8
0.283, -1.215e-8
0.282, -1.196e-8
0.281, -1.207e-8
0.280, -1.180e-8
0.279, -1.185e-8
0.278, -1.177e-8
0.277, -1.159e-8
0.276, -1.171e-8
0.275, -1.145e-8
0.274, -1.152e-8
0.273, -1.143e-8
0.272, -1.127e-8
0.271, -1.140e-8
0.270, -1.114e-8
0.269, -1.121e-8
0.268, -1.113e-8
0.267, -1.098e-8
0.266, -1.111e-8
0.265, -1.084e-8
0.264, -1.093e-8
0.263, -1.085e-8
0.262, -1.069e-8
0.261, -1.084e-8
0.260, -1.057e-8
0.259, -1.066e-8
0.258, -1.060e-8
0.257, -1.042e-8
0.256, -1.057e-8
0.255, -1.032e-8
0.254, -1.040e-8
0.253, -1.034e-8
0.252, -1.017e-8
0.251, -1.032e-8
0.250, -1.007e-8
0.249, -1.015e-8
0.248, -1.009e-8
0.247, -9.926e-9
0.246, -1.008e-8
0.245, -9.813e-9
0.244, -9.885e-9
0.243, -9.854e-9
0.242, -9.673e-9
0.241, -9.815e-9
0.240, -9.578e-9
0.239, -9.639e-9
0.238, -9.586e-9
0.237, -9.428e-9
0.236, -9.548e-9
0.235, -9.319e-9
0.234, -9.392e-9
0.233, -9.310e-9
0.232, -9.162e-9
0.231, -9.301e-9
0.230, -9.028e-9
0.229, -9.121e-9
0.228, -9.046e-9
0.227, -8.874e-9
0.226, -9.025e-9
0.225, -8.753e-9
0.224, -8.822e-9
0.223, -8.763e-9
0.222, -8.582e-9
0.221, -8.715e-9
0.220, -8.446e-9
0.219, -8.523e-9
0.218, -8.439e-9
0.217, -8.257e-9
0.216, -8.393e-9
0.215, -8.112e-9
0.214, -8.176e-9
0.213, -8.106e-9
0.212, -7.896e-9
0.211, -8.041e-9
0.210, -7.760e-9
0.209, -7.794e-9
0.208, -7.725e-9
0.207, -7.516e-9
0.206, -7.632e-9
0.205, -7.346e-9
0.204, -7.377e-9
0.203, -7.296e-9
0.202, -7.085e-9
0.201, -7.177e-9
0.200, -6.893e-9
0.199, -6.915e-9
0.198, -6.814e-9
0.197, -6.599e-9
0.196, -6.677e-9
0.195, -6.389e-9
0.194, -6.395e-9
0.193, -6.272e-9
0.192, -6.051e-9
0.191, -6.118e-9
0.190, -5.802e-9
0.189, -5.809e-9
0.188, -5.658e-9
0.187, -5.429e-9
0.186, -5.490e-9
0.185, -5.137e-9
0.184, -5.143e-9
0.183, -4.990e-9
0.182, -4.712e-9
0.181, -4.770e-9
0.180, -4.399e-9
0.179, -4.368e-9
0.178, -4.211e-9
0.177, -3.912e-9
0.176, -3.943e-9
0.175, -3.570e-9
0.174, -3.507e-9
0.173, -3.344e-9
0.172, -3.021e-9
0.171, -3.032e-9
0.170, -2.640e-9
0.169, -2.548e-9
0.168, -2.347e-9
0.167, -2.008e-9
0.166, -2.006e-9
0.165, -1.588e-9
0.164, -1.463e-9
0.163, -1.271e-9
0.162, -9.026e-10
0.161, -8.500e-10
0.160, -4.398e-10
0.159, -2.853e-10
0.158, -4.973e-11
0.157, 3.107e-10
0.156, 4.180e-10
0.155, 8.424e-10
0.154, 9.991e-10
0.153, 1.292e-9
0.152, 1.654e-9
0.151, 1.758e-9
0.150, 2.230e-9
0.149, 2.370e-9
0.148, 2.679e-9
0.147, 3.063e-9
0.146, 3.164e-9
0.145, 3.664e-9
0.144, 3.832e-9
0.143, 4.123e-9
0.142, 4.533e-9
0.141, 4.657e-9
0.140, 5.145e-9
0.139, 5.315e-9
0.138, 5.613e-9
0.137, 6.044e-9
0.136, 6.141e-9
0.135, 6.629e-9
0.134, 6.802e-9
0.133, 7.095e-9
0.132, 7.526e-9
0.131, 7.594e-9
0.130, 8.081e-9
0.129, 8.266e-9
0.128, 8.548e-9
0.127, 8.942e-9
0.126, 9.033e-9
0.125, 9.471e-9
0.124, 9.647e-9
0.123, 9.874e-9
0.122, 1.024e-8
0.121, 1.033e-8
0.120, 1.074e-8
0.119, 1.086e-8
0.118, 1.108e-8
0.117, 1.142e-8
0.116, 1.147e-8
0.115, 1.183e-8
0.114, 1.193e-8
0.113, 1.212e-8
0.112, 1.239e-8
0.111, 1.241e-8
0.110, 1.275e-8
0.109, 1.278e-8
0.108, 1.297e-8
0.107, 1.320e-8
0.106, 1.315e-8
0.105, 1.348e-8
0.104, 1.345e-8
0.103, 1.360e-8
0.102, 1.381e-8
0.101, 1.370e-8
0.100, 1.400e-8
0.099, 1.394e-8
0.098, 1.399e-8
0.097, 1.421e-8
0.096, 1.405e-8
0.095, 1.428e-8
0.094, 1.423e-8
0.093, 1.423e-8
0.092, 1.440e-8
0.091, 1.422e-8
0.090, 1.442e-8
0.089, 1.432e-8
0.088, 1.430e-8
0.087, 1.443e-8
0.086, 1.421e-8
0.085, 1.440e-8
0.084, 1.428e-8
0.083, 1.421e-8
0.082, 1.432e-8
0.081, 1.410e-8
0.080, 1.423e-8
0.079, 1.410e-8
0.078, 1.402e-8
0.077, 1.411e-8
0.076, 1.387e-8
0.075, 1.398e-8
0.074, 1.381e-8
0.073, 1.375e-8
0.072, 1.380e-8
0.071, 1.354e-8
0.070, 1.366e-8
0.069, 1.347e-8
0.068, 1.339e-8
0.067, 1.343e-8
0.066, 1.316e-8
0.065, 1.328e-8
0.064, 1.309e-8
0.063, 1.299e-8
0.062, 1.305e-8
0.061, 1.275e-8
0.060, 1.287e-8
0.059, 1.267e-8
0.058, 1.257e-8
0.057, 1.262e-8
0.056, 1.233e-8
0.055, 1.244e-8
0.054, 1.225e-8
0.053, 1.214e-8
0.052, 1.221e-8
0.051, 1.191e-8
0.050, 1.201e-8
0.049, 1.184e-8
0.048, 1.171e-8
0.047, 1.177e-8
0.046, 1.148e-8
0.045, 1.158e-8
0.044, 1.142e-8
0.043, 1.129e-8
0.042, 1.135e-8
0.041, 1.108e-8
0.040, 1.118e-8
0.039, 1.099e-8
0.038, 1.090e-8
0.037, 1.095e-8
0.036, 1.067e-8
0.035, 1.079e-8
0.034, 1.061e-8
0.033, 1.051e-8
0.032, 1.058e-8
0.031, 1.030e-8
0.030, 1.041e-8
0.029, 1.025e-8
0.028, 1.016e-8
0.027, 1.022e-8
0.026, 9.967e-9
0.025, 1.007e-8
0.024, 9.900e-9
0.023, 9.824e-9
0.022, 9.891e-9
0.021, 9.619e-9
0.020, 9.774e-9
0.019, 9.583e-9
0.018, 9.497e-9
0.017, 9.601e-9
0.016, 9.315e-9
0.015, 9.460e-9
0.014, 9.310e-9
0.013, 9.211e-9
0.012, 9.320e-9
0.011, 9.051e-9
0.010, 9.173e-9
0.009, 9.038e-9
0.008, 8.956e-9
0.007, 9.047e-9
0.006, 8.794e-9
0.005, 8.930e-9
0.004, 8.800e-9
0.003, 8.703e-9
0.002, 8.815e-9
0.001, 8.562e-9
0.000, 8.753e-9
-0.001, 8.576e-9
-0.002, 8.488e-9
-0.003, 8.598e-9
-0.004, 8.360e-9
-0.005, 8.491e-9
-0.006, 8.357e-9
-0.007, 8.296e-9
-0.008, 8.400e-9
-0.009, 8.154e-9
-0.010, 8.312e-9
-0.011, 8.178e-9
-0.012, 8.118e-9
-0.013, 8.231e-9
-0.014, 7.983e-9
-0.015, 8.146e-9
-0.016, 8.022e-9
-0.017, 7.949e-9
-0.018, 8.076e-9
-0.019, 7.833e-9
-0.020, 7.995e-9
-0.021, 7.877e-9
-0.022, 7.806e-9
-0.023, 7.937e-9
-0.024, 7.707e-9
-0.025, 7.869e-9
-0.026, 7.747e-9
-0.027, 7.692e-9
-0.028, 7.824e-9
-0.029, 7.577e-9
-0.030, 7.752e-9
-0.031, 7.646e-9
-0.032, 7.568e-9
-0.033, 7.721e-9
-0.034, 7.488e-9
-0.035, 7.642e-9
-0.036, 7.559e-9
-0.037, 7.483e-9
-0.038, 7.621e-9
-0.039, 7.414e-9
-0.040, 7.556e-9
-0.041, 7.463e-9
-0.042, 7.420e-9
-0.043, 7.545e-9
-0.044, 7.335e-9
-0.045, 7.497e-9
-0.046, 7.394e-9
-0.047, 7.346e-9
-0.048, 7.496e-9
-0.049, 7.268e-9
-0.050, 7.443e-9
-0.051, 7.357e-9
-0.052, 7.302e-9
-0.053, 7.442e-9
-0.054, 7.230e-9
-0.055, 7.410e-9
-0.056, 7.308e-9
-0.057, 7.266e-9
-0.058, 7.415e-9
-0.059, 7.194e-9
-0.060, 7.389e-9
-0.061, 7.282e-9
-0.062, 7.235e-9
-0.063, 7.402e-9
-0.064, 7.180e-9
-0.065, 7.363e-9
-0.066, 7.287e-9
-0.067, 7.227e-9
-0.068, 7.394e-9
-0.069, 7.180e-9
-0.070, 7.356e-9
-0.071, 7.286e-9
-0.072, 7.231e-9
-0.073, 7.391e-9
-0.074, 7.192e-9
-0.075, 7.368e-9
-0.076, 7.302e-9
-0.077, 7.253e-9
-0.078, 7.411e-9
-0.079, 7.221e-9
-0.080, 7.389e-9
-0.081, 7.329e-9
-0.082, 7.274e-9
-0.083, 7.437e-9
-0.084, 7.254e-9
-0.085, 7.424e-9
-0.086, 7.358e-9
-0.087, 7.330e-9
-0.088, 7.477e-9
-0.089, 7.293e-9
-0.090, 7.486e-9
-0.091, 7.401e-9
-0.092, 7.377e-9
-0.093, 7.540e-9
-0.094, 7.341e-9
-0.095, 7.546e-9
-0.096, 7.469e-9
-0.097, 7.433e-9
-0.098, 7.616e-9
-0.099, 7.409e-9
-0.100, 7.612e-9
-0.101, 7.544e-9
-0.102, 7.516e-9
-0.103, 7.690e-9
-0.104, 7.498e-9
-0.105, 7.694e-9
-0.106, 7.631e-9
-0.107, 7.595e-9
-0.108, 7.789e-9
-0.109, 7.574e-9
-0.110, 7.788e-9
-0.111, 7.734e-9
-0.112, 7.686e-9
-0.113, 7.887e-9
-0.114, 7.697e-9
-0.115, 7.882e-9
-0.116, 7.854e-9
-0.117, 7.799e-9
-0.118, 7.988e-9
-0.119, 7.822e-9
-0.120, 8.006e-9
-0.121, 7.953e-9
-0.122, 7.938e-9
-0.123, 8.114e-9
-0.124, 7.941e-9
-0.125, 8.145e-9
-0.126, 8.087e-9
-0.127, 8.066e-9
-0.128, 8.269e-9
-0.129, 8.073e-9
-0.130, 8.281e-9
-0.131, 8.246e-9
-0.132, 8.210e-9
-0.133, 8.400e-9
-0.134, 8.235e-9
-0.135, 8.441e-9
-0.136, 8.391e-9
-0.137, 8.374e-9
-0.138, 8.574e-9
-0.139, 8.392e-9
-0.140, 8.619e-9
-0.141, 8.566e-9
-0.142, 8.543e-9
-0.143, 8.766e-9
-0.144, 8.571e-9
-0.145, 8.790e-9
-0.146, 8.768e-9
-0.147, 8.734e-9
-0.148, 8.948e-9
-0.149, 8.775e-9
-0.150, 8.983e-9
-0.151, 8.963e-9
-0.152, 8.939e-9
-0.153, 9.148e-9
-0.154, 8.984e-9
-0.155, 9.195e-9
-0.156, 9.182e-9
-0.157, 9.142e-9
-0.158, 9.370e-9
-0.159, 9.211e-9
-0.160, 9.412e-9
-0.161, 9.406e-9
-0.162, 9.380e-9
-0.163, 9.592e-9
-0.164, 9.452e-9
-0.165, 9.653e-9
-0.166, 9.635e-9
-0.167, 9.634e-9
-0.168, 9.841e-9
-0.169, 9.687e-9
-0.170, 9.916e-9
-0.171, 9.898e-9
-0.172, 9.897e-9
-0.173, 1.011e-8
-0.174, 9.953e-9
-0.175, 1.019e-8
-0.176, 1.018e-8
-0.177, 1.016e-8
-0.178, 1.041e-8
-0.179, 1.025e-8
-0.180, 1.048e-8
-0.181, 1.047e-8
-0.182, 1.047e-8
-0.183, 1.070e-8
-0.184, 1.055e-8
-0.185, 1.079e-8
-0.186, 1.078e-8
-0.187, 1.079e-8
-0.188, 1.104e-8
-0.189, 1.087e-8
-0.190, 1.111e-8
-0.191, 1.113e-8
-0.192, 1.112e-8
-0.193, 1.137e-8
-0.194, 1.124e-8
-0.195, 1.146e-8
-0.196, 1.150e-8
-0.197, 1.148e-8
-0.198, 1.172e-8
-0.199, 1.161e-8
