Mar. 16, 2023   08:58:44
Cyclic Voltammetry
File: c:/users/oliverrz/desktop/electrolab/data/2023_03_16\fcmeoh_macros_250_um\electrode5_cv_150mvs_250_um.bin
Data Source:  Experiment
Instrument Model:  CHI760E
Header: CV
Note: 

Init E (V) = -0.2
High E (V) = 0.3
Low E (V) = -0.2
Final E (V) = -0.2
Init P/N = P
Scan Rate (V/s) = 0.15
Segment = 3
Sample Interval (V) = 0.001
Quiet Time (sec) = 2
Sensitivity (A/V) = 1e-7

Results:

Channel 1:
Segment 1:
Ep = 0.080V
ip = -2.135e-8A
Ah = -9.118e-9C

Segment 2:
Ep = 0.014V
ip = 2.022e-8A
Ah = 8.646e-9C

Segment 3:

Potential/V, Current/A

-0.200, 2.892e-9
-0.199, 2.756e-9
-0.198, 2.510e-9
-0.197, 2.568e-9
-0.196, 2.570e-9
-0.195, 2.383e-9
-0.194, 2.576e-9
-0.193, 2.357e-9
-0.192, 2.424e-9
-0.191, 2.455e-9
-0.190, 2.257e-9
-0.189, 2.462e-9
-0.188, 2.257e-9
-0.187, 2.320e-9
-0.186, 2.350e-9
-0.185, 2.165e-9
-0.184, 2.360e-9
-0.183, 2.166e-9
-0.182, 2.227e-9
-0.181, 2.260e-9
-0.180, 2.078e-9
-0.179, 2.276e-9
-0.178, 2.080e-9
-0.177, 2.144e-9
-0.176, 2.186e-9
-0.175, 1.997e-9
-0.174, 2.198e-9
-0.173, 2.010e-9
-0.172, 2.063e-9
-0.171, 2.114e-9
-0.170, 1.931e-9
-0.169, 2.119e-9
-0.168, 1.948e-9
-0.167, 2.004e-9
-0.166, 2.026e-9
-0.165, 1.870e-9
-0.164, 2.063e-9
-0.163, 1.864e-9
-0.162, 1.952e-9
-0.161, 1.969e-9
-0.160, 1.796e-9
-0.159, 2.019e-9
-0.158, 1.800e-9
-0.157, 1.875e-9
-0.156, 1.924e-9
-0.155, 1.735e-9
-0.154, 1.940e-9
-0.153, 1.756e-9
-0.152, 1.820e-9
-0.151, 1.858e-9
-0.150, 1.690e-9
-0.149, 1.885e-9
-0.148, 1.691e-9
-0.147, 1.777e-9
-0.146, 1.804e-9
-0.145, 1.619e-9
-0.144, 1.847e-9
-0.143, 1.639e-9
-0.142, 1.708e-9
-0.141, 1.761e-9
-0.140, 1.571e-9
-0.139, 1.783e-9
-0.138, 1.600e-9
-0.137, 1.654e-9
-0.136, 1.706e-9
-0.135, 1.535e-9
-0.134, 1.726e-9
-0.133, 1.543e-9
-0.132, 1.617e-9
-0.131, 1.648e-9
-0.130, 1.482e-9
-0.129, 1.679e-9
-0.128, 1.491e-9
-0.127, 1.565e-9
-0.126, 1.596e-9
-0.125, 1.432e-9
-0.124, 1.628e-9
-0.123, 1.443e-9
-0.122, 1.517e-9
-0.121, 1.540e-9
-0.120, 1.384e-9
-0.119, 1.585e-9
-0.118, 1.382e-9
-0.117, 1.471e-9
-0.116, 1.493e-9
-0.115, 1.315e-9
-0.114, 1.535e-9
-0.113, 1.332e-9
-0.112, 1.409e-9
-0.111, 1.448e-9
-0.110, 1.263e-9
-0.109, 1.476e-9
-0.108, 1.281e-9
-0.107, 1.352e-9
-0.106, 1.394e-9
-0.105, 1.212e-9
-0.104, 1.418e-9
-0.103, 1.220e-9
-0.102, 1.292e-9
-0.101, 1.328e-9
-0.100, 1.155e-9
-0.099, 1.359e-9
-0.098, 1.162e-9
-0.097, 1.225e-9
-0.096, 1.272e-9
-0.095, 1.086e-9
-0.094, 1.284e-9
-0.093, 1.103e-9
-0.092, 1.152e-9
-0.091, 1.200e-9
-0.090, 1.018e-9
-0.089, 1.201e-9
-0.088, 1.028e-9
-0.087, 1.098e-9
-0.086, 1.098e-9
-0.085, 9.499e-10
-0.084, 1.136e-9
-0.083, 9.238e-10
-0.082, 1.011e-9
-0.081, 1.027e-9
-0.080, 8.478e-10
-0.079, 1.050e-9
-0.078, 8.350e-10
-0.077, 8.924e-10
-0.076, 9.362e-10
-0.075, 7.400e-10
-0.074, 9.354e-10
-0.073, 7.405e-10
-0.072, 7.937e-10
-0.071, 8.188e-10
-0.070, 6.291e-10
-0.069, 8.164e-10
-0.068, 6.014e-10
-0.067, 6.785e-10
-0.066, 6.867e-10
-0.065, 4.790e-10
-0.064, 6.950e-10
-0.063, 4.630e-10
-0.062, 5.091e-10
-0.061, 5.452e-10
-0.060, 3.287e-10
-0.059, 5.170e-10
-0.058, 3.130e-10
-0.057, 3.382e-10
-0.056, 3.609e-10
-0.055, 1.653e-10
-0.054, 3.251e-10
-0.053, 1.127e-10
-0.052, 1.515e-10
-0.051, 1.481e-10
-0.050, -5.254e-11
-0.049, 1.156e-10
-0.048, -1.091e-10
-0.047, -7.501e-11
-0.046, -8.395e-11
-0.045, -2.861e-10
-0.044, -1.394e-10
-0.043, -3.742e-10
-0.042, -3.400e-10
-0.041, -3.703e-10
-0.040, -5.753e-10
-0.039, -4.327e-10
-0.038, -6.904e-10
-0.037, -6.550e-10
-0.036, -6.922e-10
-0.035, -9.216e-10
-0.034, -7.719e-10
-0.033, -1.047e-9
-0.032, -1.028e-9
-0.031, -1.065e-9
-0.030, -1.322e-9
-0.029, -1.181e-9
-0.028, -1.460e-9
-0.027, -1.464e-9
-0.026, -1.522e-9
-0.025, -1.785e-9
-0.024, -1.666e-9
-0.023, -1.951e-9
-0.022, -1.981e-9
-0.021, -2.047e-9
-0.020, -2.325e-9
-0.019, -2.224e-9
-0.018, -2.523e-9
-0.017, -2.579e-9
-0.016, -2.644e-9
-0.015, -2.949e-9
-0.014, -2.882e-9
-0.013, -3.195e-9
-0.012, -3.266e-9
-0.011, -3.364e-9
-0.010, -3.660e-9
-0.009, -3.630e-9
-0.008, -3.949e-9
-0.007, -4.037e-9
-0.006, -4.190e-9
-0.005, -4.495e-9
-0.004, -4.477e-9
-0.003, -4.845e-9
-0.002, -4.931e-9
-0.001, -5.113e-9
-0.000, -5.545e-9
0.001, -5.474e-9
0.002, -5.866e-9
0.003, -5.988e-9
0.004, -6.160e-9
0.005, -6.539e-9
0.006, -6.554e-9
0.007, -6.976e-9
0.008, -7.108e-9
0.009, -7.337e-9
0.010, -7.732e-9
0.011, -7.763e-9
0.012, -8.222e-9
0.013, -8.372e-9
0.014, -8.602e-9
0.015, -9.039e-9
0.016, -9.063e-9
0.017, -9.538e-9
0.018, -9.748e-9
0.019, -9.959e-9
0.020, -1.041e-8
0.021, -1.049e-8
0.022, -1.093e-8
0.023, -1.118e-8
0.024, -1.141e-8
0.025, -1.185e-8
0.026, -1.198e-8
0.027, -1.241e-8
0.028, -1.264e-8
0.029, -1.289e-8
0.030, -1.335e-8
0.031, -1.345e-8
0.032, -1.390e-8
0.033, -1.412e-8
0.034, -1.439e-8
0.035, -1.481e-8
0.036, -1.492e-8
0.037, -1.537e-8
0.038, -1.559e-8
0.039, -1.585e-8
0.040, -1.625e-8
0.041, -1.633e-8
0.042, -1.678e-8
0.043, -1.694e-8
0.044, -1.719e-8
0.045, -1.758e-8
0.046, -1.762e-8
0.047, -1.807e-8
0.048, -1.819e-8
0.049, -1.840e-8
0.050, -1.878e-8
0.051, -1.880e-8
0.052, -1.918e-8
0.053, -1.929e-8
0.054, -1.945e-8
0.055, -1.979e-8
0.056, -1.975e-8
0.057, -2.010e-8
0.058, -2.019e-8
0.059, -2.030e-8
0.060, -2.060e-8
0.061, -2.053e-8
0.062, -2.083e-8
0.063, -2.089e-8
0.064, -2.095e-8
0.065, -2.121e-8
0.066, -2.111e-8
0.067, -2.135e-8
0.068, -2.136e-8
0.069, -2.140e-8
0.070, -2.159e-8
0.071, -2.147e-8
0.072, -2.166e-8
0.073, -2.163e-8
0.074, -2.164e-8
0.075, -2.180e-8
0.076, -2.163e-8
0.077, -2.183e-8
0.078, -2.173e-8
0.079, -2.171e-8
0.080, -2.183e-8
0.081, -2.162e-8
0.082, -2.179e-8
0.083, -2.168e-8
0.084, -2.161e-8
0.085, -2.173e-8
0.086, -2.149e-8
0.087, -2.162e-8
0.088, -2.148e-8
0.089, -2.141e-8
0.090, -2.149e-8
0.091, -2.123e-8
0.092, -2.136e-8
0.093, -2.119e-8
0.094, -2.109e-8
0.095, -2.119e-8
0.096, -2.088e-8
0.097, -2.100e-8
0.098, -2.085e-8
0.099, -2.071e-8
0.100, -2.079e-8
0.101, -2.051e-8
0.102, -2.060e-8
0.103, -2.044e-8
0.104, -2.031e-8
0.105, -2.036e-8
0.106, -2.008e-8
0.107, -2.016e-8
0.108, -1.998e-8
0.109, -1.986e-8
0.110, -1.992e-8
0.111, -1.962e-8
0.112, -1.970e-8
0.113, -1.953e-8
0.114, -1.940e-8
0.115, -1.946e-8
0.116, -1.917e-8
0.117, -1.924e-8
0.118, -1.908e-8
0.119, -1.896e-8
0.120, -1.901e-8
0.121, -1.872e-8
0.122, -1.882e-8
0.123, -1.863e-8
0.124, -1.851e-8
0.125, -1.858e-8
0.126, -1.827e-8
0.127, -1.838e-8
0.128, -1.821e-8
0.129, -1.808e-8
0.130, -1.816e-8
0.131, -1.786e-8
0.132, -1.796e-8
0.133, -1.780e-8
0.134, -1.767e-8
0.135, -1.776e-8
0.136, -1.745e-8
0.137, -1.756e-8
0.138, -1.741e-8
0.139, -1.729e-8
0.140, -1.738e-8
0.141, -1.709e-8
0.142, -1.719e-8
0.143, -1.705e-8
0.144, -1.693e-8
0.145, -1.702e-8
0.146, -1.675e-8
0.147, -1.684e-8
0.148, -1.671e-8
0.149, -1.660e-8
0.150, -1.669e-8
0.151, -1.643e-8
0.152, -1.654e-8
0.153, -1.639e-8
0.154, -1.630e-8
0.155, -1.639e-8
0.156, -1.612e-8
0.157, -1.625e-8
0.158, -1.610e-8
0.159, -1.601e-8
0.160, -1.611e-8
0.161, -1.584e-8
0.162, -1.599e-8
0.163, -1.584e-8
0.164, -1.574e-8
0.165, -1.586e-8
0.166, -1.560e-8
0.167, -1.573e-8
0.168, -1.559e-8
0.169, -1.551e-8
0.170, -1.562e-8
0.171, -1.535e-8
0.172, -1.551e-8
0.173, -1.536e-8
0.174, -1.528e-8
0.175, -1.542e-8
0.176, -1.513e-8
0.177, -1.528e-8
0.178, -1.517e-8
0.179, -1.507e-8
0.180, -1.521e-8
0.181, -1.495e-8
0.182, -1.508e-8
0.183, -1.498e-8
0.184, -1.489e-8
0.185, -1.500e-8
0.186, -1.478e-8
0.187, -1.492e-8
0.188, -1.479e-8
0.189, -1.472e-8
0.190, -1.485e-8
0.191, -1.460e-8
0.192, -1.476e-8
0.193, -1.464e-8
0.194, -1.456e-8
0.195, -1.470e-8
0.196, -1.445e-8
0.197, -1.461e-8
0.198, -1.449e-8
0.199, -1.444e-8
0.200, -1.455e-8
0.201, -1.432e-8
0.202, -1.449e-8
0.203, -1.436e-8
0.204, -1.431e-8
0.205, -1.444e-8
0.206, -1.419e-8
0.207, -1.438e-8
0.208, -1.425e-8
0.209, -1.417e-8
0.210, -1.433e-8
0.211, -1.409e-8
0.212, -1.425e-8
0.213, -1.415e-8
0.214, -1.408e-8
0.215, -1.423e-8
0.216, -1.399e-8
0.217, -1.415e-8
0.218, -1.406e-8
0.219, -1.399e-8
0.220, -1.413e-8
0.221, -1.390e-8
0.222, -1.407e-8
0.223, -1.397e-8
0.224, -1.390e-8
0.225, -1.405e-8
0.226, -1.383e-8
0.227, -1.398e-8
0.228, -1.389e-8
0.229, -1.383e-8
0.230, -1.397e-8
0.231, -1.376e-8
0.232, -1.392e-8
0.233, -1.381e-8
0.234, -1.377e-8
0.235, -1.391e-8
0.236, -1.368e-8
0.237, -1.386e-8
0.238, -1.376e-8
0.239, -1.371e-8
0.240, -1.385e-8
0.241, -1.363e-8
0.242, -1.381e-8
0.243, -1.371e-8
0.244, -1.366e-8
0.245, -1.381e-8
0.246, -1.358e-8
0.247, -1.377e-8
0.248, -1.366e-8
0.249, -1.362e-8
0.250, -1.378e-8
0.251, -1.354e-8
0.252, -1.372e-8
0.253, -1.363e-8
0.254, -1.357e-8
0.255, -1.375e-8
0.256, -1.351e-8
0.257, -1.369e-8
0.258, -1.361e-8
0.259, -1.355e-8
0.260, -1.371e-8
0.261, -1.350e-8
0.262, -1.366e-8
0.263, -1.359e-8
0.264, -1.354e-8
0.265, -1.368e-8
0.266, -1.348e-8
0.267, -1.367e-8
0.268, -1.357e-8
0.269, -1.354e-8
0.270, -1.369e-8
0.271, -1.347e-8
0.272, -1.366e-8
0.273, -1.357e-8
0.274, -1.353e-8
0.275, -1.369e-8
0.276, -1.348e-8
0.277, -1.366e-8
0.278, -1.357e-8
0.279, -1.355e-8
0.280, -1.368e-8
0.281, -1.349e-8
0.282, -1.368e-8
0.283, -1.357e-8
0.284, -1.356e-8
0.285, -1.372e-8
0.286, -1.349e-8
0.287, -1.370e-8
0.288, -1.361e-8
0.289, -1.356e-8
0.290, -1.375e-8
0.291, -1.353e-8
0.292, -1.371e-8
0.293, -1.365e-8
0.294, -1.361e-8
0.295, -1.378e-8
0.296, -1.357e-8
0.297, -1.376e-8
0.298, -1.368e-8
0.299, -1.365e-8
0.300, -1.218e-8
0.299, -1.100e-8
0.298, -1.095e-8
0.297, -1.067e-8
0.296, -1.048e-8
0.295, -1.052e-8
0.294, -1.018e-8
0.293, -1.027e-8
0.292, -1.008e-8
0.291, -9.961e-9
0.290, -1.004e-8
0.289, -9.739e-9
0.288, -9.865e-9
0.287, -9.695e-9
0.286, -9.598e-9
0.285, -9.698e-9
0.284, -9.408e-9
0.283, -9.553e-9
0.282, -9.405e-9
0.281, -9.301e-9
0.280, -9.427e-9
0.279, -9.158e-9
0.278, -9.296e-9
0.277, -9.166e-9
0.276, -9.079e-9
0.275, -9.199e-9
0.274, -8.952e-9
0.273, -9.085e-9
0.272, -8.964e-9
0.271, -8.886e-9
0.270, -9.005e-9
0.269, -8.751e-9
0.268, -8.901e-9
0.267, -8.785e-9
0.266, -8.712e-9
0.265, -8.831e-9
0.264, -8.594e-9
0.263, -8.739e-9
0.262, -8.626e-9
0.261, -8.553e-9
0.260, -8.676e-9
0.259, -8.451e-9
0.258, -8.593e-9
0.257, -8.471e-9
0.256, -8.420e-9
0.255, -8.539e-9
0.254, -8.304e-9
0.253, -8.471e-9
0.252, -8.333e-9
0.251, -8.290e-9
0.250, -8.431e-9
0.249, -8.164e-9
0.248, -8.346e-9
0.247, -8.234e-9
0.246, -8.152e-9
0.245, -8.306e-9
0.244, -8.057e-9
0.243, -8.217e-9
0.242, -8.121e-9
0.241, -8.049e-9
0.240, -8.178e-9
0.239, -7.952e-9
0.238, -8.117e-9
0.237, -8.000e-9
0.236, -7.943e-9
0.235, -8.085e-9
0.234, -7.842e-9
0.233, -8.000e-9
0.232, -7.907e-9
0.231, -7.826e-9
0.230, -7.975e-9
0.229, -7.744e-9
0.228, -7.891e-9
0.227, -7.805e-9
0.226, -7.739e-9
0.225, -7.866e-9
0.224, -7.646e-9
0.223, -7.809e-9
0.222, -7.692e-9
0.221, -7.648e-9
0.220, -7.772e-9
0.219, -7.543e-9
0.218, -7.713e-9
0.217, -7.591e-9
0.216, -7.543e-9
0.215, -7.679e-9
0.214, -7.444e-9
0.213, -7.617e-9
0.212, -7.499e-9
0.211, -7.447e-9
0.210, -7.588e-9
0.209, -7.342e-9
0.208, -7.523e-9
0.207, -7.403e-9
0.206, -7.349e-9
0.205, -7.484e-9
0.204, -7.231e-9
0.203, -7.420e-9
0.202, -7.310e-9
0.201, -7.235e-9
0.200, -7.392e-9
0.199, -7.148e-9
0.198, -7.312e-9
0.197, -7.209e-9
0.196, -7.135e-9
0.195, -7.285e-9
0.194, -7.052e-9
0.193, -7.200e-9
0.192, -7.093e-9
0.191, -7.036e-9
0.190, -7.168e-9
0.189, -6.937e-9
0.188, -7.094e-9
0.187, -6.990e-9
0.186, -6.924e-9
0.185, -7.060e-9
0.184, -6.827e-9
0.183, -6.985e-9
0.182, -6.875e-9
0.181, -6.808e-9
0.180, -6.929e-9
0.179, -6.711e-9
0.178, -6.860e-9
0.177, -6.741e-9
0.176, -6.692e-9
0.175, -6.806e-9
0.174, -6.571e-9
0.173, -6.744e-9
0.172, -6.597e-9
0.171, -6.554e-9
0.170, -6.683e-9
0.169, -6.417e-9
0.168, -6.596e-9
0.167, -6.473e-9
0.166, -6.388e-9
0.165, -6.530e-9
0.164, -6.280e-9
0.163, -6.423e-9
0.162, -6.315e-9
0.161, -6.231e-9
0.160, -6.356e-9
0.159, -6.111e-9
0.158, -6.259e-9
0.157, -6.126e-9
0.156, -6.051e-9
0.155, -6.175e-9
0.154, -5.911e-9
0.153, -6.061e-9
0.152, -5.939e-9
0.151, -5.850e-9
0.150, -5.964e-9
0.149, -5.713e-9
0.148, -5.822e-9
0.147, -5.714e-9
0.146, -5.625e-9
0.145, -5.711e-9
0.144, -5.465e-9
0.143, -5.586e-9
0.142, -5.438e-9
0.141, -5.355e-9
0.140, -5.438e-9
0.139, -5.176e-9
0.138, -5.307e-9
0.137, -5.141e-9
0.136, -5.046e-9
0.135, -5.131e-9
0.134, -4.852e-9
0.133, -4.968e-9
0.132, -4.790e-9
0.131, -4.703e-9
0.130, -4.771e-9
0.129, -4.475e-9
0.128, -4.579e-9
0.127, -4.401e-9
0.126, -4.281e-9
0.125, -4.355e-9
0.124, -4.030e-9
0.123, -4.136e-9
0.122, -3.958e-9
0.121, -3.796e-9
0.120, -3.864e-9
0.119, -3.540e-9
0.118, -3.613e-9
0.117, -3.422e-9
0.116, -3.257e-9
0.115, -3.300e-9
0.114, -2.978e-9
0.113, -3.016e-9
0.112, -2.808e-9
0.111, -2.638e-9
0.110, -2.647e-9
0.109, -2.302e-9
0.108, -2.336e-9
0.107, -2.108e-9
0.106, -1.916e-9
0.105, -1.908e-9
0.104, -1.532e-9
0.103, -1.543e-9
0.102, -1.292e-9
0.101, -1.079e-9
0.100, -1.046e-9
0.099, -6.807e-10
0.098, -6.558e-10
0.097, -3.718e-10
0.096, -1.546e-10
0.095, -8.410e-11
0.094, 3.162e-10
0.093, 3.354e-10
0.092, 6.742e-10
0.091, 9.076e-10
0.090, 9.775e-10
0.089, 1.448e-9
0.088, 1.469e-9
0.087, 1.809e-9
0.086, 2.090e-9
0.085, 2.172e-9
0.084, 2.649e-9
0.083, 2.715e-9
0.082, 3.045e-9
0.081, 3.370e-9
0.080, 3.475e-9
0.079, 3.950e-9
0.078, 4.044e-9
0.077, 4.424e-9
0.076, 4.745e-9
0.075, 4.848e-9
0.074, 5.354e-9
0.073, 5.474e-9
0.072, 5.829e-9
0.071, 6.177e-9
0.070, 6.312e-9
0.069, 6.803e-9
0.068, 6.954e-9
0.067, 7.299e-9
0.066, 7.639e-9
0.065, 7.821e-9
0.064, 8.299e-9
0.063, 8.425e-9
0.062, 8.813e-9
0.061, 9.129e-9
0.060, 9.300e-9
0.059, 9.760e-9
0.058, 9.885e-9
0.057, 1.027e-8
0.056, 1.057e-8
0.055, 1.071e-8
0.054, 1.118e-8
0.053, 1.128e-8
0.052, 1.167e-8
0.051, 1.192e-8
0.050, 1.205e-8
0.049, 1.249e-8
0.048, 1.255e-8
0.047, 1.290e-8
0.046, 1.315e-8
0.045, 1.322e-8
0.044, 1.367e-8
0.043, 1.366e-8
0.042, 1.397e-8
0.041, 1.422e-8
0.040, 1.423e-8
0.039, 1.464e-8
0.038, 1.464e-8
0.037, 1.487e-8
0.036, 1.509e-8
0.035, 1.507e-8
0.034, 1.541e-8
0.033, 1.539e-8
0.032, 1.558e-8
0.031, 1.573e-8
0.030, 1.571e-8
0.029, 1.599e-8
0.028, 1.591e-8
0.027, 1.609e-8
0.026, 1.620e-8
0.025, 1.612e-8
0.024, 1.638e-8
0.023, 1.626e-8
0.022, 1.638e-8
0.021, 1.646e-8
0.020, 1.635e-8
0.019, 1.656e-8
0.018, 1.642e-8
0.017, 1.651e-8
0.016, 1.654e-8
0.015, 1.642e-8
0.014, 1.660e-8
0.013, 1.640e-8
0.012, 1.650e-8
0.011, 1.647e-8
0.010, 1.630e-8
0.009, 1.651e-8
0.008, 1.625e-8
0.007, 1.631e-8
0.006, 1.631e-8
0.005, 1.609e-8
0.004, 1.626e-8
0.003, 1.601e-8
0.002, 1.603e-8
0.001, 1.602e-8
0.000, 1.589e-8
-0.001, 1.596e-8
-0.002, 1.570e-8
-0.003, 1.572e-8
-0.004, 1.568e-8
-0.005, 1.544e-8
-0.006, 1.557e-8
-0.007, 1.532e-8
-0.008, 1.531e-8
-0.009, 1.527e-8
-0.010, 1.503e-8
-0.011, 1.515e-8
-0.012, 1.491e-8
-0.013, 1.488e-8
-0.014, 1.484e-8
-0.015, 1.461e-8
-0.016, 1.472e-8
-0.017, 1.446e-8
-0.018, 1.446e-8
-0.019, 1.440e-8
-0.020, 1.417e-8
-0.021, 1.428e-8
-0.022, 1.401e-8
-0.023, 1.402e-8
-0.024, 1.396e-8
-0.025, 1.373e-8
-0.026, 1.385e-8
-0.027, 1.358e-8
-0.028, 1.359e-8
-0.029, 1.353e-8
-0.030, 1.329e-8
-0.031, 1.343e-8
-0.032, 1.315e-8
-0.033, 1.317e-8
-0.034, 1.312e-8
-0.035, 1.287e-8
-0.036, 1.303e-8
-0.037, 1.275e-8
-0.038, 1.276e-8
-0.039, 1.273e-8
-0.040, 1.248e-8
-0.041, 1.263e-8
-0.042, 1.237e-8
-0.043, 1.238e-8
-0.044, 1.236e-8
-0.045, 1.213e-8
-0.046, 1.226e-8
-0.047, 1.202e-8
-0.048, 1.203e-8
-0.049, 1.200e-8
-0.050, 1.179e-8
-0.051, 1.193e-8
-0.052, 1.168e-8
-0.053, 1.170e-8
-0.054, 1.168e-8
-0.055, 1.145e-8
-0.056, 1.161e-8
-0.057, 1.136e-8
-0.058, 1.139e-8
-0.059, 1.137e-8
-0.060, 1.117e-8
-0.061, 1.131e-8
-0.062, 1.107e-8
-0.063, 1.112e-8
-0.064, 1.108e-8
-0.065, 1.089e-8
-0.066, 1.104e-8
-0.067, 1.079e-8
-0.068, 1.086e-8
-0.069, 1.082e-8
-0.070, 1.061e-8
-0.071, 1.080e-8
-0.072, 1.055e-8
-0.073, 1.059e-8
-0.074, 1.060e-8
-0.075, 1.038e-8
-0.076, 1.056e-8
-0.077, 1.033e-8
-0.078, 1.036e-8
-0.079, 1.037e-8
-0.080, 1.017e-8
-0.081, 1.034e-8
-0.082, 1.011e-8
-0.083, 1.017e-8
-0.084, 1.017e-8
-0.085, 9.958e-9
-0.086, 1.014e-8
-0.087, 9.922e-9
-0.088, 9.959e-9
-0.089, 9.986e-9
-0.090, 9.781e-9
-0.091, 9.948e-9
-0.092, 9.752e-9
-0.093, 9.782e-9
-0.094, 9.792e-9
-0.095, 9.618e-9
-0.096, 9.782e-9
-0.097, 9.571e-9
-0.098, 9.636e-9
-0.099, 9.633e-9
-0.100, 9.454e-9
-0.101, 9.634e-9
-0.102, 9.420e-9
-0.103, 9.485e-9
-0.104, 9.494e-9
-0.105, 9.303e-9
-0.106, 9.493e-9
-0.107, 9.275e-9
-0.108, 9.349e-9
-0.109, 9.349e-9
-0.110, 9.168e-9
-0.111, 9.364e-9
-0.112, 9.143e-9
-0.113, 9.215e-9
-0.114, 9.229e-9
-0.115, 9.044e-9
-0.116, 9.244e-9
-0.117, 9.030e-9
-0.118, 9.087e-9
-0.119, 9.117e-9
-0.120, 8.928e-9
-0.121, 9.123e-9
-0.122, 8.919e-9
-0.123, 8.976e-9
-0.124, 9.010e-9
-0.125, 8.822e-9
-0.126, 9.016e-9
-0.127, 8.819e-9
-0.128, 8.888e-9
-0.129, 8.908e-9
-0.130, 8.723e-9
-0.131, 8.923e-9
-0.132, 8.724e-9
-0.133, 8.781e-9
-0.134, 8.813e-9
-0.135, 8.640e-9
-0.136, 8.830e-9
-0.137, 8.632e-9
-0.138, 8.700e-9
-0.139, 8.727e-9
-0.140, 8.563e-9
-0.141, 8.749e-9
-0.142, 8.550e-9
-0.143, 8.630e-9
-0.144, 8.639e-9
-0.145, 8.474e-9
-0.146, 8.684e-9
-0.147, 8.461e-9
-0.148, 8.564e-9
-0.149, 8.575e-9
-0.150, 8.388e-9
-0.151, 8.617e-9
-0.152, 8.408e-9
-0.153, 8.480e-9
-0.154, 8.521e-9
-0.155, 8.330e-9
-0.156, 8.549e-9
-0.157, 8.344e-9
-0.158, 8.417e-9
-0.159, 8.449e-9
-0.160, 8.286e-9
-0.161, 8.483e-9
-0.162, 8.287e-9
-0.163, 8.368e-9
-0.164, 8.400e-9
-0.165, 8.222e-9
-0.166, 8.443e-9
-0.167, 8.238e-9
-0.168, 8.313e-9
-0.169, 8.358e-9
-0.170, 8.180e-9
-0.171, 8.378e-9
-0.172, 8.213e-9
-0.173, 8.265e-9
-0.174, 8.300e-9
-0.175, 8.154e-9
-0.176, 8.333e-9
-0.177, 8.159e-9
-0.178, 8.248e-9
-0.179, 8.265e-9
-0.180, 8.116e-9
-0.181, 8.317e-9
-0.182, 8.118e-9
-0.183, 8.209e-9
-0.184, 8.242e-9
-0.185, 8.072e-9
-0.186, 8.287e-9
-0.187, 8.096e-9
-0.188, 8.185e-9
-0.189, 8.208e-9
-0.190, 8.049e-9
-0.191, 8.263e-9
-0.192, 8.072e-9
-0.193, 8.159e-9
-0.194, 8.199e-9
-0.195, 8.028e-9
-0.196, 8.257e-9
-0.197, 8.053e-9
-0.198, 8.133e-9
-0.199, 8.192e-9
