Mar. 16, 2023   08:59:50
Cyclic Voltammetry
File: c:/users/oliverrz/desktop/electrolab/data/2023_03_16\fcmeoh_macros_250_um\electrode6_cv_100mvs_250_um.bin
Data Source:  Experiment
Instrument Model:  CHI760E
Header: CV
Note: 

Init E (V) = -0.2
High E (V) = 0.3
Low E (V) = -0.2
Final E (V) = -0.2
Init P/N = P
Scan Rate (V/s) = 0.1
Segment = 3
Sample Interval (V) = 0.001
Quiet Time (sec) = 2
Sensitivity (A/V) = 1e-7

Results:

Channel 1:
Segment 1:
Ep = 0.073V
ip = -1.763e-8A
Ah = -1.073e-8C

Segment 2:
Ep = 0.008V
ip = 1.679e-8A
Ah = 1.077e-8C

Segment 3:

Potential/V, Current/A

-0.200, 2.974e-9
-0.199, 2.619e-9
-0.198, 2.538e-9
-0.197, 2.445e-9
-0.196, 2.484e-9
-0.195, 2.401e-9
-0.194, 2.406e-9
-0.193, 2.400e-9
-0.192, 2.327e-9
-0.191, 2.374e-9
-0.190, 2.300e-9
-0.189, 2.312e-9
-0.188, 2.307e-9
-0.187, 2.239e-9
-0.186, 2.293e-9
-0.185, 2.216e-9
-0.184, 2.229e-9
-0.183, 2.233e-9
-0.182, 2.159e-9
-0.181, 2.222e-9
-0.180, 2.139e-9
-0.179, 2.153e-9
-0.178, 2.159e-9
-0.177, 2.084e-9
-0.176, 2.148e-9
-0.175, 2.073e-9
-0.174, 2.087e-9
-0.173, 2.094e-9
-0.172, 2.023e-9
-0.171, 2.084e-9
-0.170, 2.012e-9
-0.169, 2.024e-9
-0.168, 2.033e-9
-0.167, 1.963e-9
-0.166, 2.023e-9
-0.165, 1.953e-9
-0.164, 1.967e-9
-0.163, 1.975e-9
-0.162, 1.910e-9
-0.161, 1.967e-9
-0.160, 1.900e-9
-0.159, 1.913e-9
-0.158, 1.923e-9
-0.157, 1.854e-9
-0.156, 1.917e-9
-0.155, 1.845e-9
-0.154, 1.861e-9
-0.153, 1.863e-9
-0.152, 1.803e-9
-0.151, 1.863e-9
-0.150, 1.794e-9
-0.149, 1.815e-9
-0.148, 1.817e-9
-0.147, 1.758e-9
-0.146, 1.818e-9
-0.145, 1.746e-9
-0.144, 1.767e-9
-0.143, 1.773e-9
-0.142, 1.710e-9
-0.141, 1.775e-9
-0.140, 1.699e-9
-0.139, 1.722e-9
-0.138, 1.726e-9
-0.137, 1.661e-9
-0.136, 1.726e-9
-0.135, 1.655e-9
-0.134, 1.675e-9
-0.133, 1.683e-9
-0.132, 1.615e-9
-0.131, 1.683e-9
-0.130, 1.607e-9
-0.129, 1.627e-9
-0.128, 1.634e-9
-0.127, 1.568e-9
-0.126, 1.632e-9
-0.125, 1.564e-9
-0.124, 1.579e-9
-0.123, 1.589e-9
-0.122, 1.525e-9
-0.121, 1.586e-9
-0.120, 1.516e-9
-0.119, 1.533e-9
-0.118, 1.539e-9
-0.117, 1.476e-9
-0.116, 1.533e-9
-0.115, 1.466e-9
-0.114, 1.484e-9
-0.113, 1.487e-9
-0.112, 1.427e-9
-0.111, 1.486e-9
-0.110, 1.415e-9
-0.109, 1.433e-9
-0.108, 1.438e-9
-0.107, 1.373e-9
-0.106, 1.434e-9
-0.105, 1.359e-9
-0.104, 1.378e-9
-0.103, 1.381e-9
-0.102, 1.312e-9
-0.101, 1.379e-9
-0.100, 1.303e-9
-0.099, 1.321e-9
-0.098, 1.322e-9
-0.097, 1.251e-9
-0.096, 1.316e-9
-0.095, 1.241e-9
-0.094, 1.254e-9
-0.093, 1.259e-9
-0.092, 1.186e-9
-0.091, 1.247e-9
-0.090, 1.172e-9
-0.089, 1.181e-9
-0.088, 1.187e-9
-0.087, 1.116e-9
-0.086, 1.173e-9
-0.085, 1.096e-9
-0.084, 1.104e-9
-0.083, 1.107e-9
-0.082, 1.030e-9
-0.081, 1.085e-9
-0.080, 1.010e-9
-0.079, 1.017e-9
-0.078, 1.013e-9
-0.077, 9.366e-10
-0.076, 9.859e-10
-0.075, 9.084e-10
-0.074, 9.144e-10
-0.073, 9.078e-10
-0.072, 8.295e-10
-0.071, 8.779e-10
-0.070, 7.912e-10
-0.069, 7.983e-10
-0.068, 7.836e-10
-0.067, 7.099e-10
-0.066, 7.539e-10
-0.065, 6.641e-10
-0.064, 6.621e-10
-0.063, 6.460e-10
-0.062, 5.580e-10
-0.061, 6.031e-10
-0.060, 5.061e-10
-0.059, 5.056e-10
-0.058, 4.839e-10
-0.057, 3.955e-10
-0.056, 4.336e-10
-0.055, 3.310e-10
-0.054, 3.253e-10
-0.053, 2.997e-10
-0.052, 2.011e-10
-0.051, 2.331e-10
-0.050, 1.291e-10
-0.049, 1.075e-10
-0.048, 8.321e-11
-0.047, -2.134e-11
-0.046, 3.564e-12
-0.045, -1.055e-10
-0.044, -1.327e-10
-0.043, -1.670e-10
-0.042, -2.811e-10
-0.041, -2.706e-10
-0.040, -3.849e-10
-0.039, -4.230e-10
-0.038, -4.692e-10
-0.037, -5.869e-10
-0.036, -5.859e-10
-0.035, -7.114e-10
-0.034, -7.558e-10
-0.033, -8.194e-10
-0.032, -9.451e-10
-0.031, -9.553e-10
-0.030, -1.096e-9
-0.029, -1.147e-9
-0.028, -1.221e-9
-0.027, -1.361e-9
-0.026, -1.387e-9
-0.025, -1.544e-9
-0.024, -1.609e-9
-0.023, -1.697e-9
-0.022, -1.852e-9
-0.021, -1.887e-9
-0.020, -2.059e-9
-0.019, -2.140e-9
-0.018, -2.244e-9
-0.017, -2.417e-9
-0.016, -2.465e-9
-0.015, -2.654e-9
-0.014, -2.755e-9
-0.013, -2.873e-9
-0.012, -3.071e-9
-0.011, -3.134e-9
-0.010, -3.346e-9
-0.009, -3.461e-9
-0.008, -3.589e-9
-0.007, -3.802e-9
-0.006, -3.887e-9
-0.005, -4.109e-9
-0.004, -4.254e-9
-0.003, -4.406e-9
-0.002, -4.639e-9
-0.001, -4.746e-9
-0.000, -5.041e-9
0.001, -5.193e-9
0.002, -5.350e-9
0.003, -5.589e-9
0.004, -5.723e-9
0.005, -5.975e-9
0.006, -6.158e-9
0.007, -6.353e-9
0.008, -6.614e-9
0.009, -6.767e-9
0.010, -7.040e-9
0.011, -7.237e-9
0.012, -7.458e-9
0.013, -7.733e-9
0.014, -7.901e-9
0.015, -8.197e-9
0.016, -8.399e-9
0.017, -8.629e-9
0.018, -8.915e-9
0.019, -9.082e-9
0.020, -9.394e-9
0.021, -9.605e-9
0.022, -9.835e-9
0.023, -1.014e-8
0.024, -1.031e-8
0.025, -1.062e-8
0.026, -1.085e-8
0.027, -1.108e-8
0.028, -1.138e-8
0.029, -1.154e-8
0.030, -1.185e-8
0.031, -1.207e-8
0.032, -1.228e-8
0.033, -1.258e-8
0.034, -1.275e-8
0.035, -1.304e-8
0.036, -1.325e-8
0.037, -1.345e-8
0.038, -1.374e-8
0.039, -1.389e-8
0.040, -1.415e-8
0.041, -1.435e-8
0.042, -1.453e-8
0.043, -1.478e-8
0.044, -1.492e-8
0.045, -1.515e-8
0.046, -1.532e-8
0.047, -1.549e-8
0.048, -1.571e-8
0.049, -1.581e-8
0.050, -1.603e-8
0.051, -1.616e-8
0.052, -1.630e-8
0.053, -1.648e-8
0.054, -1.656e-8
0.055, -1.674e-8
0.056, -1.683e-8
0.057, -1.693e-8
0.058, -1.708e-8
0.059, -1.711e-8
0.060, -1.727e-8
0.061, -1.732e-8
0.062, -1.740e-8
0.063, -1.752e-8
0.064, -1.751e-8
0.065, -1.763e-8
0.066, -1.766e-8
0.067, -1.769e-8
0.068, -1.779e-8
0.069, -1.775e-8
0.070, -1.784e-8
0.071, -1.784e-8
0.072, -1.784e-8
0.073, -1.790e-8
0.074, -1.784e-8
0.075, -1.790e-8
0.076, -1.788e-8
0.077, -1.785e-8
0.078, -1.790e-8
0.079, -1.781e-8
0.080, -1.784e-8
0.081, -1.780e-8
0.082, -1.775e-8
0.083, -1.777e-8
0.084, -1.768e-8
0.085, -1.769e-8
0.086, -1.762e-8
0.087, -1.757e-8
0.088, -1.757e-8
0.089, -1.746e-8
0.090, -1.746e-8
0.091, -1.738e-8
0.092, -1.732e-8
0.093, -1.730e-8
0.094, -1.718e-8
0.095, -1.718e-8
0.096, -1.708e-8
0.097, -1.701e-8
0.098, -1.700e-8
0.099, -1.686e-8
0.100, -1.686e-8
0.101, -1.676e-8
0.102, -1.668e-8
0.103, -1.668e-8
0.104, -1.653e-8
0.105, -1.652e-8
0.106, -1.642e-8
0.107, -1.634e-8
0.108, -1.633e-8
0.109, -1.618e-8
0.110, -1.617e-8
0.111, -1.608e-8
0.112, -1.599e-8
0.113, -1.597e-8
0.114, -1.583e-8
0.115, -1.583e-8
0.116, -1.573e-8
0.117, -1.565e-8
0.118, -1.563e-8
0.119, -1.550e-8
0.120, -1.549e-8
0.121, -1.540e-8
0.122, -1.531e-8
0.123, -1.530e-8
0.124, -1.517e-8
0.125, -1.516e-8
0.126, -1.507e-8
0.127, -1.499e-8
0.128, -1.498e-8
0.129, -1.485e-8
0.130, -1.485e-8
0.131, -1.476e-8
0.132, -1.469e-8
0.133, -1.468e-8
0.134, -1.455e-8
0.135, -1.456e-8
0.136, -1.447e-8
0.137, -1.440e-8
0.138, -1.440e-8
0.139, -1.428e-8
0.140, -1.429e-8
0.141, -1.421e-8
0.142, -1.414e-8
0.143, -1.415e-8
0.144, -1.402e-8
0.145, -1.404e-8
0.146, -1.396e-8
0.147, -1.389e-8
0.148, -1.391e-8
0.149, -1.379e-8
0.150, -1.380e-8
0.151, -1.373e-8
0.152, -1.367e-8
0.153, -1.369e-8
0.154, -1.357e-8
0.155, -1.359e-8
0.156, -1.352e-8
0.157, -1.346e-8
0.158, -1.348e-8
0.159, -1.337e-8
0.160, -1.339e-8
0.161, -1.333e-8
0.162, -1.328e-8
0.163, -1.329e-8
0.164, -1.319e-8
0.165, -1.321e-8
0.166, -1.315e-8
0.167, -1.311e-8
0.168, -1.313e-8
0.169, -1.302e-8
0.170, -1.305e-8
0.171, -1.299e-8
0.172, -1.295e-8
0.173, -1.297e-8
0.174, -1.287e-8
0.175, -1.290e-8
0.176, -1.284e-8
0.177, -1.280e-8
0.178, -1.283e-8
0.179, -1.273e-8
0.180, -1.277e-8
0.181, -1.271e-8
0.182, -1.267e-8
0.183, -1.270e-8
0.184, -1.260e-8
0.185, -1.264e-8
0.186, -1.259e-8
0.187, -1.255e-8
0.188, -1.258e-8
0.189, -1.249e-8
0.190, -1.253e-8
0.191, -1.248e-8
0.192, -1.244e-8
0.193, -1.248e-8
0.194, -1.239e-8
0.195, -1.242e-8
0.196, -1.238e-8
0.197, -1.234e-8
0.198, -1.238e-8
0.199, -1.229e-8
0.200, -1.233e-8
0.201, -1.229e-8
0.202, -1.226e-8
0.203, -1.229e-8
0.204, -1.221e-8
0.205, -1.226e-8
0.206, -1.221e-8
0.207, -1.218e-8
0.208, -1.221e-8
0.209, -1.213e-8
0.210, -1.218e-8
0.211, -1.214e-8
0.212, -1.211e-8
0.213, -1.215e-8
0.214, -1.207e-8
0.215, -1.211e-8
0.216, -1.207e-8
0.217, -1.205e-8
0.218, -1.209e-8
0.219, -1.201e-8
0.220, -1.206e-8
0.221, -1.201e-8
0.222, -1.199e-8
0.223, -1.204e-8
0.224, -1.195e-8
0.225, -1.200e-8
0.226, -1.197e-8
0.227, -1.194e-8
0.228, -1.199e-8
0.229, -1.191e-8
0.230, -1.196e-8
0.231, -1.193e-8
0.232, -1.190e-8
0.233, -1.195e-8
0.234, -1.187e-8
0.235, -1.193e-8
0.236, -1.189e-8
0.237, -1.186e-8
0.238, -1.192e-8
0.239, -1.184e-8
0.240, -1.189e-8
0.241, -1.186e-8
0.242, -1.184e-8
0.243, -1.189e-8
0.244, -1.182e-8
0.245, -1.187e-8
0.246, -1.184e-8
0.247, -1.182e-8
0.248, -1.187e-8
0.249, -1.179e-8
0.250, -1.185e-8
0.251, -1.181e-8
0.252, -1.180e-8
0.253, -1.185e-8
0.254, -1.178e-8
0.255, -1.184e-8
0.256, -1.181e-8
0.257, -1.179e-8
0.258, -1.184e-8
0.259, -1.177e-8
0.260, -1.183e-8
0.261, -1.180e-8
0.262, -1.178e-8
0.263, -1.184e-8
0.264, -1.176e-8
0.265, -1.183e-8
0.266, -1.180e-8
0.267, -1.179e-8
0.268, -1.184e-8
0.269, -1.178e-8
0.270, -1.184e-8
0.271, -1.181e-8
0.272, -1.179e-8
0.273, -1.185e-8
0.274, -1.178e-8
0.275, -1.184e-8
0.276, -1.182e-8
0.277, -1.181e-8
0.278, -1.187e-8
0.279, -1.180e-8
0.280, -1.186e-8
0.281, -1.184e-8
0.282, -1.183e-8
0.283, -1.189e-8
0.284, -1.183e-8
0.285, -1.189e-8
0.286, -1.187e-8
0.287, -1.187e-8
0.288, -1.192e-8
0.289, -1.186e-8
0.290, -1.193e-8
0.291, -1.191e-8
0.292, -1.190e-8
0.293, -1.196e-8
0.294, -1.190e-8
0.295, -1.197e-8
0.296, -1.195e-8
0.297, -1.195e-8
0.298, -1.201e-8
0.299, -1.195e-8
0.300, -1.145e-8
0.299, -1.042e-8
0.298, -1.007e-8
0.297, -9.950e-9
0.296, -9.748e-9
0.295, -9.699e-9
0.294, -9.573e-9
0.293, -9.469e-9
0.292, -9.443e-9
0.291, -9.303e-9
0.290, -9.296e-9
0.289, -9.204e-9
0.288, -9.130e-9
0.287, -9.120e-9
0.286, -8.999e-9
0.285, -9.010e-9
0.284, -8.930e-9
0.283, -8.870e-9
0.282, -8.876e-9
0.281, -8.757e-9
0.280, -8.781e-9
0.279, -8.707e-9
0.278, -8.656e-9
0.277, -8.672e-9
0.276, -8.562e-9
0.275, -8.593e-9
0.274, -8.526e-9
0.273, -8.477e-9
0.272, -8.502e-9
0.271, -8.396e-9
0.270, -8.429e-9
0.269, -8.370e-9
0.268, -8.322e-9
0.267, -8.352e-9
0.266, -8.253e-9
0.265, -8.286e-9
0.264, -8.232e-9
0.263, -8.189e-9
0.262, -8.219e-9
0.261, -8.119e-9
0.260, -8.157e-9
0.259, -8.109e-9
0.258, -8.064e-9
0.257, -8.100e-9
0.256, -8.003e-9
0.255, -8.040e-9
0.254, -7.994e-9
0.253, -7.955e-9
0.252, -7.987e-9
0.251, -7.899e-9
0.250, -7.938e-9
0.249, -7.888e-9
0.248, -7.856e-9
0.247, -7.887e-9
0.246, -7.802e-9
0.245, -7.838e-9
0.244, -7.790e-9
0.243, -7.759e-9
0.242, -7.797e-9
0.241, -7.704e-9
0.240, -7.748e-9
0.239, -7.700e-9
0.238, -7.669e-9
0.237, -7.706e-9
0.236, -7.617e-9
0.235, -7.663e-9
0.234, -7.615e-9
0.233, -7.584e-9
0.232, -7.624e-9
0.231, -7.528e-9
0.230, -7.576e-9
0.229, -7.533e-9
0.228, -7.495e-9
0.227, -7.540e-9
0.226, -7.449e-9
0.225, -7.495e-9
0.224, -7.453e-9
0.223, -7.416e-9
0.222, -7.459e-9
0.221, -7.373e-9
0.220, -7.414e-9
0.219, -7.374e-9
0.218, -7.339e-9
0.217, -7.379e-9
0.216, -7.292e-9
0.215, -7.333e-9
0.214, -7.293e-9
0.213, -7.257e-9
0.212, -7.300e-9
0.211, -7.208e-9
0.210, -7.256e-9
0.209, -7.210e-9
0.208, -7.177e-9
0.207, -7.214e-9
0.206, -7.129e-9
0.205, -7.170e-9
0.204, -7.121e-9
0.203, -7.097e-9
0.202, -7.134e-9
0.201, -7.047e-9
0.200, -7.093e-9
0.199, -7.048e-9
0.198, -7.019e-9
0.197, -7.058e-9
0.196, -6.965e-9
0.195, -7.016e-9
0.194, -6.969e-9
0.193, -6.937e-9
0.192, -6.975e-9
0.191, -6.885e-9
0.190, -6.928e-9
0.189, -6.885e-9
0.188, -6.851e-9
0.187, -6.892e-9
0.186, -6.803e-9
0.185, -6.845e-9
0.184, -6.801e-9
0.183, -6.761e-9
0.182, -6.805e-9
0.181, -6.709e-9
0.180, -6.750e-9
0.179, -6.707e-9
0.178, -6.672e-9
0.177, -6.708e-9
0.176, -6.621e-9
0.175, -6.655e-9
0.174, -6.613e-9
0.173, -6.575e-9
0.172, -6.611e-9
0.171, -6.519e-9
0.170, -6.556e-9
0.169, -6.510e-9
0.168, -6.469e-9
0.167, -6.500e-9
0.166, -6.408e-9
0.165, -6.445e-9
0.164, -6.392e-9
0.163, -6.356e-9
0.162, -6.385e-9
0.161, -6.286e-9
0.160, -6.323e-9
0.159, -6.266e-9
0.158, -6.225e-9
0.157, -6.255e-9
0.156, -6.150e-9
0.155, -6.186e-9
0.154, -6.127e-9
0.153, -6.083e-9
0.152, -6.113e-9
0.151, -6.005e-9
0.150, -6.038e-9
0.149, -5.978e-9
0.148, -5.925e-9
0.147, -5.953e-9
0.146, -5.843e-9
0.145, -5.870e-9
0.144, -5.807e-9
0.143, -5.746e-9
0.142, -5.769e-9
0.141, -5.655e-9
0.140, -5.670e-9
0.139, -5.609e-9
0.138, -5.548e-9
0.137, -5.561e-9
0.136, -5.442e-9
0.135, -5.452e-9
0.134, -5.385e-9
0.133, -5.313e-9
0.132, -5.316e-9
0.131, -5.200e-9
0.130, -5.202e-9
0.129, -5.120e-9
0.128, -5.043e-9
0.127, -5.042e-9
0.126, -4.915e-9
0.125, -4.910e-9
0.124, -4.820e-9
0.123, -4.740e-9
0.122, -4.728e-9
0.121, -4.588e-9
0.120, -4.578e-9
0.119, -4.478e-9
0.118, -4.389e-9
0.117, -4.363e-9
0.116, -4.210e-9
0.115, -4.190e-9
0.114, -4.077e-9
0.113, -3.971e-9
0.112, -3.942e-9
0.111, -3.774e-9
0.110, -3.740e-9
0.109, -3.615e-9
0.108, -3.498e-9
0.107, -3.455e-9
0.106, -3.277e-9
0.105, -3.229e-9
0.104, -3.092e-9
0.103, -2.949e-9
0.102, -2.886e-9
0.101, -2.698e-9
0.100, -2.626e-9
0.099, -2.478e-9
0.098, -2.326e-9
0.097, -2.250e-9
0.096, -2.040e-9
0.095, -1.949e-9
0.094, -1.787e-9
0.093, -1.613e-9
0.092, -1.515e-9
0.091, -1.291e-9
0.090, -1.180e-9
0.089, -9.930e-10
0.088, -8.083e-10
0.087, -6.892e-10
0.086, -4.498e-10
0.085, -3.226e-10
0.084, -1.098e-10
0.083, 9.040e-11
0.082, 2.331e-10
0.081, 4.948e-10
0.080, 6.407e-10
0.079, 8.751e-10
0.078, 1.096e-9
0.077, 1.254e-9
0.076, 1.542e-9
0.075, 1.694e-9
0.074, 1.940e-9
0.073, 2.180e-9
0.072, 2.344e-9
0.071, 2.647e-9
0.070, 2.813e-9
0.069, 3.067e-9
0.068, 3.330e-9
0.067, 3.506e-9
0.066, 3.817e-9
0.065, 4.002e-9
0.064, 4.263e-9
0.063, 4.528e-9
0.062, 4.712e-9
0.061, 5.025e-9
0.060, 5.221e-9
0.059, 5.481e-9
0.058, 5.755e-9
0.057, 5.937e-9
0.056, 6.242e-9
0.055, 6.445e-9
0.054, 6.693e-9
0.053, 6.964e-9
0.052, 7.150e-9
0.051, 7.450e-9
0.050, 7.634e-9
0.049, 7.880e-9
0.048, 8.128e-9
0.047, 8.298e-9
0.046, 8.586e-9
0.045, 8.759e-9
0.044, 8.988e-9
0.043, 9.212e-9
0.042, 9.370e-9
0.041, 9.631e-9
0.040, 9.772e-9
0.039, 9.991e-9
0.038, 1.019e-8
0.037, 1.031e-8
0.036, 1.055e-8
0.035, 1.066e-8
0.034, 1.084e-8
0.033, 1.101e-8
0.032, 1.110e-8
0.031, 1.132e-8
0.030, 1.139e-8
0.029, 1.154e-8
0.028, 1.169e-8
0.027, 1.174e-8
0.026, 1.193e-8
0.025, 1.198e-8
0.024, 1.208e-8
0.023, 1.219e-8
0.022, 1.221e-8
0.021, 1.235e-8
0.020, 1.237e-8
0.019, 1.244e-8
0.018, 1.253e-8
0.017, 1.251e-8
0.016, 1.262e-8
0.015, 1.261e-8
0.014, 1.266e-8
0.013, 1.271e-8
0.012, 1.268e-8
0.011, 1.276e-8
0.010, 1.272e-8
0.009, 1.274e-8
0.008, 1.277e-8
0.007, 1.271e-8
0.006, 1.276e-8
0.005, 1.270e-8
0.004, 1.271e-8
0.003, 1.270e-8
0.002, 1.263e-8
0.001, 1.267e-8
0.000, 1.263e-8
-0.001, 1.261e-8
-0.002, 1.258e-8
-0.003, 1.247e-8
-0.004, 1.250e-8
-0.005, 1.239e-8
-0.006, 1.237e-8
-0.007, 1.234e-8
-0.008, 1.224e-8
-0.009, 1.226e-8
-0.010, 1.215e-8
-0.011, 1.211e-8
-0.012, 1.208e-8
-0.013, 1.196e-8
-0.014, 1.197e-8
-0.015, 1.186e-8
-0.016, 1.181e-8
-0.017, 1.178e-8
-0.018, 1.165e-8
-0.019, 1.165e-8
-0.020, 1.154e-8
-0.021, 1.149e-8
-0.022, 1.144e-8
-0.023, 1.132e-8
-0.024, 1.133e-8
-0.025, 1.121e-8
-0.026, 1.116e-8
-0.027, 1.112e-8
-0.028, 1.099e-8
-0.029, 1.099e-8
-0.030, 1.087e-8
-0.031, 1.083e-8
-0.032, 1.079e-8
-0.033, 1.067e-8
-0.034, 1.067e-8
-0.035, 1.055e-8
-0.036, 1.051e-8
-0.037, 1.046e-8
-0.038, 1.034e-8
-0.039, 1.035e-8
-0.040, 1.023e-8
-0.041, 1.019e-8
-0.042, 1.015e-8
-0.043, 1.003e-8
-0.044, 1.005e-8
-0.045, 9.930e-9
-0.046, 9.894e-9
-0.047, 9.859e-9
-0.048, 9.742e-9
-0.049, 9.758e-9
-0.050, 9.645e-9
-0.051, 9.613e-9
-0.052, 9.586e-9
-0.053, 9.470e-9
-0.054, 9.490e-9
-0.055, 9.382e-9
-0.056, 9.345e-9
-0.057, 9.323e-9
-0.058, 9.211e-9
-0.059, 9.233e-9
-0.060, 9.131e-9
-0.061, 9.100e-9
-0.062, 9.077e-9
-0.063, 8.970e-9
-0.064, 8.997e-9
-0.065, 8.898e-9
-0.066, 8.869e-9
-0.067, 8.851e-9
-0.068, 8.748e-9
-0.069, 8.774e-9
-0.070, 8.678e-9
-0.071, 8.654e-9
-0.072, 8.638e-9
-0.073, 8.536e-9
-0.074, 8.568e-9
-0.075, 8.472e-9
-0.076, 8.454e-9
-0.077, 8.438e-9
-0.078, 8.340e-9
-0.079, 8.376e-9
-0.080, 8.283e-9
-0.081, 8.269e-9
-0.082, 8.258e-9
-0.083, 8.164e-9
-0.084, 8.207e-9
-0.085, 8.115e-9
-0.086, 8.100e-9
-0.087, 8.093e-9
-0.088, 8.000e-9
-0.089, 8.047e-9
-0.090, 7.957e-9
-0.091, 7.944e-9
-0.092, 7.945e-9
-0.093, 7.849e-9
-0.094, 7.893e-9
-0.095, 7.812e-9
-0.096, 7.801e-9
-0.097, 7.801e-9
-0.098, 7.712e-9
-0.099, 7.759e-9
-0.100, 7.677e-9
-0.101, 7.667e-9
-0.102, 7.675e-9
-0.103, 7.587e-9
-0.104, 7.633e-9
-0.105, 7.556e-9
-0.106, 7.546e-9
-0.107, 7.552e-9
-0.108, 7.467e-9
-0.109, 7.514e-9
-0.110, 7.436e-9
-0.111, 7.433e-9
-0.112, 7.438e-9
-0.113, 7.358e-9
-0.114, 7.407e-9
-0.115, 7.330e-9
-0.116, 7.332e-9
-0.117, 7.333e-9
-0.118, 7.254e-9
-0.119, 7.307e-9
-0.120, 7.235e-9
-0.121, 7.235e-9
-0.122, 7.240e-9
-0.123, 7.161e-9
-0.124, 7.218e-9
-0.125, 7.144e-9
-0.126, 7.147e-9
-0.127, 7.156e-9
-0.128, 7.078e-9
-0.129, 7.135e-9
-0.130, 7.059e-9
-0.131, 7.060e-9
-0.132, 7.077e-9
-0.133, 6.993e-9
-0.134, 7.054e-9
-0.135, 6.984e-9
-0.136, 6.984e-9
-0.137, 6.998e-9
-0.138, 6.920e-9
-0.139, 6.981e-9
-0.140, 6.915e-9
-0.141, 6.914e-9
-0.142, 6.931e-9
-0.143, 6.854e-9
-0.144, 6.912e-9
-0.145, 6.847e-9
-0.146, 6.848e-9
-0.147, 6.864e-9
-0.148, 6.795e-9
-0.149, 6.850e-9
-0.150, 6.786e-9
-0.151, 6.789e-9
-0.152, 6.805e-9
-0.153, 6.736e-9
-0.154, 6.796e-9
-0.155, 6.731e-9
-0.156, 6.740e-9
-0.157, 6.752e-9
-0.158, 6.684e-9
-0.159, 6.743e-9
-0.160, 6.677e-9
-0.161, 6.688e-9
-0.162, 6.703e-9
-0.163, 6.632e-9
-0.164, 6.697e-9
-0.165, 6.632e-9
-0.166, 6.641e-9
-0.167, 6.663e-9
-0.168, 6.588e-9
-0.169, 6.656e-9
-0.170, 6.591e-9
-0.171, 6.599e-9
-0.172, 6.623e-9
-0.173, 6.548e-9
-0.174, 6.613e-9
-0.175, 6.556e-9
-0.176, 6.561e-9
-0.177, 6.588e-9
-0.178, 6.515e-9
-0.179, 6.584e-9
-0.180, 6.527e-9
-0.181, 6.527e-9
-0.182, 6.554e-9
-0.183, 6.486e-9
-0.184, 6.552e-9
-0.185, 6.495e-9
-0.186, 6.502e-9
-0.187, 6.527e-9
-0.188, 6.462e-9
-0.189, 6.525e-9
-0.190, 6.470e-9
-0.191, 6.482e-9
-0.192, 6.504e-9
-0.193, 6.445e-9
-0.194, 6.504e-9
-0.195, 6.449e-9
-0.196, 6.462e-9
-0.197, 6.485e-9
-0.198, 6.423e-9
-0.199, 6.490e-9
