Mar. 16, 2023   09:03:01
Cyclic Voltammetry
File: c:/users/oliverrz/desktop/electrolab/data/2023_03_16\fcmeoh_macros_250_um\electrode8_cv_250mvs_250_um.bin
Data Source:  Experiment
Instrument Model:  CHI760E
Header: CV
Note: 

Init E (V) = -0.2
High E (V) = 0.3
Low E (V) = -0.2
Final E (V) = -0.2
Init P/N = P
Scan Rate (V/s) = 0.25
Segment = 3
Sample Interval (V) = 0.001
Quiet Time (sec) = 2
Sensitivity (A/V) = 1e-7

Results:

Channel 1:
Segment 1:
Ep = 0.062V
ip = -2.299e-8A
Ah = -5.450e-9C

Segment 2:
Ep = -0.001V
ip = 2.459e-8A
Ah = 6.365e-9C

Segment 3:

Potential/V, Current/A

-0.200, 6.498e-9
-0.199, 5.237e-9
-0.198, 4.898e-9
-0.197, 4.529e-9
-0.196, 4.437e-9
-0.195, 4.529e-9
-0.194, 4.375e-9
-0.193, 4.006e-9
-0.192, 3.945e-9
-0.191, 4.037e-9
-0.190, 3.945e-9
-0.189, 3.668e-9
-0.188, 3.483e-9
-0.187, 3.637e-9
-0.186, 3.606e-9
-0.185, 3.299e-9
-0.184, 3.145e-9
-0.183, 3.237e-9
-0.182, 3.268e-9
-0.181, 3.053e-9
-0.180, 2.806e-9
-0.179, 2.899e-9
-0.178, 2.960e-9
-0.177, 2.745e-9
-0.176, 2.530e-9
-0.175, 2.560e-9
-0.174, 2.653e-9
-0.173, 2.530e-9
-0.172, 2.253e-9
-0.171, 2.253e-9
-0.170, 2.437e-9
-0.169, 2.253e-9
-0.168, 2.037e-9
-0.167, 1.945e-9
-0.166, 2.130e-9
-0.165, 2.068e-9
-0.164, 1.760e-9
-0.163, 1.668e-9
-0.162, 1.822e-9
-0.161, 1.822e-9
-0.160, 1.637e-9
-0.159, 1.391e-9
-0.158, 1.576e-9
-0.157, 1.637e-9
-0.156, 1.360e-9
-0.155, 1.207e-9
-0.154, 1.268e-9
-0.153, 1.391e-9
-0.152, 1.207e-9
-0.151, 9.605e-10
-0.150, 1.022e-9
-0.149, 1.176e-9
-0.148, 1.022e-9
-0.147, 7.759e-10
-0.146, 8.067e-10
-0.145, 9.605e-10
-0.144, 8.682e-10
-0.143, 5.913e-10
-0.142, 5.298e-10
-0.141, 7.452e-10
-0.140, 6.529e-10
-0.139, 4.375e-10
-0.138, 3.452e-10
-0.137, 4.683e-10
-0.136, 5.298e-10
-0.135, 2.837e-10
-0.134, 1.299e-10
-0.133, 2.837e-10
-0.132, 3.452e-10
-0.131, 1.299e-10
-0.130, -5.472e-11
-0.129, 3.758e-11
-0.128, 1.606e-10
-0.127, -2.395e-11
-0.126, -2.393e-10
-0.125, -1.470e-10
-0.124, -2.395e-11
-0.123, -1.470e-10
-0.122, -3.931e-10
-0.121, -4.239e-10
-0.120, -1.778e-10
-0.119, -3.008e-10
-0.118, -5.470e-10
-0.117, -5.777e-10
-0.116, -4.239e-10
-0.115, -4.239e-10
-0.114, -7.008e-10
-0.113, -7.931e-10
-0.112, -5.777e-10
-0.111, -6.085e-10
-0.110, -8.238e-10
-0.109, -9.469e-10
-0.108, -8.238e-10
-0.107, -7.315e-10
-0.106, -9.469e-10
-0.105, -1.162e-9
-0.104, -1.008e-9
-0.103, -9.161e-10
-0.102, -1.101e-9
-0.101, -1.316e-9
-0.100, -1.255e-9
-0.099, -1.101e-9
-0.098, -1.224e-9
-0.097, -1.470e-9
-0.096, -1.470e-9
-0.095, -1.285e-9
-0.094, -1.378e-9
-0.093, -1.593e-9
-0.092, -1.685e-9
-0.091, -1.501e-9
-0.090, -1.501e-9
-0.089, -1.808e-9
-0.088, -1.870e-9
-0.087, -1.716e-9
-0.086, -1.716e-9
-0.085, -1.901e-9
-0.084, -2.116e-9
-0.083, -1.931e-9
-0.082, -1.870e-9
-0.081, -2.147e-9
-0.080, -2.270e-9
-0.079, -2.208e-9
-0.078, -2.116e-9
-0.077, -2.270e-9
-0.076, -2.547e-9
-0.075, -2.454e-9
-0.074, -2.331e-9
-0.073, -2.485e-9
-0.072, -2.731e-9
-0.071, -2.762e-9
-0.070, -2.577e-9
-0.069, -2.701e-9
-0.068, -2.977e-9
-0.067, -3.039e-9
-0.066, -2.854e-9
-0.065, -2.947e-9
-0.064, -3.193e-9
-0.063, -3.347e-9
-0.062, -3.193e-9
-0.061, -3.193e-9
-0.060, -3.470e-9
-0.059, -3.654e-9
-0.058, -3.562e-9
-0.057, -3.531e-9
-0.056, -3.747e-9
-0.055, -3.993e-9
-0.054, -3.931e-9
-0.053, -3.870e-9
-0.052, -4.116e-9
-0.051, -4.393e-9
-0.050, -4.393e-9
-0.049, -4.270e-9
-0.048, -4.485e-9
-0.047, -4.793e-9
-0.046, -4.854e-9
-0.045, -4.731e-9
-0.044, -4.916e-9
-0.043, -5.254e-9
-0.042, -5.346e-9
-0.041, -5.254e-9
-0.040, -5.346e-9
-0.039, -5.715e-9
-0.038, -5.931e-9
-0.037, -5.808e-9
-0.036, -5.931e-9
-0.035, -6.239e-9
-0.034, -6.515e-9
-0.033, -6.515e-9
-0.032, -6.515e-9
-0.031, -6.885e-9
-0.030, -7.192e-9
-0.029, -7.223e-9
-0.028, -7.285e-9
-0.027, -7.531e-9
-0.026, -7.931e-9
-0.025, -8.054e-9
-0.024, -8.023e-9
-0.023, -8.361e-9
-0.022, -8.730e-9
-0.021, -8.915e-9
-0.020, -8.915e-9
-0.019, -9.192e-9
-0.018, -9.653e-9
-0.017, -9.869e-9
-0.016, -9.869e-9
-0.015, -1.015e-8
-0.014, -1.061e-8
-0.013, -1.095e-8
-0.012, -1.098e-8
-0.011, -1.119e-8
-0.010, -1.165e-8
-0.009, -1.205e-8
-0.008, -1.215e-8
-0.007, -1.233e-8
-0.006, -1.282e-8
-0.005, -1.322e-8
-0.004, -1.344e-8
-0.003, -1.356e-8
-0.002, -1.405e-8
-0.001, -1.455e-8
-0.000, -1.498e-8
0.001, -1.501e-8
0.002, -1.541e-8
0.003, -1.593e-8
0.004, -1.627e-8
0.005, -1.639e-8
0.006, -1.676e-8
0.007, -1.734e-8
0.008, -1.768e-8
0.009, -1.787e-8
0.010, -1.821e-8
0.011, -1.876e-8
0.012, -1.922e-8
0.013, -1.934e-8
0.014, -1.965e-8
0.015, -2.024e-8
0.016, -2.067e-8
0.017, -2.091e-8
0.018, -2.116e-8
0.019, -2.165e-8
0.020, -2.224e-8
0.021, -2.239e-8
0.022, -2.264e-8
0.023, -2.313e-8
0.024, -2.362e-8
0.025, -2.396e-8
0.026, -2.405e-8
0.027, -2.448e-8
0.028, -2.504e-8
0.029, -2.525e-8
0.030, -2.541e-8
0.031, -2.577e-8
0.032, -2.624e-8
0.033, -2.657e-8
0.034, -2.664e-8
0.035, -2.691e-8
0.036, -2.737e-8
0.037, -2.768e-8
0.038, -2.774e-8
0.039, -2.796e-8
0.040, -2.833e-8
0.041, -2.867e-8
0.042, -2.873e-8
0.043, -2.879e-8
0.044, -2.916e-8
0.045, -2.947e-8
0.046, -2.950e-8
0.047, -2.953e-8
0.048, -2.977e-8
0.049, -3.011e-8
0.050, -3.017e-8
0.051, -3.005e-8
0.052, -3.030e-8
0.053, -3.051e-8
0.054, -3.060e-8
0.055, -3.048e-8
0.056, -3.054e-8
0.057, -3.085e-8
0.058, -3.085e-8
0.059, -3.067e-8
0.060, -3.076e-8
0.061, -3.088e-8
0.062, -3.100e-8
0.063, -3.079e-8
0.064, -3.073e-8
0.065, -3.091e-8
0.066, -3.094e-8
0.067, -3.076e-8
0.068, -3.060e-8
0.069, -3.070e-8
0.070, -3.082e-8
0.071, -3.064e-8
0.072, -3.039e-8
0.073, -3.048e-8
0.074, -3.054e-8
0.075, -3.039e-8
0.076, -3.014e-8
0.077, -3.011e-8
0.078, -3.020e-8
0.079, -3.011e-8
0.080, -2.974e-8
0.081, -2.971e-8
0.082, -2.980e-8
0.083, -2.968e-8
0.084, -2.937e-8
0.085, -2.925e-8
0.086, -2.931e-8
0.087, -2.928e-8
0.088, -2.894e-8
0.089, -2.876e-8
0.090, -2.882e-8
0.091, -2.879e-8
0.092, -2.854e-8
0.093, -2.827e-8
0.094, -2.827e-8
0.095, -2.833e-8
0.096, -2.802e-8
0.097, -2.774e-8
0.098, -2.777e-8
0.099, -2.777e-8
0.100, -2.759e-8
0.101, -2.725e-8
0.102, -2.722e-8
0.103, -2.731e-8
0.104, -2.710e-8
0.105, -2.679e-8
0.106, -2.670e-8
0.107, -2.676e-8
0.108, -2.670e-8
0.109, -2.630e-8
0.110, -2.617e-8
0.111, -2.627e-8
0.112, -2.617e-8
0.113, -2.590e-8
0.114, -2.568e-8
0.115, -2.574e-8
0.116, -2.577e-8
0.117, -2.544e-8
0.118, -2.525e-8
0.119, -2.528e-8
0.120, -2.528e-8
0.121, -2.507e-8
0.122, -2.479e-8
0.123, -2.479e-8
0.124, -2.488e-8
0.125, -2.470e-8
0.126, -2.439e-8
0.127, -2.439e-8
0.128, -2.448e-8
0.129, -2.433e-8
0.130, -2.402e-8
0.131, -2.396e-8
0.132, -2.408e-8
0.133, -2.399e-8
0.134, -2.365e-8
0.135, -2.359e-8
0.136, -2.365e-8
0.137, -2.365e-8
0.138, -2.337e-8
0.139, -2.319e-8
0.140, -2.331e-8
0.141, -2.334e-8
0.142, -2.310e-8
0.143, -2.291e-8
0.144, -2.291e-8
0.145, -2.304e-8
0.146, -2.285e-8
0.147, -2.254e-8
0.148, -2.264e-8
0.149, -2.273e-8
0.150, -2.257e-8
0.151, -2.233e-8
0.152, -2.230e-8
0.153, -2.248e-8
0.154, -2.236e-8
0.155, -2.205e-8
0.156, -2.208e-8
0.157, -2.217e-8
0.158, -2.214e-8
0.159, -2.187e-8
0.160, -2.177e-8
0.161, -2.193e-8
0.162, -2.196e-8
0.163, -2.168e-8
0.164, -2.156e-8
0.165, -2.165e-8
0.166, -2.177e-8
0.167, -2.153e-8
0.168, -2.134e-8
0.169, -2.147e-8
0.170, -2.156e-8
0.171, -2.137e-8
0.172, -2.119e-8
0.173, -2.125e-8
0.174, -2.137e-8
0.175, -2.128e-8
0.176, -2.101e-8
0.177, -2.107e-8
0.178, -2.125e-8
0.179, -2.113e-8
0.180, -2.091e-8
0.181, -2.091e-8
0.182, -2.107e-8
0.183, -2.110e-8
0.184, -2.079e-8
0.185, -2.076e-8
0.186, -2.091e-8
0.187, -2.094e-8
0.188, -2.073e-8
0.189, -2.061e-8
0.190, -2.076e-8
0.191, -2.091e-8
0.192, -2.067e-8
0.193, -2.054e-8
0.194, -2.067e-8
0.195, -2.076e-8
0.196, -2.070e-8
0.197, -2.045e-8
0.198, -2.054e-8
0.199, -2.076e-8
0.200, -2.061e-8
0.201, -2.042e-8
0.202, -2.048e-8
0.203, -2.067e-8
0.204, -2.064e-8
0.205, -2.039e-8
0.206, -2.042e-8
0.207, -2.061e-8
0.208, -2.061e-8
0.209, -2.039e-8
0.210, -2.036e-8
0.211, -2.054e-8
0.212, -2.064e-8
0.213, -2.039e-8
0.214, -2.033e-8
0.215, -2.051e-8
0.216, -2.064e-8
0.217, -2.045e-8
0.218, -2.036e-8
0.219, -2.048e-8
0.220, -2.067e-8
0.221, -2.051e-8
0.222, -2.036e-8
0.223, -2.048e-8
0.224, -2.067e-8
0.225, -2.061e-8
0.226, -2.045e-8
0.227, -2.045e-8
0.228, -2.073e-8
0.229, -2.070e-8
0.230, -2.048e-8
0.231, -2.054e-8
0.232, -2.073e-8
0.233, -2.079e-8
0.234, -2.058e-8
0.235, -2.054e-8
0.236, -2.082e-8
0.237, -2.085e-8
0.238, -2.070e-8
0.239, -2.067e-8
0.240, -2.082e-8
0.241, -2.101e-8
0.242, -2.082e-8
0.243, -2.073e-8
0.244, -2.094e-8
0.245, -2.110e-8
0.246, -2.101e-8
0.247, -2.085e-8
0.248, -2.097e-8
0.249, -2.125e-8
0.250, -2.116e-8
0.251, -2.101e-8
0.252, -2.110e-8
0.253, -2.134e-8
0.254, -2.134e-8
0.255, -2.116e-8
0.256, -2.122e-8
0.257, -2.147e-8
0.258, -2.153e-8
0.259, -2.134e-8
0.260, -2.137e-8
0.261, -2.159e-8
0.262, -2.171e-8
0.263, -2.156e-8
0.264, -2.150e-8
0.265, -2.174e-8
0.266, -2.190e-8
0.267, -2.174e-8
0.268, -2.171e-8
0.269, -2.190e-8
0.270, -2.211e-8
0.271, -2.202e-8
0.272, -2.187e-8
0.273, -2.205e-8
0.274, -2.233e-8
0.275, -2.227e-8
0.276, -2.214e-8
0.277, -2.224e-8
0.278, -2.251e-8
0.279, -2.254e-8
0.280, -2.236e-8
0.281, -2.245e-8
0.282, -2.273e-8
0.283, -2.279e-8
0.284, -2.267e-8
0.285, -2.267e-8
0.286, -2.291e-8
0.287, -2.307e-8
0.288, -2.291e-8
0.289, -2.291e-8
0.290, -2.316e-8
0.291, -2.334e-8
0.292, -2.322e-8
0.293, -2.316e-8
0.294, -2.341e-8
0.295, -2.362e-8
0.296, -2.356e-8
0.297, -2.347e-8
0.298, -2.365e-8
0.299, -2.390e-8
0.300, -2.104e-8
0.299, -1.701e-8
0.298, -1.624e-8
0.297, -1.584e-8
0.296, -1.541e-8
0.295, -1.470e-8
0.294, -1.439e-8
0.293, -1.430e-8
0.292, -1.396e-8
0.291, -1.356e-8
0.290, -1.322e-8
0.289, -1.319e-8
0.288, -1.307e-8
0.287, -1.261e-8
0.286, -1.239e-8
0.285, -1.236e-8
0.284, -1.230e-8
0.283, -1.196e-8
0.282, -1.162e-8
0.281, -1.165e-8
0.280, -1.168e-8
0.279, -1.138e-8
0.278, -1.110e-8
0.277, -1.107e-8
0.276, -1.113e-8
0.275, -1.098e-8
0.274, -1.061e-8
0.273, -1.055e-8
0.272, -1.067e-8
0.271, -1.051e-8
0.270, -1.018e-8
0.269, -1.015e-8
0.268, -1.021e-8
0.267, -1.018e-8
0.266, -9.869e-9
0.265, -9.715e-9
0.264, -9.869e-9
0.263, -9.838e-9
0.262, -9.561e-9
0.261, -9.407e-9
0.260, -9.469e-9
0.259, -9.561e-9
0.258, -9.315e-9
0.257, -9.100e-9
0.256, -9.223e-9
0.255, -9.223e-9
0.254, -9.100e-9
0.253, -8.854e-9
0.252, -8.854e-9
0.251, -9.069e-9
0.250, -8.884e-9
0.249, -8.607e-9
0.248, -8.638e-9
0.247, -8.761e-9
0.246, -8.730e-9
0.245, -8.423e-9
0.244, -8.392e-9
0.243, -8.546e-9
0.242, -8.515e-9
0.241, -8.269e-9
0.240, -8.177e-9
0.239, -8.300e-9
0.238, -8.361e-9
0.237, -8.115e-9
0.236, -7.961e-9
0.235, -8.115e-9
0.234, -8.177e-9
0.233, -7.961e-9
0.232, -7.777e-9
0.231, -7.900e-9
0.230, -8.023e-9
0.229, -7.869e-9
0.228, -7.623e-9
0.227, -7.715e-9
0.226, -7.838e-9
0.225, -7.715e-9
0.224, -7.500e-9
0.223, -7.500e-9
0.222, -7.684e-9
0.221, -7.654e-9
0.220, -7.346e-9
0.219, -7.346e-9
0.218, -7.500e-9
0.217, -7.500e-9
0.216, -7.285e-9
0.215, -7.161e-9
0.214, -7.346e-9
0.213, -7.408e-9
0.212, -7.131e-9
0.211, -7.069e-9
0.210, -7.161e-9
0.209, -7.285e-9
0.208, -7.100e-9
0.207, -6.885e-9
0.206, -7.008e-9
0.205, -7.131e-9
0.204, -6.977e-9
0.203, -6.792e-9
0.202, -6.823e-9
0.201, -7.008e-9
0.200, -6.915e-9
0.199, -6.669e-9
0.198, -6.700e-9
0.197, -6.854e-9
0.196, -6.823e-9
0.195, -6.577e-9
0.194, -6.546e-9
0.193, -6.731e-9
0.192, -6.731e-9
0.191, -6.485e-9
0.190, -6.392e-9
0.189, -6.577e-9
0.188, -6.608e-9
0.187, -6.423e-9
0.186, -6.269e-9
0.185, -6.392e-9
0.184, -6.546e-9
0.183, -6.300e-9
0.182, -6.146e-9
0.181, -6.269e-9
0.180, -6.392e-9
0.179, -6.239e-9
0.178, -6.023e-9
0.177, -6.085e-9
0.176, -6.269e-9
0.175, -6.146e-9
0.174, -5.900e-9
0.173, -5.962e-9
0.172, -6.115e-9
0.171, -6.085e-9
0.170, -5.808e-9
0.169, -5.746e-9
0.168, -5.992e-9
0.167, -5.931e-9
0.166, -5.715e-9
0.165, -5.623e-9
0.164, -5.777e-9
0.163, -5.869e-9
0.162, -5.592e-9
0.161, -5.469e-9
0.160, -5.654e-9
0.159, -5.685e-9
0.158, -5.531e-9
0.157, -5.316e-9
0.156, -5.408e-9
0.155, -5.562e-9
0.154, -5.377e-9
0.153, -5.192e-9
0.152, -5.223e-9
0.151, -5.377e-9
0.150, -5.285e-9
0.149, -5.008e-9
0.148, -5.039e-9
0.147, -5.192e-9
0.146, -5.131e-9
0.145, -4.823e-9
0.144, -4.823e-9
0.143, -4.977e-9
0.142, -4.946e-9
0.141, -4.700e-9
0.140, -4.577e-9
0.139, -4.762e-9
0.138, -4.793e-9
0.137, -4.485e-9
0.136, -4.393e-9
0.135, -4.454e-9
0.134, -4.546e-9
0.133, -4.331e-9
0.132, -4.085e-9
0.131, -4.208e-9
0.130, -4.300e-9
0.129, -4.116e-9
0.128, -3.870e-9
0.127, -3.839e-9
0.126, -4.023e-9
0.125, -3.839e-9
0.124, -3.562e-9
0.123, -3.593e-9
0.122, -3.654e-9
0.121, -3.562e-9
0.120, -3.285e-9
0.119, -3.162e-9
0.118, -3.316e-9
0.117, -3.224e-9
0.116, -2.916e-9
0.115, -2.762e-9
0.114, -2.854e-9
0.113, -2.854e-9
0.112, -2.547e-9
0.111, -2.331e-9
0.110, -2.393e-9
0.109, -2.424e-9
0.108, -2.116e-9
0.107, -1.839e-9
0.106, -1.870e-9
0.105, -1.901e-9
0.104, -1.655e-9
0.103, -1.285e-9
0.102, -1.255e-9
0.101, -1.316e-9
0.100, -1.070e-9
0.099, -7.623e-10
0.098, -6.085e-10
0.097, -6.700e-10
0.096, -4.854e-10
0.095, -5.472e-11
0.094, 9.911e-11
0.093, 6.834e-11
0.092, 2.529e-10
0.091, 6.529e-10
0.090, 8.990e-10
0.089, 9.298e-10
0.088, 1.022e-9
0.087, 1.484e-9
0.086, 1.791e-9
0.085, 1.822e-9
0.084, 1.945e-9
0.083, 2.283e-9
0.082, 2.745e-9
0.081, 2.868e-9
0.080, 2.899e-9
0.079, 3.329e-9
0.078, 3.729e-9
0.077, 3.945e-9
0.076, 4.037e-9
0.075, 4.345e-9
0.074, 4.868e-9
0.073, 5.114e-9
0.072, 5.175e-9
0.071, 5.575e-9
0.070, 6.037e-9
0.069, 6.375e-9
0.068, 6.498e-9
0.067, 6.744e-9
0.066, 7.360e-9
0.065, 7.698e-9
0.064, 7.883e-9
0.063, 8.160e-9
0.062, 8.683e-9
0.061, 9.144e-9
0.060, 9.329e-9
0.059, 9.544e-9
0.058, 1.007e-8
0.057, 1.059e-8
0.056, 1.077e-8
0.055, 1.102e-8
0.054, 1.148e-8
0.053, 1.204e-8
0.052, 1.231e-8
0.051, 1.250e-8
0.050, 1.293e-8
0.049, 1.354e-8
0.048, 1.379e-8
0.047, 1.404e-8
0.046, 1.437e-8
0.045, 1.493e-8
0.044, 1.533e-8
0.043, 1.548e-8
0.042, 1.582e-8
0.041, 1.637e-8
0.040, 1.671e-8
0.039, 1.696e-8
0.038, 1.714e-8
0.037, 1.770e-8
0.036, 1.810e-8
0.035, 1.819e-8
0.034, 1.847e-8
0.033, 1.887e-8
0.032, 1.930e-8
0.031, 1.951e-8
0.030, 1.954e-8
0.029, 1.997e-8
0.028, 2.040e-8
0.027, 2.053e-8
0.026, 2.065e-8
0.025, 2.090e-8
0.024, 2.133e-8
0.023, 2.148e-8
0.022, 2.148e-8
0.021, 2.167e-8
0.020, 2.207e-8
0.019, 2.222e-8
0.018, 2.222e-8
0.017, 2.231e-8
0.016, 2.265e-8
0.015, 2.283e-8
0.014, 2.277e-8
0.013, 2.277e-8
0.012, 2.308e-8
0.011, 2.323e-8
0.010, 2.317e-8
0.009, 2.308e-8
0.008, 2.330e-8
0.007, 2.354e-8
0.006, 2.339e-8
0.005, 2.323e-8
0.004, 2.342e-8
0.003, 2.354e-8
0.002, 2.354e-8
0.001, 2.336e-8
0.000, 2.351e-8
-0.001, 2.367e-8
-0.002, 2.351e-8
-0.003, 2.330e-8
-0.004, 2.327e-8
-0.005, 2.342e-8
-0.006, 2.339e-8
-0.007, 2.314e-8
-0.008, 2.302e-8
-0.009, 2.317e-8
-0.010, 2.311e-8
-0.011, 2.290e-8
-0.012, 2.274e-8
-0.013, 2.280e-8
-0.014, 2.287e-8
-0.015, 2.262e-8
-0.016, 2.237e-8
-0.017, 2.247e-8
-0.018, 2.250e-8
-0.019, 2.225e-8
-0.020, 2.200e-8
-0.021, 2.200e-8
-0.022, 2.210e-8
-0.023, 2.185e-8
-0.024, 2.157e-8
-0.025, 2.154e-8
-0.026, 2.167e-8
-0.027, 2.148e-8
-0.028, 2.117e-8
-0.029, 2.105e-8
-0.030, 2.117e-8
-0.031, 2.108e-8
-0.032, 2.077e-8
-0.033, 2.059e-8
-0.034, 2.071e-8
-0.035, 2.065e-8
-0.036, 2.037e-8
-0.037, 2.016e-8
-0.038, 2.025e-8
-0.039, 2.025e-8
-0.040, 1.994e-8
-0.041, 1.976e-8
-0.042, 1.979e-8
-0.043, 1.982e-8
-0.044, 1.963e-8
-0.045, 1.927e-8
-0.046, 1.933e-8
-0.047, 1.945e-8
-0.048, 1.920e-8
-0.049, 1.893e-8
-0.050, 1.890e-8
-0.051, 1.902e-8
-0.052, 1.890e-8
-0.053, 1.856e-8
-0.054, 1.850e-8
-0.055, 1.865e-8
-0.056, 1.853e-8
-0.057, 1.828e-8
-0.058, 1.810e-8
-0.059, 1.828e-8
-0.060, 1.822e-8
-0.061, 1.794e-8
-0.062, 1.779e-8
-0.063, 1.788e-8
-0.064, 1.794e-8
-0.065, 1.770e-8
-0.066, 1.748e-8
-0.067, 1.754e-8
-0.068, 1.764e-8
-0.069, 1.745e-8
-0.070, 1.720e-8
-0.071, 1.724e-8
-0.072, 1.739e-8
-0.073, 1.724e-8
-0.074, 1.696e-8
-0.075, 1.696e-8
-0.076, 1.714e-8
-0.077, 1.702e-8
-0.078, 1.674e-8
-0.079, 1.671e-8
-0.080, 1.687e-8
-0.081, 1.687e-8
-0.082, 1.659e-8
-0.083, 1.647e-8
-0.084, 1.668e-8
-0.085, 1.665e-8
-0.086, 1.647e-8
-0.087, 1.628e-8
-0.088, 1.644e-8
-0.089, 1.653e-8
-0.090, 1.631e-8
-0.091, 1.613e-8
-0.092, 1.628e-8
-0.093, 1.634e-8
-0.094, 1.622e-8
-0.095, 1.600e-8
-0.096, 1.607e-8
-0.097, 1.625e-8
-0.098, 1.610e-8
-0.099, 1.588e-8
-0.100, 1.594e-8
-0.101, 1.613e-8
-0.102, 1.607e-8
-0.103, 1.582e-8
-0.104, 1.579e-8
-0.105, 1.604e-8
-0.106, 1.597e-8
-0.107, 1.579e-8
-0.108, 1.573e-8
-0.109, 1.588e-8
-0.110, 1.597e-8
-0.111, 1.576e-8
-0.112, 1.564e-8
-0.113, 1.582e-8
-0.114, 1.591e-8
-0.115, 1.576e-8
-0.116, 1.560e-8
-0.117, 1.573e-8
-0.118, 1.591e-8
-0.119, 1.576e-8
-0.120, 1.557e-8
-0.121, 1.570e-8
-0.122, 1.588e-8
-0.123, 1.579e-8
-0.124, 1.560e-8
-0.125, 1.564e-8
-0.126, 1.588e-8
-0.127, 1.585e-8
-0.128, 1.564e-8
-0.129, 1.567e-8
-0.130, 1.588e-8
-0.131, 1.585e-8
-0.132, 1.573e-8
-0.133, 1.564e-8
-0.134, 1.585e-8
-0.135, 1.594e-8
-0.136, 1.576e-8
-0.137, 1.570e-8
-0.138, 1.588e-8
-0.139, 1.600e-8
-0.140, 1.588e-8
-0.141, 1.570e-8
-0.142, 1.591e-8
-0.143, 1.610e-8
-0.144, 1.597e-8
-0.145, 1.585e-8
-0.146, 1.591e-8
-0.147, 1.616e-8
-0.148, 1.610e-8
-0.149, 1.591e-8
-0.150, 1.600e-8
-0.151, 1.622e-8
-0.152, 1.622e-8
-0.153, 1.607e-8
-0.154, 1.607e-8
-0.155, 1.631e-8
-0.156, 1.637e-8
-0.157, 1.622e-8
-0.158, 1.616e-8
-0.159, 1.644e-8
-0.160, 1.650e-8
-0.161, 1.637e-8
-0.162, 1.628e-8
-0.163, 1.653e-8
-0.164, 1.671e-8
-0.165, 1.656e-8
-0.166, 1.647e-8
-0.167, 1.665e-8
-0.168, 1.687e-8
-0.169, 1.677e-8
-0.170, 1.662e-8
-0.171, 1.674e-8
-0.172, 1.705e-8
-0.173, 1.696e-8
-0.174, 1.684e-8
-0.175, 1.693e-8
-0.176, 1.717e-8
-0.177, 1.724e-8
-0.178, 1.705e-8
-0.179, 1.711e-8
-0.180, 1.739e-8
-0.181, 1.742e-8
-0.182, 1.733e-8
-0.183, 1.730e-8
-0.184, 1.754e-8
-0.185, 1.773e-8
-0.186, 1.757e-8
-0.187, 1.754e-8
-0.188, 1.779e-8
-0.189, 1.794e-8
-0.190, 1.788e-8
-0.191, 1.776e-8
-0.192, 1.800e-8
-0.193, 1.825e-8
-0.194, 1.816e-8
-0.195, 1.807e-8
-0.196, 1.822e-8
-0.197, 1.850e-8
-0.198, 1.853e-8
-0.199, 1.834e-8
