Mar. 16, 2023   08:53:27
Cyclic Voltammetry
File: c:/users/oliverrz/desktop/electrolab/data/2023_03_16\fcmeoh_macros_250_um\electrode1_cv_150mvs_250_um.bin
Data Source:  Experiment
Instrument Model:  CHI760E
Header: CV
Note: 

Init E (V) = -0.2
High E (V) = 0.3
Low E (V) = -0.2
Final E (V) = -0.2
Init P/N = P
Scan Rate (V/s) = 0.15
Segment = 3
Sample Interval (V) = 0.001
Quiet Time (sec) = 2
Sensitivity (A/V) = 1e-7

Results:

Channel 1:
Segment 1:
Ep = 0.113V
ip = -2.066e-8A
Ah = -8.759e-9C

Segment 2:
Ep = 0.046V
ip = 1.866e-8A
Ah = 7.959e-9C

Segment 3:

Potential/V, Current/A

-0.200, 3.636e-9
-0.199, 3.066e-9
-0.198, 3.065e-9
-0.197, 2.816e-9
-0.196, 2.950e-9
-0.195, 2.758e-9
-0.194, 2.735e-9
-0.193, 2.782e-9
-0.192, 2.543e-9
-0.191, 2.728e-9
-0.190, 2.535e-9
-0.189, 2.513e-9
-0.188, 2.600e-9
-0.187, 2.348e-9
-0.186, 2.536e-9
-0.185, 2.360e-9
-0.184, 2.346e-9
-0.183, 2.426e-9
-0.182, 2.194e-9
-0.181, 2.375e-9
-0.180, 2.198e-9
-0.179, 2.197e-9
-0.178, 2.271e-9
-0.177, 2.037e-9
-0.176, 2.241e-9
-0.175, 2.056e-9
-0.174, 2.034e-9
-0.173, 2.155e-9
-0.172, 1.903e-9
-0.171, 2.083e-9
-0.170, 1.949e-9
-0.169, 1.901e-9
-0.168, 2.017e-9
-0.167, 1.793e-9
-0.166, 1.960e-9
-0.165, 1.813e-9
-0.164, 1.806e-9
-0.163, 1.885e-9
-0.162, 1.676e-9
-0.161, 1.849e-9
-0.160, 1.707e-9
-0.159, 1.685e-9
-0.158, 1.780e-9
-0.157, 1.557e-9
-0.156, 1.748e-9
-0.155, 1.591e-9
-0.154, 1.586e-9
-0.153, 1.669e-9
-0.152, 1.467e-9
-0.151, 1.653e-9
-0.150, 1.487e-9
-0.149, 1.498e-9
-0.148, 1.586e-9
-0.147, 1.358e-9
-0.146, 1.566e-9
-0.145, 1.396e-9
-0.144, 1.405e-9
-0.143, 1.505e-9
-0.142, 1.268e-9
-0.141, 1.477e-9
-0.140, 1.321e-9
-0.139, 1.316e-9
-0.138, 1.417e-9
-0.137, 1.194e-9
-0.136, 1.388e-9
-0.135, 1.249e-9
-0.134, 1.232e-9
-0.133, 1.341e-9
-0.132, 1.115e-9
-0.131, 1.312e-9
-0.130, 1.164e-9
-0.129, 1.143e-9
-0.128, 1.258e-9
-0.127, 1.038e-9
-0.126, 1.224e-9
-0.125, 1.090e-9
-0.124, 1.076e-9
-0.123, 1.174e-9
-0.122, 9.741e-10
-0.121, 1.152e-9
-0.120, 1.009e-9
-0.119, 1.023e-9
-0.118, 1.099e-9
-0.117, 8.995e-10
-0.116, 1.097e-9
-0.115, 9.352e-10
-0.114, 9.454e-10
-0.113, 1.042e-9
-0.112, 8.288e-10
-0.111, 1.034e-9
-0.110, 8.710e-10
-0.109, 8.874e-10
-0.108, 9.801e-10
-0.107, 7.683e-10
-0.106, 9.730e-10
-0.105, 8.098e-10
-0.104, 8.384e-10
-0.103, 9.144e-10
-0.102, 7.013e-10
-0.101, 9.237e-10
-0.100, 7.506e-10
-0.099, 7.700e-10
-0.098, 8.738e-10
-0.097, 6.398e-10
-0.096, 8.676e-10
-0.095, 7.130e-10
-0.094, 6.903e-10
-0.093, 8.272e-10
-0.092, 5.937e-10
-0.091, 7.934e-10
-0.090, 6.532e-10
-0.089, 6.492e-10
-0.088, 7.559e-10
-0.087, 5.546e-10
-0.086, 7.356e-10
-0.085, 5.893e-10
-0.084, 6.099e-10
-0.083, 6.942e-10
-0.082, 4.818e-10
-0.081, 6.893e-10
-0.080, 5.383e-10
-0.079, 5.446e-10
-0.078, 6.446e-10
-0.077, 4.262e-10
-0.076, 6.218e-10
-0.075, 4.847e-10
-0.074, 4.854e-10
-0.073, 5.747e-10
-0.072, 3.821e-10
-0.071, 5.790e-10
-0.070, 4.064e-10
-0.069, 4.467e-10
-0.068, 5.203e-10
-0.067, 3.030e-10
-0.066, 5.322e-10
-0.065, 3.484e-10
-0.064, 3.671e-10
-0.063, 4.739e-10
-0.062, 2.410e-10
-0.061, 4.555e-10
-0.060, 2.994e-10
-0.059, 2.993e-10
-0.058, 4.007e-10
-0.057, 1.775e-10
-0.056, 3.851e-10
-0.055, 2.239e-10
-0.054, 2.260e-10
-0.053, 3.268e-10
-0.052, 9.802e-11
-0.051, 3.119e-10
-0.050, 1.489e-10
-0.049, 1.376e-10
-0.048, 2.605e-10
-0.047, 2.847e-11
-0.046, 2.172e-10
-0.045, 7.843e-11
-0.044, 5.323e-11
-0.043, 1.588e-10
-0.042, -5.608e-11
-0.041, 1.155e-10
-0.040, -3.243e-11
-0.039, -3.421e-11
-0.038, 3.150e-11
-0.037, -1.663e-10
-0.036, 1.361e-11
-0.035, -1.656e-10
-0.034, -1.468e-10
-0.033, -8.602e-11
-0.032, -2.964e-10
-0.031, -1.126e-10
-0.030, -2.945e-10
-0.029, -2.870e-10
-0.028, -2.246e-10
-0.027, -4.466e-10
-0.026, -2.662e-10
-0.025, -4.489e-10
-0.024, -4.521e-10
-0.023, -3.789e-10
-0.022, -6.247e-10
-0.021, -4.380e-10
-0.020, -6.199e-10
-0.019, -6.453e-10
-0.018, -5.655e-10
-0.017, -8.237e-10
-0.016, -6.347e-10
-0.015, -8.307e-10
-0.014, -8.659e-10
-0.013, -7.984e-10
-0.012, -1.051e-9
-0.011, -8.847e-10
-0.010, -1.079e-9
-0.009, -1.121e-9
-0.008, -1.062e-9
-0.007, -1.318e-9
-0.006, -1.172e-9
-0.005, -1.368e-9
-0.004, -1.421e-9
-0.003, -1.373e-9
-0.002, -1.643e-9
-0.001, -1.516e-9
-0.000, -1.796e-9
0.001, -1.795e-9
0.002, -1.775e-9
0.003, -2.028e-9
0.004, -1.916e-9
0.005, -2.146e-9
0.006, -2.198e-9
0.007, -2.214e-9
0.008, -2.472e-9
0.009, -2.369e-9
0.010, -2.627e-9
0.011, -2.697e-9
0.012, -2.710e-9
0.013, -3.019e-9
0.014, -2.914e-9
0.015, -3.196e-9
0.016, -3.277e-9
0.017, -3.303e-9
0.018, -3.631e-9
0.019, -3.550e-9
0.020, -3.829e-9
0.021, -3.947e-9
0.022, -3.995e-9
0.023, -4.339e-9
0.024, -4.273e-9
0.025, -4.604e-9
0.026, -4.726e-9
0.027, -4.795e-9
0.028, -5.174e-9
0.029, -5.120e-9
0.030, -5.459e-9
0.031, -5.635e-9
0.032, -5.690e-9
0.033, -6.094e-9
0.034, -6.107e-9
0.035, -6.419e-9
0.036, -6.629e-9
0.037, -6.749e-9
0.038, -7.137e-9
0.039, -7.184e-9
0.040, -7.545e-9
0.041, -7.731e-9
0.042, -7.914e-9
0.043, -8.314e-9
0.044, -8.362e-9
0.045, -8.756e-9
0.046, -8.980e-9
0.047, -9.156e-9
0.048, -9.588e-9
0.049, -9.645e-9
0.050, -1.007e-8
0.051, -1.032e-8
0.052, -1.051e-8
0.053, -1.095e-8
0.054, -1.105e-8
0.055, -1.148e-8
0.056, -1.170e-8
0.057, -1.192e-8
0.058, -1.240e-8
0.059, -1.246e-8
0.060, -1.292e-8
0.061, -1.317e-8
0.062, -1.336e-8
0.063, -1.387e-8
0.064, -1.393e-8
0.065, -1.438e-8
0.066, -1.465e-8
0.067, -1.481e-8
0.068, -1.530e-8
0.069, -1.538e-8
0.070, -1.581e-8
0.071, -1.606e-8
0.072, -1.624e-8
0.073, -1.670e-8
0.074, -1.677e-8
0.075, -1.718e-8
0.076, -1.740e-8
0.077, -1.758e-8
0.078, -1.800e-8
0.079, -1.806e-8
0.080, -1.842e-8
0.081, -1.861e-8
0.082, -1.877e-8
0.083, -1.914e-8
0.084, -1.917e-8
0.085, -1.950e-8
0.086, -1.966e-8
0.087, -1.979e-8
0.088, -2.012e-8
0.089, -2.011e-8
0.090, -2.043e-8
0.091, -2.054e-8
0.092, -2.061e-8
0.093, -2.092e-8
0.094, -2.086e-8
0.095, -2.114e-8
0.096, -2.120e-8
0.097, -2.123e-8
0.098, -2.152e-8
0.099, -2.140e-8
0.100, -2.165e-8
0.101, -2.168e-8
0.102, -2.169e-8
0.103, -2.192e-8
0.104, -2.177e-8
0.105, -2.196e-8
0.106, -2.197e-8
0.107, -2.191e-8
0.108, -2.213e-8
0.109, -2.192e-8
0.110, -2.209e-8
0.111, -2.210e-8
0.112, -2.196e-8
0.113, -2.215e-8
0.114, -2.198e-8
0.115, -2.207e-8
0.116, -2.203e-8
0.117, -2.192e-8
0.118, -2.205e-8
0.119, -2.184e-8
0.120, -2.193e-8
0.121, -2.184e-8
0.122, -2.174e-8
0.123, -2.185e-8
0.124, -2.159e-8
0.125, -2.169e-8
0.126, -2.159e-8
0.127, -2.145e-8
0.128, -2.158e-8
0.129, -2.129e-8
0.130, -2.138e-8
0.131, -2.126e-8
0.132, -2.112e-8
0.133, -2.120e-8
0.134, -2.093e-8
0.135, -2.102e-8
0.136, -2.086e-8
0.137, -2.072e-8
0.138, -2.084e-8
0.139, -2.052e-8
0.140, -2.062e-8
0.141, -2.049e-8
0.142, -2.030e-8
0.143, -2.044e-8
0.144, -2.012e-8
0.145, -2.018e-8
0.146, -2.008e-8
0.147, -1.990e-8
0.148, -2.001e-8
0.149, -1.971e-8
0.150, -1.977e-8
0.151, -1.968e-8
0.152, -1.948e-8
0.153, -1.959e-8
0.154, -1.931e-8
0.155, -1.938e-8
0.156, -1.927e-8
0.157, -1.910e-8
0.158, -1.920e-8
0.159, -1.894e-8
0.160, -1.898e-8
0.161, -1.888e-8
0.162, -1.874e-8
0.163, -1.883e-8
0.164, -1.856e-8
0.165, -1.864e-8
0.166, -1.852e-8
0.167, -1.838e-8
0.168, -1.849e-8
0.169, -1.819e-8
0.170, -1.831e-8
0.171, -1.819e-8
0.172, -1.804e-8
0.173, -1.817e-8
0.174, -1.789e-8
0.175, -1.799e-8
0.176, -1.788e-8
0.177, -1.773e-8
0.178, -1.787e-8
0.179, -1.761e-8
0.180, -1.769e-8
0.181, -1.760e-8
0.182, -1.745e-8
0.183, -1.759e-8
0.184, -1.731e-8
0.185, -1.743e-8
0.186, -1.734e-8
0.187, -1.719e-8
0.188, -1.734e-8
0.189, -1.707e-8
0.190, -1.719e-8
0.191, -1.710e-8
0.192, -1.696e-8
0.193, -1.711e-8
0.194, -1.686e-8
0.195, -1.695e-8
0.196, -1.689e-8
0.197, -1.676e-8
0.198, -1.689e-8
0.199, -1.667e-8
0.200, -1.677e-8
0.201, -1.668e-8
0.202, -1.659e-8
0.203, -1.673e-8
0.204, -1.648e-8
0.205, -1.662e-8
0.206, -1.653e-8
0.207, -1.643e-8
0.208, -1.657e-8
0.209, -1.633e-8
0.210, -1.647e-8
0.211, -1.638e-8
0.212, -1.628e-8
0.213, -1.644e-8
0.214, -1.619e-8
0.215, -1.634e-8
0.216, -1.625e-8
0.217, -1.615e-8
0.218, -1.633e-8
0.219, -1.606e-8
0.220, -1.622e-8
0.221, -1.615e-8
0.222, -1.603e-8
0.223, -1.623e-8
0.224, -1.596e-8
0.225, -1.611e-8
0.226, -1.607e-8
0.227, -1.595e-8
0.228, -1.612e-8
0.229, -1.589e-8
0.230, -1.603e-8
0.231, -1.598e-8
0.232, -1.588e-8
0.233, -1.604e-8
0.234, -1.582e-8
0.235, -1.596e-8
0.236, -1.590e-8
0.237, -1.581e-8
0.238, -1.599e-8
0.239, -1.577e-8
0.240, -1.590e-8
0.241, -1.586e-8
0.242, -1.576e-8
0.243, -1.594e-8
0.244, -1.573e-8
0.245, -1.586e-8
0.246, -1.581e-8
0.247, -1.574e-8
0.248, -1.589e-8
0.249, -1.569e-8
0.250, -1.585e-8
0.251, -1.577e-8
0.252, -1.571e-8
0.253, -1.588e-8
0.254, -1.566e-8
0.255, -1.583e-8
0.256, -1.578e-8
0.257, -1.568e-8
0.258, -1.589e-8
0.259, -1.565e-8
0.260, -1.582e-8
0.261, -1.578e-8
0.262, -1.569e-8
0.263, -1.588e-8
0.264, -1.566e-8
0.265, -1.583e-8
0.266, -1.579e-8
0.267, -1.569e-8
0.268, -1.590e-8
0.269, -1.569e-8
0.270, -1.584e-8
0.271, -1.582e-8
0.272, -1.571e-8
0.273, -1.591e-8
0.274, -1.572e-8
0.275, -1.587e-8
0.276, -1.584e-8
0.277, -1.577e-8
0.278, -1.595e-8
0.279, -1.576e-8
0.280, -1.591e-8
0.281, -1.588e-8
0.282, -1.583e-8
0.283, -1.600e-8
0.284, -1.580e-8
0.285, -1.598e-8
0.286, -1.593e-8
0.287, -1.587e-8
0.288, -1.606e-8
0.289, -1.585e-8
0.290, -1.605e-8
0.291, -1.600e-8
0.292, -1.593e-8
0.293, -1.613e-8
0.294, -1.594e-8
0.295, -1.612e-8
0.296, -1.606e-8
0.297, -1.602e-8
0.298, -1.622e-8
0.299, -1.601e-8
0.300, -1.360e-8
0.299, -1.190e-8
0.298, -1.142e-8
0.297, -1.129e-8
0.296, -1.081e-8
0.295, -1.077e-8
0.294, -1.053e-8
0.293, -1.029e-8
0.292, -1.031e-8
0.291, -9.980e-9
0.290, -9.997e-9
0.289, -9.824e-9
0.288, -9.650e-9
0.287, -9.717e-9
0.286, -9.402e-9
0.285, -9.483e-9
0.284, -9.315e-9
0.283, -9.183e-9
0.282, -9.271e-9
0.281, -8.964e-9
0.280, -9.080e-9
0.279, -8.941e-9
0.278, -8.792e-9
0.277, -8.924e-9
0.276, -8.612e-9
0.275, -8.740e-9
0.274, -8.627e-9
0.273, -8.475e-9
0.272, -8.621e-9
0.271, -8.338e-9
0.270, -8.451e-9
0.269, -8.348e-9
0.268, -8.204e-9
0.267, -8.366e-9
0.266, -8.094e-9
0.265, -8.202e-9
0.264, -8.112e-9
0.263, -7.982e-9
0.262, -8.129e-9
0.261, -7.878e-9
0.260, -7.969e-9
0.259, -7.906e-9
0.258, -7.792e-9
0.257, -7.907e-9
0.256, -7.672e-9
0.255, -7.790e-9
0.254, -7.695e-9
0.253, -7.608e-9
0.252, -7.727e-9
0.251, -7.498e-9
0.250, -7.631e-9
0.249, -7.520e-9
0.248, -7.432e-9
0.247, -7.580e-9
0.246, -7.317e-9
0.245, -7.464e-9
0.244, -7.367e-9
0.243, -7.256e-9
0.242, -7.426e-9
0.241, -7.156e-9
0.240, -7.305e-9
0.239, -7.216e-9
0.238, -7.113e-9
0.237, -7.262e-9
0.236, -7.004e-9
0.235, -7.164e-9
0.234, -7.059e-9
0.233, -6.957e-9
0.232, -7.121e-9
0.231, -6.852e-9
0.230, -7.005e-9
0.229, -6.930e-9
0.228, -6.795e-9
0.227, -6.979e-9
0.226, -6.730e-9
0.225, -6.848e-9
0.224, -6.783e-9
0.223, -6.679e-9
0.222, -6.818e-9
0.221, -6.589e-9
0.220, -6.708e-9
0.219, -6.634e-9
0.218, -6.533e-9
0.217, -6.670e-9
0.216, -6.434e-9
0.215, -6.578e-9
0.214, -6.480e-9
0.213, -6.389e-9
0.212, -6.522e-9
0.211, -6.292e-9
0.210, -6.426e-9
0.209, -6.322e-9
0.208, -6.242e-9
0.207, -6.377e-9
0.206, -6.124e-9
0.205, -6.264e-9
0.204, -6.159e-9
0.203, -6.077e-9
0.202, -6.221e-9
0.201, -5.950e-9
0.200, -6.098e-9
0.199, -6.009e-9
0.198, -5.897e-9
0.197, -6.049e-9
0.196, -5.782e-9
0.195, -5.925e-9
0.194, -5.828e-9
0.193, -5.709e-9
0.192, -5.846e-9
0.191, -5.590e-9
0.190, -5.731e-9
0.189, -5.625e-9
0.188, -5.500e-9
0.187, -5.652e-9
0.186, -5.390e-9
0.185, -5.505e-9
0.184, -5.409e-9
0.183, -5.278e-9
0.182, -5.428e-9
0.181, -5.150e-9
0.180, -5.255e-9
0.179, -5.165e-9
0.178, -5.032e-9
0.177, -5.148e-9
0.176, -4.897e-9
0.175, -4.998e-9
0.174, -4.878e-9
0.173, -4.774e-9
0.172, -4.848e-9
0.171, -4.594e-9
0.170, -4.712e-9
0.169, -4.539e-9
0.168, -4.445e-9
0.167, -4.531e-9
0.166, -4.232e-9
0.165, -4.354e-9
0.164, -4.190e-9
0.163, -4.062e-9
0.162, -4.162e-9
0.161, -3.840e-9
0.160, -3.947e-9
0.159, -3.789e-9
0.158, -3.640e-9
0.157, -3.712e-9
0.156, -3.401e-9
0.155, -3.490e-9
0.154, -3.317e-9
0.153, -3.191e-9
0.152, -3.224e-9
0.151, -2.887e-9
0.150, -2.957e-9
0.149, -2.769e-9
0.148, -2.564e-9
0.147, -2.644e-9
0.146, -2.311e-9
0.145, -2.320e-9
0.144, -2.150e-9
0.143, -1.938e-9
0.142, -1.963e-9
0.141, -1.616e-9
0.140, -1.615e-9
0.139, -1.420e-9
0.138, -1.210e-9
0.137, -1.193e-9
0.136, -8.369e-10
0.135, -8.406e-10
0.134, -6.004e-10
0.133, -3.658e-10
0.132, -3.398e-10
0.131, 4.414e-11
0.130, 7.119e-11
0.129, 3.482e-10
0.128, 6.020e-10
0.127, 6.389e-10
0.126, 1.064e-9
0.125, 1.096e-9
0.124, 1.403e-9
0.123, 1.665e-9
0.122, 1.721e-9
0.121, 2.180e-9
0.120, 2.230e-9
0.119, 2.549e-9
0.118, 2.848e-9
0.117, 2.920e-9
0.116, 3.406e-9
0.115, 3.480e-9
0.114, 3.799e-9
0.113, 4.127e-9
0.112, 4.219e-9
0.111, 4.718e-9
0.110, 4.811e-9
0.109, 5.152e-9
0.108, 5.500e-9
0.107, 5.599e-9
0.106, 6.105e-9
0.105, 6.232e-9
0.104, 6.589e-9
0.103, 6.945e-9
0.102, 7.072e-9
0.101, 7.564e-9
0.100, 7.716e-9
0.099, 8.029e-9
0.098, 8.401e-9
0.097, 8.552e-9
0.096, 9.032e-9
0.095, 9.172e-9
0.094, 9.536e-9
0.093, 9.849e-9
0.092, 1.004e-8
0.091, 1.048e-8
0.090, 1.060e-8
0.089, 1.100e-8
0.088, 1.128e-8
0.087, 1.140e-8
0.086, 1.188e-8
0.085, 1.196e-8
0.084, 1.232e-8
0.083, 1.260e-8
0.082, 1.269e-8
0.081, 1.315e-8
0.080, 1.322e-8
0.079, 1.353e-8
0.078, 1.380e-8
0.077, 1.387e-8
0.076, 1.429e-8
0.075, 1.431e-8
0.074, 1.458e-8
0.073, 1.482e-8
0.072, 1.483e-8
0.071, 1.523e-8
0.070, 1.522e-8
0.069, 1.545e-8
0.068, 1.568e-8
0.067, 1.561e-8
0.066, 1.597e-8
0.065, 1.595e-8
0.064, 1.613e-8
0.063, 1.630e-8
0.062, 1.624e-8
0.061, 1.653e-8
0.060, 1.647e-8
0.059, 1.659e-8
0.058, 1.671e-8
0.057, 1.664e-8
0.056, 1.689e-8
0.055, 1.678e-8
0.054, 1.688e-8
0.053, 1.696e-8
0.052, 1.685e-8
0.051, 1.706e-8
0.050, 1.691e-8
0.049, 1.701e-8
0.048, 1.702e-8
0.047, 1.690e-8
0.046, 1.708e-8
0.045, 1.687e-8
0.044, 1.697e-8
0.043, 1.696e-8
0.042, 1.677e-8
0.041, 1.697e-8
0.040, 1.674e-8
0.039, 1.679e-8
0.038, 1.679e-8
0.037, 1.657e-8
0.036, 1.674e-8
0.035, 1.649e-8
0.034, 1.651e-8
0.033, 1.652e-8
0.032, 1.627e-8
0.031, 1.642e-8
0.030, 1.618e-8
0.029, 1.618e-8
0.028, 1.616e-8
0.027, 1.591e-8
0.026, 1.606e-8
0.025, 1.581e-8
0.024, 1.581e-8
0.023, 1.577e-8
0.022, 1.553e-8
0.021, 1.567e-8
0.020, 1.542e-8
0.019, 1.539e-8
0.018, 1.537e-8
0.017, 1.513e-8
0.016, 1.524e-8
0.015, 1.500e-8
0.014, 1.499e-8
0.013, 1.494e-8
0.012, 1.472e-8
0.011, 1.482e-8
0.010, 1.457e-8
0.009, 1.459e-8
0.008, 1.453e-8
0.007, 1.428e-8
0.006, 1.444e-8
0.005, 1.415e-8
0.004, 1.417e-8
0.003, 1.413e-8
0.002, 1.388e-8
0.001, 1.403e-8
0.000, 1.385e-8
-0.001, 1.378e-8
-0.002, 1.375e-8
-0.003, 1.351e-8
-0.004, 1.366e-8
-0.005, 1.339e-8
-0.006, 1.340e-8
-0.007, 1.338e-8
-0.008, 1.313e-8
-0.009, 1.329e-8
-0.010, 1.304e-8
-0.011, 1.304e-8
-0.012, 1.304e-8
-0.013, 1.278e-8
-0.014, 1.295e-8
-0.015, 1.271e-8
-0.016, 1.270e-8
-0.017, 1.270e-8
-0.018, 1.248e-8
-0.019, 1.262e-8
-0.020, 1.239e-8
-0.021, 1.240e-8
-0.022, 1.239e-8
-0.023, 1.218e-8
-0.024, 1.233e-8
-0.025, 1.211e-8
-0.026, 1.213e-8
-0.027, 1.212e-8
-0.028, 1.191e-8
-0.029, 1.206e-8
-0.030, 1.183e-8
-0.031, 1.187e-8
-0.032, 1.185e-8
-0.033, 1.165e-8
-0.034, 1.182e-8
-0.035, 1.158e-8
-0.036, 1.164e-8
-0.037, 1.161e-8
-0.038, 1.141e-8
-0.039, 1.160e-8
-0.040, 1.135e-8
-0.041, 1.140e-8
-0.042, 1.141e-8
-0.043, 1.118e-8
-0.044, 1.139e-8
-0.045, 1.115e-8
-0.046, 1.119e-8
-0.047, 1.121e-8
-0.048, 1.099e-8
-0.049, 1.118e-8
-0.050, 1.097e-8
-0.051, 1.101e-8
-0.052, 1.103e-8
-0.053, 1.083e-8
-0.054, 1.100e-8
-0.055, 1.079e-8
-0.056, 1.085e-8
-0.057, 1.085e-8
-0.058, 1.065e-8
-0.059, 1.085e-8
-0.060, 1.064e-8
-0.061, 1.067e-8
-0.062, 1.071e-8
-0.063, 1.052e-8
-0.064, 1.070e-8
-0.065, 1.050e-8
-0.066, 1.054e-8
-0.067, 1.055e-8
-0.068, 1.040e-8
-0.069, 1.055e-8
-0.070, 1.034e-8
-0.071, 1.044e-8
-0.072, 1.042e-8
-0.073, 1.025e-8
-0.074, 1.046e-8
-0.075, 1.023e-8
-0.076, 1.032e-8
-0.077, 1.033e-8
-0.078, 1.013e-8
-0.079, 1.034e-8
-0.080, 1.014e-8
-0.081, 1.019e-8
-0.082, 1.022e-8
-0.083, 1.003e-8
-0.084, 1.025e-8
-0.085, 1.002e-8
-0.086, 1.010e-8
-0.087, 1.013e-8
-0.088, 9.938e-9
-0.089, 1.015e-8
-0.090, 9.947e-9
-0.091, 1.001e-8
-0.092, 1.005e-8
-0.093, 9.850e-9
-0.094, 1.006e-8
-0.095, 9.874e-9
-0.096, 9.933e-9
-0.097, 9.961e-9
-0.098, 9.798e-9
-0.099, 9.985e-9
-0.100, 9.801e-9
-0.101, 9.867e-9
-0.102, 9.896e-9
-0.103, 9.731e-9
-0.104, 9.925e-9
-0.105, 9.734e-9
-0.106, 9.808e-9
-0.107, 9.832e-9
-0.108, 9.675e-9
-0.109, 9.863e-9
-0.110, 9.679e-9
-0.111, 9.757e-9
-0.112, 9.770e-9
-0.113, 9.616e-9
-0.114, 9.817e-9
-0.115, 9.625e-9
-0.116, 9.722e-9
-0.117, 9.722e-9
-0.118, 9.566e-9
-0.119, 9.790e-9
-0.120, 9.577e-9
-0.121, 9.661e-9
-0.122, 9.700e-9
-0.123, 9.518e-9
-0.124, 9.760e-9
-0.125, 9.542e-9
-0.126, 9.617e-9
-0.127, 9.684e-9
-0.128, 9.501e-9
-0.129, 9.706e-9
-0.130, 9.538e-9
-0.131, 9.590e-9
-0.132, 9.647e-9
-0.133, 9.483e-9
-0.134, 9.667e-9
-0.135, 9.503e-9
-0.136, 9.592e-9
-0.137, 9.613e-9
-0.138, 9.456e-9
-0.139, 9.669e-9
-0.140, 9.485e-9
-0.141, 9.566e-9
-0.142, 9.608e-9
-0.143, 9.452e-9
-0.144, 9.653e-9
-0.145, 9.471e-9
-0.146, 9.565e-9
-0.147, 9.592e-9
-0.148, 9.452e-9
-0.149, 9.649e-9
-0.150, 9.464e-9
-0.151, 9.572e-9
-0.152, 9.584e-9
-0.153, 9.448e-9
-0.154, 9.664e-9
-0.155, 9.467e-9
-0.156, 9.577e-9
-0.157, 9.600e-9
-0.158, 9.445e-9
-0.159, 9.673e-9
-0.160, 9.481e-9
-0.161, 9.586e-9
-0.162, 9.617e-9
-0.163, 9.466e-9
-0.164, 9.691e-9
-0.165, 9.497e-9
-0.166, 9.601e-9
-0.167, 9.645e-9
-0.168, 9.483e-9
-0.169, 9.713e-9
-0.170, 9.527e-9
-0.171, 9.624e-9
-0.172, 9.676e-9
-0.173, 9.500e-9
-0.174, 9.740e-9
-0.175, 9.568e-9
-0.176, 9.647e-9
-0.177, 9.707e-9
-0.178, 9.563e-9
-0.179, 9.774e-9
-0.180, 9.620e-9
-0.181, 9.692e-9
-0.182, 9.737e-9
-0.183, 9.623e-9
-0.184, 9.814e-9
-0.185, 9.644e-9
-0.186, 9.770e-9
-0.187, 9.791e-9
-0.188, 9.666e-9
-0.189, 9.888e-9
-0.190, 9.699e-9
-0.191, 9.828e-9
-0.192, 9.864e-9
-0.193, 9.723e-9
-0.194, 9.956e-9
-0.195, 9.774e-9
-0.196, 9.897e-9
-0.197, 9.936e-9
-0.198, 9.795e-9
-0.199, 1.004e-8
