Mar. 16, 2023   09:01:42
Cyclic Voltammetry
File: c:/users/oliverrz/desktop/electrolab/data/2023_03_16\fcmeoh_macros_250_um\electrode7_cv_250mvs_250_um.bin
Data Source:  Experiment
Instrument Model:  CHI760E
Header: CV
Note: 

Init E (V) = -0.2
High E (V) = 0.3
Low E (V) = -0.2
Final E (V) = -0.2
Init P/N = P
Scan Rate (V/s) = 0.25
Segment = 3
Sample Interval (V) = 0.001
Quiet Time (sec) = 2
Sensitivity (A/V) = 1e-7

Results:

Channel 1:
Segment 1:
Ep = 0.064V
ip = -2.659e-8A
Ah = -6.509e-9C

Segment 2:
Ep = 0.005V
ip = 2.566e-8A
Ah = 6.126e-9C

Segment 3:

Potential/V, Current/A

-0.200, 2.437e-9
-0.199, 1.360e-9
-0.198, 1.360e-9
-0.197, 1.545e-9
-0.196, 1.422e-9
-0.195, 1.207e-9
-0.194, 1.207e-9
-0.193, 1.360e-9
-0.192, 1.360e-9
-0.191, 1.114e-9
-0.190, 1.053e-9
-0.189, 1.268e-9
-0.188, 1.237e-9
-0.187, 1.084e-9
-0.186, 9.605e-10
-0.185, 1.145e-9
-0.184, 1.237e-9
-0.183, 9.913e-10
-0.182, 8.682e-10
-0.181, 1.022e-9
-0.180, 1.145e-9
-0.179, 9.913e-10
-0.178, 7.759e-10
-0.177, 8.990e-10
-0.176, 1.084e-9
-0.175, 9.605e-10
-0.174, 7.452e-10
-0.173, 8.067e-10
-0.172, 9.913e-10
-0.171, 9.298e-10
-0.170, 7.144e-10
-0.169, 7.144e-10
-0.168, 9.298e-10
-0.167, 8.990e-10
-0.166, 6.836e-10
-0.165, 6.221e-10
-0.164, 8.375e-10
-0.163, 8.682e-10
-0.162, 6.529e-10
-0.161, 5.298e-10
-0.160, 7.452e-10
-0.159, 8.067e-10
-0.158, 6.221e-10
-0.157, 4.991e-10
-0.156, 6.221e-10
-0.155, 7.759e-10
-0.154, 6.221e-10
-0.153, 4.068e-10
-0.152, 5.298e-10
-0.151, 7.144e-10
-0.150, 5.913e-10
-0.149, 3.760e-10
-0.148, 4.375e-10
-0.147, 6.529e-10
-0.146, 5.913e-10
-0.145, 3.145e-10
-0.144, 3.760e-10
-0.143, 5.606e-10
-0.142, 5.606e-10
-0.141, 3.452e-10
-0.140, 2.529e-10
-0.139, 4.991e-10
-0.138, 4.991e-10
-0.137, 3.145e-10
-0.136, 2.222e-10
-0.135, 3.760e-10
-0.134, 4.683e-10
-0.133, 2.837e-10
-0.132, 1.299e-10
-0.131, 3.145e-10
-0.130, 4.068e-10
-0.129, 2.837e-10
-0.128, 6.834e-11
-0.127, 1.914e-10
-0.126, 3.760e-10
-0.125, 2.529e-10
-0.124, 3.758e-11
-0.123, 9.911e-11
-0.122, 2.837e-10
-0.121, 2.222e-10
-0.120, -2.395e-11
-0.119, 6.813e-12
-0.118, 1.914e-10
-0.117, 1.914e-10
-0.116, -5.472e-11
-0.115, -1.162e-10
-0.114, 1.299e-10
-0.113, 1.299e-10
-0.112, -5.472e-11
-0.111, -1.470e-10
-0.110, -2.395e-11
-0.109, 1.299e-10
-0.108, -1.162e-10
-0.107, -2.393e-10
-0.106, -8.548e-11
-0.105, 6.813e-12
-0.104, -1.162e-10
-0.103, -3.624e-10
-0.102, -2.393e-10
-0.101, -5.472e-11
-0.100, -2.085e-10
-0.099, -3.931e-10
-0.098, -3.624e-10
-0.097, -1.778e-10
-0.096, -2.085e-10
-0.095, -4.854e-10
-0.094, -4.854e-10
-0.093, -2.701e-10
-0.092, -3.316e-10
-0.091, -5.162e-10
-0.090, -6.085e-10
-0.089, -4.239e-10
-0.088, -3.931e-10
-0.087, -6.085e-10
-0.086, -7.623e-10
-0.085, -5.777e-10
-0.084, -4.854e-10
-0.083, -7.008e-10
-0.082, -8.546e-10
-0.081, -7.315e-10
-0.080, -6.393e-10
-0.079, -7.931e-10
-0.078, -1.008e-9
-0.077, -9.161e-10
-0.076, -7.931e-10
-0.075, -9.161e-10
-0.074, -1.131e-9
-0.073, -1.131e-9
-0.072, -9.469e-10
-0.071, -1.070e-9
-0.070, -1.316e-9
-0.069, -1.316e-9
-0.068, -1.162e-9
-0.067, -1.224e-9
-0.066, -1.470e-9
-0.065, -1.593e-9
-0.064, -1.378e-9
-0.063, -1.439e-9
-0.062, -1.685e-9
-0.061, -1.808e-9
-0.060, -1.716e-9
-0.059, -1.624e-9
-0.058, -1.901e-9
-0.057, -2.116e-9
-0.056, -1.993e-9
-0.055, -1.931e-9
-0.054, -2.178e-9
-0.053, -2.393e-9
-0.052, -2.393e-9
-0.051, -2.270e-9
-0.050, -2.454e-9
-0.049, -2.731e-9
-0.048, -2.731e-9
-0.047, -2.670e-9
-0.046, -2.793e-9
-0.045, -3.100e-9
-0.044, -3.193e-9
-0.043, -3.070e-9
-0.042, -3.193e-9
-0.041, -3.531e-9
-0.040, -3.654e-9
-0.039, -3.562e-9
-0.038, -3.654e-9
-0.037, -3.962e-9
-0.036, -4.208e-9
-0.035, -4.146e-9
-0.034, -4.177e-9
-0.033, -4.516e-9
-0.032, -4.793e-9
-0.031, -4.793e-9
-0.030, -4.823e-9
-0.029, -5.100e-9
-0.028, -5.439e-9
-0.027, -5.500e-9
-0.026, -5.500e-9
-0.025, -5.808e-9
-0.024, -6.177e-9
-0.023, -6.300e-9
-0.022, -6.300e-9
-0.021, -6.546e-9
-0.020, -7.008e-9
-0.019, -7.161e-9
-0.018, -7.192e-9
-0.017, -7.469e-9
-0.016, -7.869e-9
-0.015, -8.177e-9
-0.014, -8.177e-9
-0.013, -8.392e-9
-0.012, -8.884e-9
-0.011, -9.192e-9
-0.010, -9.284e-9
-0.009, -9.469e-9
-0.008, -9.900e-9
-0.007, -1.036e-8
-0.006, -1.045e-8
-0.005, -1.064e-8
-0.004, -1.110e-8
-0.003, -1.156e-8
-0.002, -1.178e-8
-0.001, -1.190e-8
-0.000, -1.251e-8
0.001, -1.295e-8
0.002, -1.319e-8
0.003, -1.331e-8
0.004, -1.371e-8
0.005, -1.427e-8
0.006, -1.458e-8
0.007, -1.473e-8
0.008, -1.513e-8
0.009, -1.568e-8
0.010, -1.611e-8
0.011, -1.621e-8
0.012, -1.661e-8
0.013, -1.713e-8
0.014, -1.759e-8
0.015, -1.781e-8
0.016, -1.802e-8
0.017, -1.864e-8
0.018, -1.910e-8
0.019, -1.928e-8
0.020, -1.956e-8
0.021, -2.005e-8
0.022, -2.054e-8
0.023, -2.085e-8
0.024, -2.097e-8
0.025, -2.150e-8
0.026, -2.202e-8
0.027, -2.227e-8
0.028, -2.245e-8
0.029, -2.279e-8
0.030, -2.334e-8
0.031, -2.365e-8
0.032, -2.374e-8
0.033, -2.411e-8
0.034, -2.457e-8
0.035, -2.488e-8
0.036, -2.497e-8
0.037, -2.522e-8
0.038, -2.565e-8
0.039, -2.599e-8
0.040, -2.605e-8
0.041, -2.624e-8
0.042, -2.660e-8
0.043, -2.691e-8
0.044, -2.700e-8
0.045, -2.700e-8
0.046, -2.737e-8
0.047, -2.768e-8
0.048, -2.771e-8
0.049, -2.771e-8
0.050, -2.796e-8
0.051, -2.827e-8
0.052, -2.833e-8
0.053, -2.820e-8
0.054, -2.839e-8
0.055, -2.867e-8
0.056, -2.870e-8
0.057, -2.857e-8
0.058, -2.864e-8
0.059, -2.885e-8
0.060, -2.894e-8
0.061, -2.876e-8
0.062, -2.876e-8
0.063, -2.894e-8
0.064, -2.900e-8
0.065, -2.882e-8
0.066, -2.876e-8
0.067, -2.885e-8
0.068, -2.900e-8
0.069, -2.873e-8
0.070, -2.857e-8
0.071, -2.870e-8
0.072, -2.873e-8
0.073, -2.864e-8
0.074, -2.836e-8
0.075, -2.836e-8
0.076, -2.851e-8
0.077, -2.833e-8
0.078, -2.805e-8
0.079, -2.802e-8
0.080, -2.808e-8
0.081, -2.802e-8
0.082, -2.765e-8
0.083, -2.759e-8
0.084, -2.771e-8
0.085, -2.759e-8
0.086, -2.728e-8
0.087, -2.710e-8
0.088, -2.719e-8
0.089, -2.716e-8
0.090, -2.682e-8
0.091, -2.664e-8
0.092, -2.670e-8
0.093, -2.667e-8
0.094, -2.639e-8
0.095, -2.614e-8
0.096, -2.614e-8
0.097, -2.617e-8
0.098, -2.596e-8
0.099, -2.559e-8
0.100, -2.562e-8
0.101, -2.568e-8
0.102, -2.547e-8
0.103, -2.516e-8
0.104, -2.507e-8
0.105, -2.516e-8
0.106, -2.504e-8
0.107, -2.464e-8
0.108, -2.457e-8
0.109, -2.461e-8
0.110, -2.451e-8
0.111, -2.421e-8
0.112, -2.402e-8
0.113, -2.414e-8
0.114, -2.408e-8
0.115, -2.374e-8
0.116, -2.359e-8
0.117, -2.359e-8
0.118, -2.362e-8
0.119, -2.334e-8
0.120, -2.310e-8
0.121, -2.316e-8
0.122, -2.319e-8
0.123, -2.294e-8
0.124, -2.267e-8
0.125, -2.267e-8
0.126, -2.279e-8
0.127, -2.257e-8
0.128, -2.227e-8
0.129, -2.227e-8
0.130, -2.236e-8
0.131, -2.221e-8
0.132, -2.190e-8
0.133, -2.184e-8
0.134, -2.196e-8
0.135, -2.190e-8
0.136, -2.159e-8
0.137, -2.144e-8
0.138, -2.159e-8
0.139, -2.156e-8
0.140, -2.128e-8
0.141, -2.110e-8
0.142, -2.119e-8
0.143, -2.125e-8
0.144, -2.097e-8
0.145, -2.079e-8
0.146, -2.085e-8
0.147, -2.094e-8
0.148, -2.073e-8
0.149, -2.048e-8
0.150, -2.051e-8
0.151, -2.067e-8
0.152, -2.048e-8
0.153, -2.024e-8
0.154, -2.024e-8
0.155, -2.036e-8
0.156, -2.027e-8
0.157, -1.996e-8
0.158, -1.993e-8
0.159, -2.008e-8
0.160, -2.002e-8
0.161, -1.978e-8
0.162, -1.968e-8
0.163, -1.981e-8
0.164, -1.984e-8
0.165, -1.956e-8
0.166, -1.944e-8
0.167, -1.956e-8
0.168, -1.959e-8
0.169, -1.941e-8
0.170, -1.919e-8
0.171, -1.931e-8
0.172, -1.944e-8
0.173, -1.922e-8
0.174, -1.904e-8
0.175, -1.910e-8
0.176, -1.925e-8
0.177, -1.910e-8
0.178, -1.885e-8
0.179, -1.888e-8
0.180, -1.904e-8
0.181, -1.898e-8
0.182, -1.870e-8
0.183, -1.870e-8
0.184, -1.885e-8
0.185, -1.882e-8
0.186, -1.858e-8
0.187, -1.848e-8
0.188, -1.867e-8
0.189, -1.870e-8
0.190, -1.845e-8
0.191, -1.836e-8
0.192, -1.848e-8
0.193, -1.858e-8
0.194, -1.839e-8
0.195, -1.818e-8
0.196, -1.833e-8
0.197, -1.842e-8
0.198, -1.827e-8
0.199, -1.811e-8
0.200, -1.814e-8
0.201, -1.833e-8
0.202, -1.821e-8
0.203, -1.796e-8
0.204, -1.805e-8
0.205, -1.818e-8
0.206, -1.814e-8
0.207, -1.787e-8
0.208, -1.787e-8
0.209, -1.808e-8
0.210, -1.805e-8
0.211, -1.781e-8
0.212, -1.774e-8
0.213, -1.793e-8
0.214, -1.799e-8
0.215, -1.774e-8
0.216, -1.762e-8
0.217, -1.781e-8
0.218, -1.790e-8
0.219, -1.771e-8
0.220, -1.756e-8
0.221, -1.768e-8
0.222, -1.784e-8
0.223, -1.768e-8
0.224, -1.747e-8
0.225, -1.759e-8
0.226, -1.774e-8
0.227, -1.762e-8
0.228, -1.744e-8
0.229, -1.747e-8
0.230, -1.765e-8
0.231, -1.762e-8
0.232, -1.738e-8
0.233, -1.738e-8
0.234, -1.759e-8
0.235, -1.756e-8
0.236, -1.734e-8
0.237, -1.728e-8
0.238, -1.747e-8
0.239, -1.756e-8
0.240, -1.731e-8
0.241, -1.725e-8
0.242, -1.741e-8
0.243, -1.750e-8
0.244, -1.734e-8
0.245, -1.719e-8
0.246, -1.731e-8
0.247, -1.750e-8
0.248, -1.731e-8
0.249, -1.716e-8
0.250, -1.725e-8
0.251, -1.741e-8
0.252, -1.738e-8
0.253, -1.710e-8
0.254, -1.719e-8
0.255, -1.741e-8
0.256, -1.731e-8
0.257, -1.716e-8
0.258, -1.713e-8
0.259, -1.734e-8
0.260, -1.738e-8
0.261, -1.710e-8
0.262, -1.710e-8
0.263, -1.728e-8
0.264, -1.734e-8
0.265, -1.716e-8
0.266, -1.707e-8
0.267, -1.725e-8
0.268, -1.734e-8
0.269, -1.719e-8
0.270, -1.704e-8
0.271, -1.722e-8
0.272, -1.738e-8
0.273, -1.722e-8
0.274, -1.707e-8
0.275, -1.716e-8
0.276, -1.738e-8
0.277, -1.728e-8
0.278, -1.707e-8
0.279, -1.716e-8
0.280, -1.734e-8
0.281, -1.734e-8
0.282, -1.713e-8
0.283, -1.710e-8
0.284, -1.738e-8
0.285, -1.734e-8
0.286, -1.716e-8
0.287, -1.716e-8
0.288, -1.731e-8
0.289, -1.744e-8
0.290, -1.722e-8
0.291, -1.713e-8
0.292, -1.738e-8
0.293, -1.747e-8
0.294, -1.728e-8
0.295, -1.719e-8
0.296, -1.734e-8
0.297, -1.753e-8
0.298, -1.741e-8
0.299, -1.722e-8
0.300, -1.559e-8
0.299, -1.359e-8
0.298, -1.310e-8
0.297, -1.261e-8
0.296, -1.248e-8
0.295, -1.248e-8
0.294, -1.227e-8
0.293, -1.193e-8
0.292, -1.178e-8
0.291, -1.187e-8
0.290, -1.178e-8
0.289, -1.144e-8
0.288, -1.131e-8
0.287, -1.141e-8
0.286, -1.141e-8
0.285, -1.110e-8
0.284, -1.091e-8
0.283, -1.107e-8
0.282, -1.107e-8
0.281, -1.082e-8
0.280, -1.067e-8
0.279, -1.070e-8
0.278, -1.082e-8
0.277, -1.061e-8
0.276, -1.036e-8
0.275, -1.045e-8
0.274, -1.055e-8
0.273, -1.042e-8
0.272, -1.018e-8
0.271, -1.018e-8
0.270, -1.036e-8
0.269, -1.024e-8
0.268, -9.992e-9
0.267, -9.961e-9
0.266, -1.011e-8
0.265, -1.011e-8
0.264, -9.838e-9
0.263, -9.776e-9
0.262, -9.930e-9
0.261, -9.961e-9
0.260, -9.715e-9
0.259, -9.592e-9
0.258, -9.746e-9
0.257, -9.807e-9
0.256, -9.592e-9
0.255, -9.438e-9
0.254, -9.561e-9
0.253, -9.684e-9
0.252, -9.500e-9
0.251, -9.315e-9
0.250, -9.407e-9
0.249, -9.530e-9
0.248, -9.438e-9
0.247, -9.161e-9
0.246, -9.223e-9
0.245, -9.438e-9
0.244, -9.315e-9
0.243, -9.100e-9
0.242, -9.069e-9
0.241, -9.253e-9
0.240, -9.253e-9
0.239, -8.977e-9
0.238, -8.946e-9
0.237, -9.130e-9
0.236, -9.130e-9
0.235, -8.915e-9
0.234, -8.823e-9
0.233, -8.977e-9
0.232, -9.069e-9
0.231, -8.823e-9
0.230, -8.700e-9
0.229, -8.823e-9
0.228, -8.946e-9
0.227, -8.823e-9
0.226, -8.577e-9
0.225, -8.700e-9
0.224, -8.884e-9
0.223, -8.700e-9
0.222, -8.515e-9
0.221, -8.577e-9
0.220, -8.761e-9
0.219, -8.700e-9
0.218, -8.423e-9
0.217, -8.454e-9
0.216, -8.638e-9
0.215, -8.607e-9
0.214, -8.361e-9
0.213, -8.331e-9
0.212, -8.515e-9
0.211, -8.546e-9
0.210, -8.331e-9
0.209, -8.207e-9
0.208, -8.361e-9
0.207, -8.454e-9
0.206, -8.238e-9
0.205, -8.115e-9
0.204, -8.238e-9
0.203, -8.392e-9
0.202, -8.238e-9
0.201, -7.992e-9
0.200, -8.146e-9
0.199, -8.269e-9
0.198, -8.177e-9
0.197, -7.961e-9
0.196, -7.961e-9
0.195, -8.207e-9
0.194, -8.115e-9
0.193, -7.869e-9
0.192, -7.900e-9
0.191, -8.023e-9
0.190, -8.054e-9
0.189, -7.808e-9
0.188, -7.746e-9
0.187, -7.961e-9
0.186, -7.961e-9
0.185, -7.746e-9
0.184, -7.654e-9
0.183, -7.808e-9
0.182, -7.900e-9
0.181, -7.684e-9
0.180, -7.500e-9
0.179, -7.654e-9
0.178, -7.808e-9
0.177, -7.623e-9
0.176, -7.438e-9
0.175, -7.500e-9
0.174, -7.715e-9
0.173, -7.561e-9
0.172, -7.346e-9
0.171, -7.377e-9
0.170, -7.561e-9
0.169, -7.500e-9
0.168, -7.254e-9
0.167, -7.223e-9
0.166, -7.438e-9
0.165, -7.408e-9
0.164, -7.161e-9
0.163, -7.100e-9
0.162, -7.285e-9
0.161, -7.315e-9
0.160, -7.069e-9
0.159, -6.946e-9
0.158, -7.100e-9
0.157, -7.192e-9
0.156, -6.946e-9
0.155, -6.792e-9
0.154, -6.946e-9
0.153, -7.038e-9
0.152, -6.885e-9
0.151, -6.638e-9
0.150, -6.731e-9
0.149, -6.915e-9
0.148, -6.731e-9
0.147, -6.515e-9
0.146, -6.546e-9
0.145, -6.700e-9
0.144, -6.638e-9
0.143, -6.300e-9
0.142, -6.331e-9
0.141, -6.485e-9
0.140, -6.454e-9
0.139, -6.208e-9
0.138, -6.085e-9
0.137, -6.269e-9
0.136, -6.269e-9
0.135, -5.962e-9
0.134, -5.900e-9
0.133, -5.992e-9
0.132, -6.054e-9
0.131, -5.808e-9
0.130, -5.592e-9
0.129, -5.715e-9
0.128, -5.777e-9
0.127, -5.562e-9
0.126, -5.346e-9
0.125, -5.377e-9
0.124, -5.500e-9
0.123, -5.316e-9
0.122, -5.039e-9
0.121, -5.008e-9
0.120, -5.162e-9
0.119, -5.008e-9
0.118, -4.700e-9
0.117, -4.639e-9
0.116, -4.762e-9
0.115, -4.669e-9
0.114, -4.331e-9
0.113, -4.208e-9
0.112, -4.331e-9
0.111, -4.239e-9
0.110, -3.931e-9
0.109, -3.747e-9
0.108, -3.777e-9
0.107, -3.808e-9
0.106, -3.470e-9
0.105, -3.224e-9
0.104, -3.254e-9
0.103, -3.224e-9
0.102, -2.947e-9
0.101, -2.639e-9
0.100, -2.608e-9
0.099, -2.670e-9
0.098, -2.362e-9
0.097, -1.993e-9
0.096, -1.931e-9
0.095, -1.931e-9
0.094, -1.716e-9
0.093, -1.316e-9
0.092, -1.101e-9
0.091, -1.162e-9
0.090, -9.469e-10
0.089, -5.162e-10
0.088, -3.008e-10
0.087, -2.393e-10
0.086, -1.162e-10
0.085, 3.452e-10
0.084, 6.529e-10
0.083, 6.836e-10
0.082, 8.990e-10
0.081, 1.268e-9
0.080, 1.668e-9
0.079, 1.791e-9
0.078, 1.914e-9
0.077, 2.345e-9
0.076, 2.776e-9
0.075, 2.929e-9
0.074, 3.053e-9
0.073, 3.483e-9
0.072, 3.945e-9
0.071, 4.191e-9
0.070, 4.345e-9
0.069, 4.683e-9
0.068, 5.237e-9
0.067, 5.514e-9
0.066, 5.637e-9
0.065, 6.037e-9
0.064, 6.560e-9
0.063, 6.960e-9
0.062, 7.083e-9
0.061, 7.360e-9
0.060, 7.975e-9
0.059, 8.375e-9
0.058, 8.590e-9
0.057, 8.867e-9
0.056, 9.359e-9
0.055, 9.913e-9
0.054, 1.007e-8
0.053, 1.034e-8
0.052, 1.087e-8
0.051, 1.139e-8
0.050, 1.167e-8
0.049, 1.185e-8
0.048, 1.228e-8
0.047, 1.290e-8
0.046, 1.311e-8
0.045, 1.333e-8
0.044, 1.373e-8
0.043, 1.428e-8
0.042, 1.462e-8
0.041, 1.477e-8
0.040, 1.511e-8
0.039, 1.570e-8
0.038, 1.597e-8
0.037, 1.613e-8
0.036, 1.640e-8
0.035, 1.690e-8
0.034, 1.730e-8
0.033, 1.742e-8
0.032, 1.760e-8
0.031, 1.804e-8
0.030, 1.844e-8
0.029, 1.853e-8
0.028, 1.865e-8
0.027, 1.902e-8
0.026, 1.945e-8
0.025, 1.954e-8
0.024, 1.957e-8
0.023, 1.985e-8
0.022, 2.022e-8
0.021, 2.031e-8
0.020, 2.034e-8
0.019, 2.047e-8
0.018, 2.087e-8
0.017, 2.096e-8
0.016, 2.087e-8
0.015, 2.102e-8
0.014, 2.133e-8
0.013, 2.142e-8
0.012, 2.136e-8
0.011, 2.133e-8
0.010, 2.163e-8
0.009, 2.176e-8
0.008, 2.154e-8
0.007, 2.154e-8
0.006, 2.170e-8
0.005, 2.188e-8
0.004, 2.173e-8
0.003, 2.154e-8
0.002, 2.173e-8
0.001, 2.185e-8
0.000, 2.185e-8
-0.001, 2.157e-8
-0.002, 2.154e-8
-0.003, 2.176e-8
-0.004, 2.160e-8
-0.005, 2.133e-8
-0.006, 2.136e-8
-0.007, 2.145e-8
-0.008, 2.136e-8
-0.009, 2.108e-8
-0.010, 2.099e-8
-0.011, 2.114e-8
-0.012, 2.105e-8
-0.013, 2.077e-8
-0.014, 2.062e-8
-0.015, 2.071e-8
-0.016, 2.068e-8
-0.017, 2.040e-8
-0.018, 2.016e-8
-0.019, 2.022e-8
-0.020, 2.025e-8
-0.021, 1.997e-8
-0.022, 1.970e-8
-0.023, 1.976e-8
-0.024, 1.979e-8
-0.025, 1.954e-8
-0.026, 1.923e-8
-0.027, 1.923e-8
-0.028, 1.930e-8
-0.029, 1.908e-8
-0.030, 1.877e-8
-0.031, 1.871e-8
-0.032, 1.877e-8
-0.033, 1.865e-8
-0.034, 1.831e-8
-0.035, 1.816e-8
-0.036, 1.828e-8
-0.037, 1.816e-8
-0.038, 1.785e-8
-0.039, 1.767e-8
-0.040, 1.773e-8
-0.041, 1.773e-8
-0.042, 1.739e-8
-0.043, 1.717e-8
-0.044, 1.727e-8
-0.045, 1.720e-8
-0.046, 1.696e-8
-0.047, 1.671e-8
-0.048, 1.671e-8
-0.049, 1.680e-8
-0.050, 1.653e-8
-0.051, 1.625e-8
-0.052, 1.625e-8
-0.053, 1.631e-8
-0.054, 1.616e-8
-0.055, 1.582e-8
-0.056, 1.579e-8
-0.057, 1.591e-8
-0.058, 1.576e-8
-0.059, 1.545e-8
-0.060, 1.536e-8
-0.061, 1.548e-8
-0.062, 1.539e-8
-0.063, 1.511e-8
-0.064, 1.496e-8
-0.065, 1.508e-8
-0.066, 1.505e-8
-0.067, 1.474e-8
-0.068, 1.459e-8
-0.069, 1.468e-8
-0.070, 1.471e-8
-0.071, 1.447e-8
-0.072, 1.422e-8
-0.073, 1.431e-8
-0.074, 1.437e-8
-0.075, 1.416e-8
-0.076, 1.394e-8
-0.077, 1.394e-8
-0.078, 1.410e-8
-0.079, 1.391e-8
-0.080, 1.360e-8
-0.081, 1.364e-8
-0.082, 1.373e-8
-0.083, 1.364e-8
-0.084, 1.336e-8
-0.085, 1.327e-8
-0.086, 1.345e-8
-0.087, 1.339e-8
-0.088, 1.311e-8
-0.089, 1.302e-8
-0.090, 1.314e-8
-0.091, 1.317e-8
-0.092, 1.293e-8
-0.093, 1.274e-8
-0.094, 1.290e-8
-0.095, 1.293e-8
-0.096, 1.271e-8
-0.097, 1.253e-8
-0.098, 1.259e-8
-0.099, 1.271e-8
-0.100, 1.253e-8
-0.101, 1.228e-8
-0.102, 1.237e-8
-0.103, 1.250e-8
-0.104, 1.237e-8
-0.105, 1.213e-8
-0.106, 1.213e-8
-0.107, 1.228e-8
-0.108, 1.222e-8
-0.109, 1.194e-8
-0.110, 1.191e-8
-0.111, 1.210e-8
-0.112, 1.204e-8
-0.113, 1.182e-8
-0.114, 1.170e-8
-0.115, 1.188e-8
-0.116, 1.191e-8
-0.117, 1.167e-8
-0.118, 1.151e-8
-0.119, 1.170e-8
-0.120, 1.176e-8
-0.121, 1.154e-8
-0.122, 1.136e-8
-0.123, 1.148e-8
-0.124, 1.164e-8
-0.125, 1.142e-8
-0.126, 1.124e-8
-0.127, 1.133e-8
-0.128, 1.142e-8
-0.129, 1.139e-8
-0.130, 1.111e-8
-0.131, 1.114e-8
-0.132, 1.133e-8
-0.133, 1.121e-8
-0.134, 1.102e-8
-0.135, 1.096e-8
-0.136, 1.117e-8
-0.137, 1.114e-8
-0.138, 1.090e-8
-0.139, 1.084e-8
-0.140, 1.102e-8
-0.141, 1.105e-8
-0.142, 1.084e-8
-0.143, 1.068e-8
-0.144, 1.087e-8
-0.145, 1.096e-8
-0.146, 1.077e-8
-0.147, 1.059e-8
-0.148, 1.074e-8
-0.149, 1.087e-8
-0.150, 1.068e-8
-0.151, 1.050e-8
-0.152, 1.059e-8
-0.153, 1.074e-8
-0.154, 1.065e-8
-0.155, 1.041e-8
-0.156, 1.047e-8
-0.157, 1.065e-8
-0.158, 1.059e-8
-0.159, 1.037e-8
-0.160, 1.034e-8
-0.161, 1.056e-8
-0.162, 1.053e-8
-0.163, 1.031e-8
-0.164, 1.025e-8
-0.165, 1.044e-8
-0.166, 1.050e-8
-0.167, 1.028e-8
-0.168, 1.013e-8
-0.169, 1.034e-8
-0.170, 1.044e-8
-0.171, 1.022e-8
-0.172, 1.010e-8
-0.173, 1.022e-8
-0.174, 1.037e-8
-0.175, 1.022e-8
-0.176, 1.001e-8
-0.177, 1.013e-8
-0.178, 1.028e-8
-0.179, 1.019e-8
-0.180, 9.975e-9
-0.181, 1.001e-8
-0.182, 1.022e-8
-0.183, 1.016e-8
-0.184, 9.944e-9
-0.185, 9.975e-9
-0.186, 1.013e-8
-0.187, 1.016e-8
-0.188, 9.913e-9
-0.189, 9.852e-9
-0.190, 1.007e-8
-0.191, 1.010e-8
-0.192, 9.913e-9
-0.193, 9.790e-9
-0.194, 9.975e-9
-0.195, 1.007e-8
-0.196, 9.913e-9
-0.197, 9.759e-9
-0.198, 9.913e-9
-0.199, 1.007e-8
