Mar. 16, 2023   08:58:16
Cyclic Voltammetry
File: c:/users/oliverrz/desktop/electrolab/data/2023_03_16\fcmeoh_macros_250_um\electrode5_cv_50mvs_250_um.bin
Data Source:  Experiment
Instrument Model:  CHI760E
Header: CV
Note: 

Init E (V) = -0.2
High E (V) = 0.3
Low E (V) = -0.2
Final E (V) = -0.2
Init P/N = P
Scan Rate (V/s) = 0.05
Segment = 3
Sample Interval (V) = 0.001
Quiet Time (sec) = 2
Sensitivity (A/V) = 1e-7

Results:

Channel 1:
Segment 1:
Ep = 0.089V
ip = -1.320e-8A
Ah = -1.737e-8C

Segment 2:
Ep = 0.013V
ip = 1.259e-8A
Ah = 1.685e-8C

Segment 3:

Potential/V, Current/A

-0.200, 3.425e-9
-0.199, 3.160e-9
-0.198, 3.100e-9
-0.197, 3.072e-9
-0.196, 3.044e-9
-0.195, 3.020e-9
-0.194, 2.991e-9
-0.193, 2.969e-9
-0.192, 2.949e-9
-0.191, 2.927e-9
-0.190, 2.906e-9
-0.189, 2.881e-9
-0.188, 2.861e-9
-0.187, 2.845e-9
-0.186, 2.827e-9
-0.185, 2.809e-9
-0.184, 2.789e-9
-0.183, 2.769e-9
-0.182, 2.758e-9
-0.181, 2.741e-9
-0.180, 2.723e-9
-0.179, 2.704e-9
-0.178, 2.687e-9
-0.177, 2.676e-9
-0.176, 2.665e-9
-0.175, 2.646e-9
-0.174, 2.630e-9
-0.173, 2.616e-9
-0.172, 2.605e-9
-0.171, 2.592e-9
-0.170, 2.578e-9
-0.169, 2.561e-9
-0.168, 2.550e-9
-0.167, 2.539e-9
-0.166, 2.528e-9
-0.165, 2.514e-9
-0.164, 2.499e-9
-0.163, 2.489e-9
-0.162, 2.478e-9
-0.161, 2.469e-9
-0.160, 2.457e-9
-0.159, 2.441e-9
-0.158, 2.430e-9
-0.157, 2.422e-9
-0.156, 2.411e-9
-0.155, 2.400e-9
-0.154, 2.386e-9
-0.153, 2.374e-9
-0.152, 2.368e-9
-0.151, 2.357e-9
-0.150, 2.347e-9
-0.149, 2.334e-9
-0.148, 2.325e-9
-0.147, 2.319e-9
-0.146, 2.310e-9
-0.145, 2.300e-9
-0.144, 2.288e-9
-0.143, 2.279e-9
-0.142, 2.274e-9
-0.141, 2.265e-9
-0.140, 2.254e-9
-0.139, 2.243e-9
-0.138, 2.234e-9
-0.137, 2.228e-9
-0.136, 2.221e-9
-0.135, 2.209e-9
-0.134, 2.198e-9
-0.133, 2.188e-9
-0.132, 2.182e-9
-0.131, 2.178e-9
-0.130, 2.164e-9
-0.129, 2.151e-9
-0.128, 2.142e-9
-0.127, 2.136e-9
-0.126, 2.131e-9
-0.125, 2.119e-9
-0.124, 2.106e-9
-0.123, 2.100e-9
-0.122, 2.092e-9
-0.121, 2.086e-9
-0.120, 2.074e-9
-0.119, 2.060e-9
-0.118, 2.056e-9
-0.117, 2.049e-9
-0.116, 2.041e-9
-0.115, 2.031e-9
-0.114, 2.017e-9
-0.113, 2.010e-9
-0.112, 2.005e-9
-0.111, 1.997e-9
-0.110, 1.987e-9
-0.109, 1.974e-9
-0.108, 1.964e-9
-0.107, 1.960e-9
-0.106, 1.950e-9
-0.105, 1.938e-9
-0.104, 1.925e-9
-0.103, 1.915e-9
-0.102, 1.908e-9
-0.101, 1.900e-9
-0.100, 1.887e-9
-0.099, 1.876e-9
-0.098, 1.867e-9
-0.097, 1.859e-9
-0.096, 1.851e-9
-0.095, 1.836e-9
-0.094, 1.824e-9
-0.093, 1.816e-9
-0.092, 1.805e-9
-0.091, 1.798e-9
-0.090, 1.783e-9
-0.089, 1.769e-9
-0.088, 1.762e-9
-0.087, 1.750e-9
-0.086, 1.743e-9
-0.085, 1.730e-9
-0.084, 1.712e-9
-0.083, 1.706e-9
-0.082, 1.693e-9
-0.081, 1.680e-9
-0.080, 1.667e-9
-0.079, 1.649e-9
-0.078, 1.638e-9
-0.077, 1.625e-9
-0.076, 1.609e-9
-0.075, 1.595e-9
-0.074, 1.577e-9
-0.073, 1.564e-9
-0.072, 1.552e-9
-0.071, 1.536e-9
-0.070, 1.522e-9
-0.069, 1.501e-9
-0.068, 1.485e-9
-0.067, 1.474e-9
-0.066, 1.456e-9
-0.065, 1.437e-9
-0.064, 1.416e-9
-0.063, 1.397e-9
-0.062, 1.381e-9
-0.061, 1.363e-9
-0.060, 1.341e-9
-0.059, 1.319e-9
-0.058, 1.298e-9
-0.057, 1.280e-9
-0.056, 1.262e-9
-0.055, 1.237e-9
-0.054, 1.215e-9
-0.053, 1.193e-9
-0.052, 1.169e-9
-0.051, 1.145e-9
-0.050, 1.116e-9
-0.049, 1.087e-9
-0.048, 1.064e-9
-0.047, 1.036e-9
-0.046, 1.009e-9
-0.045, 9.791e-10
-0.044, 9.443e-10
-0.043, 9.178e-10
-0.042, 8.869e-10
-0.041, 8.538e-10
-0.040, 8.177e-10
-0.039, 7.777e-10
-0.038, 7.447e-10
-0.037, 7.127e-10
-0.036, 6.744e-10
-0.035, 6.344e-10
-0.034, 5.859e-10
-0.033, 5.456e-10
-0.032, 5.057e-10
-0.031, 4.629e-10
-0.030, 4.165e-10
-0.029, 3.668e-10
-0.028, 3.211e-10
-0.027, 2.743e-10
-0.026, 2.207e-10
-0.025, 1.666e-10
-0.024, 1.095e-10
-0.023, 5.545e-11
-0.022, 4.548e-12
-0.021, -5.442e-11
-0.020, -1.174e-10
-0.019, -1.796e-10
-0.018, -2.458e-10
-0.017, -3.078e-10
-0.016, -3.742e-10
-0.015, -4.496e-10
-0.014, -5.225e-10
-0.013, -5.941e-10
-0.012, -6.702e-10
-0.011, -7.458e-10
-0.010, -8.328e-10
-0.009, -9.173e-10
-0.008, -9.983e-10
-0.007, -1.085e-9
-0.006, -1.170e-9
-0.005, -1.269e-9
-0.004, -1.367e-9
-0.003, -1.460e-9
-0.002, -1.561e-9
-0.001, -1.663e-9
-0.000, -1.799e-9
0.001, -1.908e-9
0.002, -2.005e-9
0.003, -2.120e-9
0.004, -2.236e-9
0.005, -2.354e-9
0.006, -2.477e-9
0.007, -2.598e-9
0.008, -2.726e-9
0.009, -2.860e-9
0.010, -2.993e-9
0.011, -3.136e-9
0.012, -3.278e-9
0.013, -3.416e-9
0.014, -3.558e-9
0.015, -3.706e-9
0.016, -3.855e-9
0.017, -4.012e-9
0.018, -4.164e-9
0.019, -4.321e-9
0.020, -4.490e-9
0.021, -4.655e-9
0.022, -4.822e-9
0.023, -4.981e-9
0.024, -5.153e-9
0.025, -5.334e-9
0.026, -5.510e-9
0.027, -5.685e-9
0.028, -5.863e-9
0.029, -6.039e-9
0.030, -6.222e-9
0.031, -6.405e-9
0.032, -6.582e-9
0.033, -6.771e-9
0.034, -6.951e-9
0.035, -7.137e-9
0.036, -7.332e-9
0.037, -7.510e-9
0.038, -7.701e-9
0.039, -7.883e-9
0.040, -8.070e-9
0.041, -8.258e-9
0.042, -8.431e-9
0.043, -8.613e-9
0.044, -8.796e-9
0.045, -8.965e-9
0.046, -9.149e-9
0.047, -9.316e-9
0.048, -9.484e-9
0.049, -9.658e-9
0.050, -9.819e-9
0.051, -9.991e-9
0.052, -1.015e-8
0.053, -1.030e-8
0.054, -1.045e-8
0.055, -1.060e-8
0.056, -1.075e-8
0.057, -1.089e-8
0.058, -1.102e-8
0.059, -1.116e-8
0.060, -1.129e-8
0.061, -1.141e-8
0.062, -1.153e-8
0.063, -1.164e-8
0.064, -1.175e-8
0.065, -1.186e-8
0.066, -1.196e-8
0.067, -1.205e-8
0.068, -1.214e-8
0.069, -1.222e-8
0.070, -1.231e-8
0.071, -1.239e-8
0.072, -1.246e-8
0.073, -1.252e-8
0.074, -1.258e-8
0.075, -1.264e-8
0.076, -1.270e-8
0.077, -1.274e-8
0.078, -1.279e-8
0.079, -1.283e-8
0.080, -1.286e-8
0.081, -1.290e-8
0.082, -1.292e-8
0.083, -1.294e-8
0.084, -1.296e-8
0.085, -1.297e-8
0.086, -1.299e-8
0.087, -1.299e-8
0.088, -1.300e-8
0.089, -1.300e-8
0.090, -1.300e-8
0.091, -1.300e-8
0.092, -1.299e-8
0.093, -1.298e-8
0.094, -1.297e-8
0.095, -1.295e-8
0.096, -1.294e-8
0.097, -1.292e-8
0.098, -1.289e-8
0.099, -1.287e-8
0.100, -1.285e-8
0.101, -1.282e-8
0.102, -1.280e-8
0.103, -1.277e-8
0.104, -1.273e-8
0.105, -1.271e-8
0.106, -1.267e-8
0.107, -1.263e-8
0.108, -1.260e-8
0.109, -1.256e-8
0.110, -1.253e-8
0.111, -1.249e-8
0.112, -1.245e-8
0.113, -1.241e-8
0.114, -1.237e-8
0.115, -1.233e-8
0.116, -1.230e-8
0.117, -1.225e-8
0.118, -1.221e-8
0.119, -1.217e-8
0.120, -1.213e-8
0.121, -1.209e-8
0.122, -1.205e-8
0.123, -1.200e-8
0.124, -1.197e-8
0.125, -1.193e-8
0.126, -1.189e-8
0.127, -1.184e-8
0.128, -1.180e-8
0.129, -1.176e-8
0.130, -1.173e-8
0.131, -1.169e-8
0.132, -1.164e-8
0.133, -1.160e-8
0.134, -1.156e-8
0.135, -1.153e-8
0.136, -1.149e-8
0.137, -1.146e-8
0.138, -1.141e-8
0.139, -1.138e-8
0.140, -1.135e-8
0.141, -1.131e-8
0.142, -1.128e-8
0.143, -1.124e-8
0.144, -1.120e-8
0.145, -1.117e-8
0.146, -1.114e-8
0.147, -1.110e-8
0.148, -1.107e-8
0.149, -1.104e-8
0.150, -1.101e-8
0.151, -1.098e-8
0.152, -1.095e-8
0.153, -1.092e-8
0.154, -1.089e-8
0.155, -1.086e-8
0.156, -1.083e-8
0.157, -1.080e-8
0.158, -1.077e-8
0.159, -1.075e-8
0.160, -1.072e-8
0.161, -1.070e-8
0.162, -1.067e-8
0.163, -1.064e-8
0.164, -1.062e-8
0.165, -1.060e-8
0.166, -1.058e-8
0.167, -1.055e-8
0.168, -1.053e-8
0.169, -1.050e-8
0.170, -1.048e-8
0.171, -1.046e-8
0.172, -1.044e-8
0.173, -1.042e-8
0.174, -1.040e-8
0.175, -1.038e-8
0.176, -1.036e-8
0.177, -1.034e-8
0.178, -1.032e-8
0.179, -1.030e-8
0.180, -1.029e-8
0.181, -1.027e-8
0.182, -1.025e-8
0.183, -1.023e-8
0.184, -1.022e-8
0.185, -1.021e-8
0.186, -1.019e-8
0.187, -1.017e-8
0.188, -1.015e-8
0.189, -1.014e-8
0.190, -1.013e-8
0.191, -1.012e-8
0.192, -1.010e-8
0.193, -1.009e-8
0.194, -1.007e-8
0.195, -1.006e-8
0.196, -1.005e-8
0.197, -1.003e-8
0.198, -1.002e-8
0.199, -1.001e-8
0.200, -1.000e-8
0.201, -9.995e-9
0.202, -9.979e-9
0.203, -9.967e-9
0.204, -9.960e-9
0.205, -9.956e-9
0.206, -9.946e-9
0.207, -9.932e-9
0.208, -9.921e-9
0.209, -9.916e-9
0.210, -9.909e-9
0.211, -9.903e-9
0.212, -9.892e-9
0.213, -9.880e-9
0.214, -9.874e-9
0.215, -9.870e-9
0.216, -9.863e-9
0.217, -9.855e-9
0.218, -9.847e-9
0.219, -9.840e-9
0.220, -9.838e-9
0.221, -9.831e-9
0.222, -9.823e-9
0.223, -9.817e-9
0.224, -9.812e-9
0.225, -9.811e-9
0.226, -9.807e-9
0.227, -9.798e-9
0.228, -9.794e-9
0.229, -9.789e-9
0.230, -9.790e-9
0.231, -9.787e-9
0.232, -9.780e-9
0.233, -9.776e-9
0.234, -9.771e-9
0.235, -9.772e-9
0.236, -9.770e-9
0.237, -9.763e-9
0.238, -9.760e-9
0.239, -9.756e-9
0.240, -9.757e-9
0.241, -9.756e-9
0.242, -9.749e-9
0.243, -9.746e-9
0.244, -9.748e-9
0.245, -9.748e-9
0.246, -9.746e-9
0.247, -9.743e-9
0.248, -9.737e-9
0.249, -9.739e-9
0.250, -9.739e-9
0.251, -9.739e-9
0.252, -9.735e-9
0.253, -9.732e-9
0.254, -9.735e-9
0.255, -9.739e-9
0.256, -9.739e-9
0.257, -9.736e-9
0.258, -9.735e-9
0.259, -9.735e-9
0.260, -9.739e-9
0.261, -9.739e-9
0.262, -9.736e-9
0.263, -9.737e-9
0.264, -9.740e-9
0.265, -9.746e-9
0.266, -9.745e-9
0.267, -9.744e-9
0.268, -9.745e-9
0.269, -9.748e-9
0.270, -9.755e-9
0.271, -9.755e-9
0.272, -9.754e-9
0.273, -9.757e-9
0.274, -9.759e-9
0.275, -9.764e-9
0.276, -9.768e-9
0.277, -9.766e-9
0.278, -9.769e-9
0.279, -9.772e-9
0.280, -9.776e-9
0.281, -9.780e-9
0.282, -9.783e-9
0.283, -9.785e-9
0.284, -9.790e-9
0.285, -9.794e-9
0.286, -9.800e-9
0.287, -9.801e-9
0.288, -9.801e-9
0.289, -9.809e-9
0.290, -9.815e-9
0.291, -9.820e-9
0.292, -9.822e-9
0.293, -9.823e-9
0.294, -9.831e-9
0.295, -9.840e-9
0.296, -9.842e-9
0.297, -9.847e-9
0.298, -9.849e-9
0.299, -9.856e-9
0.300, -9.635e-9
0.299, -8.992e-9
0.298, -8.788e-9
0.297, -8.681e-9
0.296, -8.595e-9
0.295, -8.519e-9
0.294, -8.453e-9
0.293, -8.387e-9
0.292, -8.328e-9
0.291, -8.278e-9
0.290, -8.230e-9
0.289, -8.182e-9
0.288, -8.134e-9
0.287, -8.087e-9
0.286, -8.051e-9
0.285, -8.014e-9
0.284, -7.976e-9
0.283, -7.937e-9
0.282, -7.901e-9
0.281, -7.869e-9
0.280, -7.842e-9
0.279, -7.809e-9
0.278, -7.779e-9
0.277, -7.746e-9
0.276, -7.720e-9
0.275, -7.698e-9
0.274, -7.670e-9
0.273, -7.642e-9
0.272, -7.616e-9
0.271, -7.594e-9
0.270, -7.575e-9
0.269, -7.546e-9
0.268, -7.521e-9
0.267, -7.501e-9
0.266, -7.480e-9
0.265, -7.463e-9
0.264, -7.441e-9
0.263, -7.416e-9
0.262, -7.399e-9
0.261, -7.380e-9
0.260, -7.365e-9
0.259, -7.345e-9
0.258, -7.321e-9
0.257, -7.301e-9
0.256, -7.282e-9
0.255, -7.265e-9
0.254, -7.247e-9
0.253, -7.225e-9
0.252, -7.206e-9
0.251, -7.192e-9
0.250, -7.175e-9
0.249, -7.159e-9
0.248, -7.141e-9
0.247, -7.122e-9
0.246, -7.111e-9
0.245, -7.097e-9
0.244, -7.080e-9
0.243, -7.061e-9
0.242, -7.047e-9
0.241, -7.034e-9
0.240, -7.022e-9
0.239, -7.004e-9
0.238, -6.987e-9
0.237, -6.971e-9
0.236, -6.959e-9
0.235, -6.950e-9
0.234, -6.930e-9
0.233, -6.914e-9
0.232, -6.900e-9
0.231, -6.886e-9
0.230, -6.875e-9
0.229, -6.859e-9
0.228, -6.844e-9
0.227, -6.829e-9
0.226, -6.816e-9
0.225, -6.805e-9
0.224, -6.790e-9
0.223, -6.771e-9
0.222, -6.757e-9
0.221, -6.743e-9
0.220, -6.731e-9
0.219, -6.715e-9
0.218, -6.696e-9
0.217, -6.683e-9
0.216, -6.673e-9
0.215, -6.661e-9
0.214, -6.646e-9
0.213, -6.629e-9
0.212, -6.615e-9
0.211, -6.604e-9
0.210, -6.591e-9
0.209, -6.576e-9
0.208, -6.560e-9
0.207, -6.542e-9
0.206, -6.532e-9
0.205, -6.518e-9
0.204, -6.501e-9
0.203, -6.482e-9
0.202, -6.466e-9
0.201, -6.459e-9
0.200, -6.444e-9
0.199, -6.428e-9
0.198, -6.413e-9
0.197, -6.395e-9
0.196, -6.383e-9
0.195, -6.371e-9
0.194, -6.352e-9
0.193, -6.336e-9
0.192, -6.317e-9
0.191, -6.302e-9
0.190, -6.292e-9
0.189, -6.271e-9
0.188, -6.252e-9
0.187, -6.235e-9
0.186, -6.218e-9
0.185, -6.205e-9
0.184, -6.186e-9
0.183, -6.165e-9
0.182, -6.150e-9
0.181, -6.136e-9
0.180, -6.121e-9
0.179, -6.102e-9
0.178, -6.081e-9
0.177, -6.063e-9
0.176, -6.046e-9
0.175, -6.028e-9
0.174, -6.006e-9
0.173, -5.982e-9
0.172, -5.961e-9
0.171, -5.944e-9
0.170, -5.922e-9
0.169, -5.901e-9
0.168, -5.876e-9
0.167, -5.853e-9
0.166, -5.833e-9
0.165, -5.813e-9
0.164, -5.788e-9
0.163, -5.761e-9
0.162, -5.733e-9
0.161, -5.711e-9
0.160, -5.686e-9
0.159, -5.658e-9
0.158, -5.632e-9
0.157, -5.603e-9
0.156, -5.580e-9
0.155, -5.554e-9
0.154, -5.520e-9
0.153, -5.488e-9
0.152, -5.459e-9
0.151, -5.430e-9
0.150, -5.402e-9
0.149, -5.364e-9
0.148, -5.333e-9
0.147, -5.298e-9
0.146, -5.265e-9
0.145, -5.234e-9
0.144, -5.191e-9
0.143, -5.149e-9
0.142, -5.113e-9
0.141, -5.075e-9
0.140, -5.037e-9
0.139, -4.991e-9
0.138, -4.944e-9
0.137, -4.903e-9
0.136, -4.861e-9
0.135, -4.815e-9
0.134, -4.765e-9
0.133, -4.712e-9
0.132, -4.663e-9
0.131, -4.616e-9
0.130, -4.563e-9
0.129, -4.507e-9
0.128, -4.446e-9
0.127, -4.389e-9
0.126, -4.337e-9
0.125, -4.277e-9
0.124, -4.212e-9
0.123, -4.146e-9
0.122, -4.076e-9
0.121, -4.012e-9
0.120, -3.944e-9
0.119, -3.868e-9
0.118, -3.796e-9
0.117, -3.716e-9
0.116, -3.640e-9
0.115, -3.559e-9
0.114, -3.476e-9
0.113, -3.401e-9
0.112, -3.315e-9
0.111, -3.224e-9
0.110, -3.135e-9
0.109, -3.034e-9
0.108, -2.937e-9
0.107, -2.841e-9
0.106, -2.737e-9
0.105, -2.640e-9
0.104, -2.528e-9
0.103, -2.412e-9
0.102, -2.300e-9
0.101, -2.191e-9
0.100, -2.077e-9
0.099, -1.955e-9
0.098, -1.829e-9
0.097, -1.705e-9
0.096, -1.576e-9
0.095, -1.446e-9
0.094, -1.312e-9
0.093, -1.170e-9
0.092, -1.036e-9
0.091, -8.985e-10
0.090, -7.497e-10
0.089, -6.016e-10
0.088, -4.469e-10
0.087, -2.929e-10
0.086, -1.432e-10
0.085, 1.459e-11
0.084, 1.786e-10
0.083, 3.395e-10
0.082, 5.080e-10
0.081, 6.765e-10
0.080, 8.465e-10
0.079, 1.026e-9
0.078, 1.200e-9
0.077, 1.376e-9
0.076, 1.548e-9
0.075, 1.724e-9
0.074, 1.908e-9
0.073, 2.084e-9
0.072, 2.268e-9
0.071, 2.447e-9
0.070, 2.619e-9
0.069, 2.808e-9
0.068, 2.993e-9
0.067, 3.177e-9
0.066, 3.361e-9
0.065, 3.537e-9
0.064, 3.725e-9
0.063, 3.909e-9
0.062, 4.087e-9
0.061, 4.266e-9
0.060, 4.434e-9
0.059, 4.619e-9
0.058, 4.800e-9
0.057, 4.963e-9
0.056, 5.134e-9
0.055, 5.306e-9
0.054, 5.463e-9
0.053, 5.636e-9
0.052, 5.798e-9
0.051, 5.950e-9
0.050, 6.106e-9
0.049, 6.257e-9
0.048, 6.406e-9
0.047, 6.547e-9
0.046, 6.677e-9
0.045, 6.812e-9
0.044, 6.943e-9
0.043, 7.072e-9
0.042, 7.196e-9
0.041, 7.306e-9
0.040, 7.419e-9
0.039, 7.534e-9
0.038, 7.639e-9
0.037, 7.739e-9
0.036, 7.829e-9
0.035, 7.916e-9
0.034, 8.011e-9
0.033, 8.088e-9
0.032, 8.162e-9
0.031, 8.233e-9
0.030, 8.292e-9
0.029, 8.362e-9
0.028, 8.420e-9
0.027, 8.478e-9
0.026, 8.531e-9
0.025, 8.577e-9
0.024, 8.619e-9
0.023, 8.657e-9
0.022, 8.685e-9
0.021, 8.714e-9
0.020, 8.737e-9
0.019, 8.761e-9
0.018, 8.783e-9
0.017, 8.794e-9
0.016, 8.803e-9
0.015, 8.812e-9
0.014, 8.817e-9
0.013, 8.824e-9
0.012, 8.822e-9
0.011, 8.813e-9
0.010, 8.809e-9
0.009, 8.799e-9
0.008, 8.793e-9
0.007, 8.780e-9
0.006, 8.755e-9
0.005, 8.742e-9
0.004, 8.724e-9
0.003, 8.701e-9
0.002, 8.681e-9
0.001, 8.650e-9
0.000, 8.648e-9
-0.001, 8.628e-9
-0.002, 8.584e-9
-0.003, 8.552e-9
-0.004, 8.515e-9
-0.005, 8.476e-9
-0.006, 8.450e-9
-0.007, 8.410e-9
-0.008, 8.375e-9
-0.009, 8.337e-9
-0.010, 8.300e-9
-0.011, 8.271e-9
-0.012, 8.234e-9
-0.013, 8.199e-9
-0.014, 8.160e-9
-0.015, 8.117e-9
-0.016, 8.082e-9
-0.017, 8.048e-9
-0.018, 8.005e-9
-0.019, 7.964e-9
-0.020, 7.924e-9
-0.021, 7.889e-9
-0.022, 7.852e-9
-0.023, 7.810e-9
-0.024, 7.769e-9
-0.025, 7.734e-9
-0.026, 7.697e-9
-0.027, 7.661e-9
-0.028, 7.621e-9
-0.029, 7.578e-9
-0.030, 7.542e-9
-0.031, 7.505e-9
-0.032, 7.469e-9
-0.033, 7.435e-9
-0.034, 7.391e-9
-0.035, 7.357e-9
-0.036, 7.324e-9
-0.037, 7.290e-9
-0.038, 7.255e-9
-0.039, 7.216e-9
-0.040, 7.183e-9
-0.041, 7.153e-9
-0.042, 7.119e-9
-0.043, 7.086e-9
-0.044, 7.047e-9
-0.045, 7.013e-9
-0.046, 6.986e-9
-0.047, 6.953e-9
-0.048, 6.922e-9
-0.049, 6.887e-9
-0.050, 6.857e-9
-0.051, 6.832e-9
-0.052, 6.803e-9
-0.053, 6.770e-9
-0.054, 6.739e-9
-0.055, 6.711e-9
-0.056, 6.685e-9
-0.057, 6.661e-9
-0.058, 6.629e-9
-0.059, 6.600e-9
-0.060, 6.574e-9
-0.061, 6.549e-9
-0.062, 6.527e-9
-0.063, 6.499e-9
-0.064, 6.472e-9
-0.065, 6.450e-9
-0.066, 6.427e-9
-0.067, 6.405e-9
-0.068, 6.380e-9
-0.069, 6.352e-9
-0.070, 6.332e-9
-0.071, 6.310e-9
-0.072, 6.289e-9
-0.073, 6.265e-9
-0.074, 6.238e-9
-0.075, 6.219e-9
-0.076, 6.201e-9
-0.077, 6.182e-9
-0.078, 6.161e-9
-0.079, 6.136e-9
-0.080, 6.118e-9
-0.081, 6.102e-9
-0.082, 6.083e-9
-0.083, 6.061e-9
-0.084, 6.041e-9
-0.085, 6.020e-9
-0.086, 6.008e-9
-0.087, 5.988e-9
-0.088, 5.970e-9
-0.089, 5.952e-9
-0.090, 5.936e-9
-0.091, 5.923e-9
-0.092, 5.907e-9
-0.093, 5.889e-9
-0.094, 5.872e-9
-0.095, 5.855e-9
-0.096, 5.842e-9
-0.097, 5.830e-9
-0.098, 5.809e-9
-0.099, 5.793e-9
-0.100, 5.780e-9
-0.101, 5.768e-9
-0.102, 5.756e-9
-0.103, 5.741e-9
-0.104, 5.723e-9
-0.105, 5.712e-9
-0.106, 5.698e-9
-0.107, 5.688e-9
-0.108, 5.675e-9
-0.109, 5.656e-9
-0.110, 5.648e-9
-0.111, 5.638e-9
-0.112, 5.627e-9
-0.113, 5.614e-9
-0.114, 5.597e-9
-0.115, 5.589e-9
-0.116, 5.580e-9
-0.117, 5.567e-9
-0.118, 5.556e-9
-0.119, 5.540e-9
-0.120, 5.531e-9
-0.121, 5.525e-9
-0.122, 5.513e-9
-0.123, 5.503e-9
-0.124, 5.489e-9
-0.125, 5.480e-9
-0.126, 5.474e-9
-0.127, 5.465e-9
-0.128, 5.455e-9
-0.129, 5.445e-9
-0.130, 5.434e-9
-0.131, 5.429e-9
-0.132, 5.422e-9
-0.133, 5.411e-9
-0.134, 5.401e-9
-0.135, 5.394e-9
-0.136, 5.388e-9
-0.137, 5.384e-9
-0.138, 5.372e-9
-0.139, 5.361e-9
-0.140, 5.357e-9
-0.141, 5.351e-9
-0.142, 5.347e-9
-0.143, 5.335e-9
-0.144, 5.327e-9
-0.145, 5.322e-9
-0.146, 5.316e-9
-0.147, 5.311e-9
-0.148, 5.302e-9
-0.149, 5.292e-9
-0.150, 5.290e-9
-0.151, 5.284e-9
-0.152, 5.280e-9
-0.153, 5.273e-9
-0.154, 5.263e-9
-0.155, 5.262e-9
-0.156, 5.259e-9
-0.157, 5.254e-9
-0.158, 5.247e-9
-0.159, 5.239e-9
-0.160, 5.237e-9
-0.161, 5.234e-9
-0.162, 5.230e-9
-0.163, 5.223e-9
-0.164, 5.218e-9
-0.165, 5.214e-9
-0.166, 5.214e-9
-0.167, 5.211e-9
-0.168, 5.206e-9
-0.169, 5.201e-9
-0.170, 5.197e-9
-0.171, 5.197e-9
-0.172, 5.196e-9
-0.173, 5.188e-9
-0.174, 5.186e-9
-0.175, 5.183e-9
-0.176, 5.184e-9
-0.177, 5.184e-9
-0.178, 5.177e-9
-0.179, 5.176e-9
-0.180, 5.176e-9
-0.181, 5.176e-9
-0.182, 5.178e-9
-0.183, 5.171e-9
-0.184, 5.167e-9
-0.185, 5.171e-9
-0.186, 5.170e-9
-0.187, 5.172e-9
-0.188, 5.169e-9
-0.189, 5.166e-9
-0.190, 5.170e-9
-0.191, 5.170e-9
-0.192, 5.173e-9
-0.193, 5.172e-9
-0.194, 5.166e-9
-0.195, 5.172e-9
-0.196, 5.173e-9
-0.197, 5.174e-9
-0.198, 5.176e-9
-0.199, 5.172e-9
