Mar. 16, 2023   09:00:23
Cyclic Voltammetry
File: c:/users/oliverrz/desktop/electrolab/data/2023_03_16\fcmeoh_macros_250_um\electrode6_cv_250mvs_250_um.bin
Data Source:  Experiment
Instrument Model:  CHI760E
Header: CV
Note: 

Init E (V) = -0.2
High E (V) = 0.3
Low E (V) = -0.2
Final E (V) = -0.2
Init P/N = P
Scan Rate (V/s) = 0.25
Segment = 3
Sample Interval (V) = 0.001
Quiet Time (sec) = 2
Sensitivity (A/V) = 1e-7

Results:

Channel 1:
Segment 1:
Ep = 0.066V
ip = -2.686e-8A
Ah = -6.413e-9C

Segment 2:
Ep = 0.007V
ip = 2.567e-8A
Ah = 6.319e-9C

Segment 3:

Potential/V, Current/A

-0.200, 2.468e-9
-0.199, 1.791e-9
-0.198, 1.607e-9
-0.197, 1.391e-9
-0.196, 1.391e-9
-0.195, 1.576e-9
-0.194, 1.484e-9
-0.193, 1.268e-9
-0.192, 1.268e-9
-0.191, 1.453e-9
-0.190, 1.422e-9
-0.189, 1.237e-9
-0.188, 1.145e-9
-0.187, 1.330e-9
-0.186, 1.360e-9
-0.185, 1.145e-9
-0.184, 1.084e-9
-0.183, 1.237e-9
-0.182, 1.299e-9
-0.181, 1.145e-9
-0.180, 9.605e-10
-0.179, 1.114e-9
-0.178, 1.237e-9
-0.177, 1.084e-9
-0.176, 9.298e-10
-0.175, 1.022e-9
-0.174, 1.176e-9
-0.173, 1.084e-9
-0.172, 8.375e-10
-0.171, 9.298e-10
-0.170, 1.114e-9
-0.169, 1.022e-9
-0.168, 8.682e-10
-0.167, 8.067e-10
-0.166, 1.022e-9
-0.165, 1.022e-9
-0.164, 8.067e-10
-0.163, 7.759e-10
-0.162, 9.298e-10
-0.161, 9.605e-10
-0.160, 7.759e-10
-0.159, 6.836e-10
-0.158, 8.682e-10
-0.157, 9.298e-10
-0.156, 7.759e-10
-0.155, 6.529e-10
-0.154, 7.759e-10
-0.153, 8.990e-10
-0.152, 7.452e-10
-0.151, 5.913e-10
-0.150, 6.836e-10
-0.149, 8.375e-10
-0.148, 7.144e-10
-0.147, 5.298e-10
-0.146, 6.221e-10
-0.145, 7.759e-10
-0.144, 7.452e-10
-0.143, 4.991e-10
-0.142, 4.991e-10
-0.141, 7.144e-10
-0.140, 6.836e-10
-0.139, 4.991e-10
-0.138, 4.683e-10
-0.137, 5.913e-10
-0.136, 6.836e-10
-0.135, 4.375e-10
-0.134, 3.760e-10
-0.133, 5.606e-10
-0.132, 5.913e-10
-0.131, 4.683e-10
-0.130, 3.145e-10
-0.129, 4.375e-10
-0.128, 5.913e-10
-0.127, 4.068e-10
-0.126, 2.837e-10
-0.125, 3.760e-10
-0.124, 4.991e-10
-0.123, 4.375e-10
-0.122, 1.914e-10
-0.121, 2.837e-10
-0.120, 4.683e-10
-0.119, 3.760e-10
-0.118, 1.914e-10
-0.117, 1.914e-10
-0.116, 3.760e-10
-0.115, 3.452e-10
-0.114, 1.606e-10
-0.113, 9.911e-11
-0.112, 2.837e-10
-0.111, 3.145e-10
-0.110, 9.911e-11
-0.109, 3.758e-11
-0.108, 1.914e-10
-0.107, 2.529e-10
-0.106, 1.299e-10
-0.105, -5.472e-11
-0.104, 9.911e-11
-0.103, 1.914e-10
-0.102, 3.758e-11
-0.101, -8.548e-11
-0.100, -2.395e-11
-0.099, 1.299e-10
-0.098, 3.758e-11
-0.097, -2.085e-10
-0.096, -1.162e-10
-0.095, 3.758e-11
-0.094, -5.472e-11
-0.093, -2.393e-10
-0.092, -2.701e-10
-0.091, -5.472e-11
-0.090, -1.162e-10
-0.089, -3.316e-10
-0.088, -3.624e-10
-0.087, -2.085e-10
-0.086, -1.778e-10
-0.085, -3.624e-10
-0.084, -5.162e-10
-0.083, -3.316e-10
-0.082, -2.701e-10
-0.081, -4.854e-10
-0.080, -6.085e-10
-0.079, -5.162e-10
-0.078, -3.931e-10
-0.077, -5.777e-10
-0.076, -7.623e-10
-0.075, -6.700e-10
-0.074, -5.470e-10
-0.073, -6.700e-10
-0.072, -8.854e-10
-0.071, -8.546e-10
-0.070, -7.008e-10
-0.069, -7.931e-10
-0.068, -1.039e-9
-0.067, -1.039e-9
-0.066, -8.854e-10
-0.065, -9.469e-10
-0.064, -1.193e-9
-0.063, -1.285e-9
-0.062, -1.131e-9
-0.061, -1.131e-9
-0.060, -1.378e-9
-0.059, -1.501e-9
-0.058, -1.378e-9
-0.057, -1.378e-9
-0.056, -1.562e-9
-0.055, -1.747e-9
-0.054, -1.716e-9
-0.053, -1.593e-9
-0.052, -1.839e-9
-0.051, -2.054e-9
-0.050, -1.993e-9
-0.049, -1.962e-9
-0.048, -2.085e-9
-0.047, -2.393e-9
-0.046, -2.362e-9
-0.045, -2.270e-9
-0.044, -2.454e-9
-0.043, -2.701e-9
-0.042, -2.793e-9
-0.041, -2.701e-9
-0.040, -2.793e-9
-0.039, -3.100e-9
-0.038, -3.254e-9
-0.037, -3.162e-9
-0.036, -3.254e-9
-0.035, -3.531e-9
-0.034, -3.747e-9
-0.033, -3.685e-9
-0.032, -3.747e-9
-0.031, -4.054e-9
-0.030, -4.300e-9
-0.029, -4.300e-9
-0.028, -4.331e-9
-0.027, -4.608e-9
-0.026, -4.916e-9
-0.025, -4.977e-9
-0.024, -5.008e-9
-0.023, -5.254e-9
-0.022, -5.623e-9
-0.021, -5.715e-9
-0.020, -5.746e-9
-0.019, -5.992e-9
-0.018, -6.392e-9
-0.017, -6.608e-9
-0.016, -6.577e-9
-0.015, -6.854e-9
-0.014, -7.254e-9
-0.013, -7.500e-9
-0.012, -7.561e-9
-0.011, -7.746e-9
-0.010, -8.177e-9
-0.009, -8.546e-9
-0.008, -8.577e-9
-0.007, -8.823e-9
-0.006, -9.223e-9
-0.005, -9.592e-9
-0.004, -9.807e-9
-0.003, -9.900e-9
-0.002, -1.036e-8
-0.001, -1.079e-8
-0.000, -1.116e-8
0.001, -1.125e-8
0.002, -1.159e-8
0.003, -1.208e-8
0.004, -1.239e-8
0.005, -1.248e-8
0.006, -1.295e-8
0.007, -1.341e-8
0.008, -1.375e-8
0.009, -1.393e-8
0.010, -1.430e-8
0.011, -1.482e-8
0.012, -1.525e-8
0.013, -1.541e-8
0.014, -1.574e-8
0.015, -1.630e-8
0.016, -1.673e-8
0.017, -1.694e-8
0.018, -1.725e-8
0.019, -1.774e-8
0.020, -1.827e-8
0.021, -1.845e-8
0.022, -1.873e-8
0.023, -1.925e-8
0.024, -1.971e-8
0.025, -2.002e-8
0.026, -2.027e-8
0.027, -2.067e-8
0.028, -2.122e-8
0.029, -2.150e-8
0.030, -2.165e-8
0.031, -2.208e-8
0.032, -2.254e-8
0.033, -2.291e-8
0.034, -2.304e-8
0.035, -2.334e-8
0.036, -2.390e-8
0.037, -2.421e-8
0.038, -2.430e-8
0.039, -2.461e-8
0.040, -2.501e-8
0.041, -2.537e-8
0.042, -2.547e-8
0.043, -2.562e-8
0.044, -2.605e-8
0.045, -2.636e-8
0.046, -2.648e-8
0.047, -2.654e-8
0.048, -2.685e-8
0.049, -2.722e-8
0.050, -2.731e-8
0.051, -2.728e-8
0.052, -2.756e-8
0.053, -2.784e-8
0.054, -2.796e-8
0.055, -2.790e-8
0.056, -2.805e-8
0.057, -2.833e-8
0.058, -2.839e-8
0.059, -2.830e-8
0.060, -2.842e-8
0.061, -2.860e-8
0.062, -2.870e-8
0.063, -2.857e-8
0.064, -2.857e-8
0.065, -2.876e-8
0.066, -2.885e-8
0.067, -2.867e-8
0.068, -2.860e-8
0.069, -2.873e-8
0.070, -2.882e-8
0.071, -2.870e-8
0.072, -2.848e-8
0.073, -2.860e-8
0.074, -2.870e-8
0.075, -2.851e-8
0.076, -2.836e-8
0.077, -2.836e-8
0.078, -2.845e-8
0.079, -2.836e-8
0.080, -2.802e-8
0.081, -2.805e-8
0.082, -2.811e-8
0.083, -2.799e-8
0.084, -2.771e-8
0.085, -2.759e-8
0.086, -2.768e-8
0.087, -2.762e-8
0.088, -2.728e-8
0.089, -2.719e-8
0.090, -2.719e-8
0.091, -2.719e-8
0.092, -2.688e-8
0.093, -2.667e-8
0.094, -2.673e-8
0.095, -2.670e-8
0.096, -2.645e-8
0.097, -2.617e-8
0.098, -2.617e-8
0.099, -2.624e-8
0.100, -2.599e-8
0.101, -2.568e-8
0.102, -2.565e-8
0.103, -2.571e-8
0.104, -2.553e-8
0.105, -2.519e-8
0.106, -2.513e-8
0.107, -2.516e-8
0.108, -2.504e-8
0.109, -2.473e-8
0.110, -2.457e-8
0.111, -2.467e-8
0.112, -2.454e-8
0.113, -2.427e-8
0.114, -2.408e-8
0.115, -2.411e-8
0.116, -2.411e-8
0.117, -2.377e-8
0.118, -2.359e-8
0.119, -2.365e-8
0.120, -2.362e-8
0.121, -2.337e-8
0.122, -2.313e-8
0.123, -2.313e-8
0.124, -2.322e-8
0.125, -2.294e-8
0.126, -2.270e-8
0.127, -2.267e-8
0.128, -2.273e-8
0.129, -2.261e-8
0.130, -2.227e-8
0.131, -2.224e-8
0.132, -2.233e-8
0.133, -2.221e-8
0.134, -2.190e-8
0.135, -2.181e-8
0.136, -2.190e-8
0.137, -2.187e-8
0.138, -2.156e-8
0.139, -2.144e-8
0.140, -2.153e-8
0.141, -2.153e-8
0.142, -2.125e-8
0.143, -2.107e-8
0.144, -2.116e-8
0.145, -2.116e-8
0.146, -2.097e-8
0.147, -2.073e-8
0.148, -2.079e-8
0.149, -2.085e-8
0.150, -2.067e-8
0.151, -2.045e-8
0.152, -2.045e-8
0.153, -2.058e-8
0.154, -2.045e-8
0.155, -2.018e-8
0.156, -2.018e-8
0.157, -2.027e-8
0.158, -2.018e-8
0.159, -1.993e-8
0.160, -1.984e-8
0.161, -1.999e-8
0.162, -1.996e-8
0.163, -1.968e-8
0.164, -1.962e-8
0.165, -1.971e-8
0.166, -1.971e-8
0.167, -1.953e-8
0.168, -1.934e-8
0.169, -1.947e-8
0.170, -1.950e-8
0.171, -1.931e-8
0.172, -1.916e-8
0.173, -1.919e-8
0.174, -1.931e-8
0.175, -1.916e-8
0.176, -1.894e-8
0.177, -1.898e-8
0.178, -1.913e-8
0.179, -1.901e-8
0.180, -1.876e-8
0.181, -1.876e-8
0.182, -1.891e-8
0.183, -1.888e-8
0.184, -1.861e-8
0.185, -1.858e-8
0.186, -1.873e-8
0.187, -1.870e-8
0.188, -1.848e-8
0.189, -1.839e-8
0.190, -1.854e-8
0.191, -1.858e-8
0.192, -1.836e-8
0.193, -1.824e-8
0.194, -1.836e-8
0.195, -1.842e-8
0.196, -1.827e-8
0.197, -1.811e-8
0.198, -1.818e-8
0.199, -1.833e-8
0.200, -1.814e-8
0.201, -1.796e-8
0.202, -1.805e-8
0.203, -1.814e-8
0.204, -1.811e-8
0.205, -1.787e-8
0.206, -1.787e-8
0.207, -1.805e-8
0.208, -1.799e-8
0.209, -1.778e-8
0.210, -1.774e-8
0.211, -1.790e-8
0.212, -1.796e-8
0.213, -1.768e-8
0.214, -1.762e-8
0.215, -1.781e-8
0.216, -1.781e-8
0.217, -1.765e-8
0.218, -1.753e-8
0.219, -1.765e-8
0.220, -1.778e-8
0.221, -1.759e-8
0.222, -1.744e-8
0.223, -1.753e-8
0.224, -1.765e-8
0.225, -1.756e-8
0.226, -1.738e-8
0.227, -1.744e-8
0.228, -1.759e-8
0.229, -1.753e-8
0.230, -1.731e-8
0.231, -1.734e-8
0.232, -1.753e-8
0.233, -1.747e-8
0.234, -1.725e-8
0.235, -1.725e-8
0.236, -1.744e-8
0.237, -1.747e-8
0.238, -1.722e-8
0.239, -1.719e-8
0.240, -1.731e-8
0.241, -1.741e-8
0.242, -1.725e-8
0.243, -1.710e-8
0.244, -1.728e-8
0.245, -1.738e-8
0.246, -1.719e-8
0.247, -1.710e-8
0.248, -1.716e-8
0.249, -1.734e-8
0.250, -1.722e-8
0.251, -1.701e-8
0.252, -1.713e-8
0.253, -1.725e-8
0.254, -1.722e-8
0.255, -1.701e-8
0.256, -1.707e-8
0.257, -1.725e-8
0.258, -1.722e-8
0.259, -1.701e-8
0.260, -1.704e-8
0.261, -1.719e-8
0.262, -1.722e-8
0.263, -1.704e-8
0.264, -1.698e-8
0.265, -1.716e-8
0.266, -1.722e-8
0.267, -1.707e-8
0.268, -1.698e-8
0.269, -1.710e-8
0.270, -1.722e-8
0.271, -1.710e-8
0.272, -1.694e-8
0.273, -1.707e-8
0.274, -1.725e-8
0.275, -1.713e-8
0.276, -1.698e-8
0.277, -1.707e-8
0.278, -1.722e-8
0.279, -1.719e-8
0.280, -1.698e-8
0.281, -1.704e-8
0.282, -1.725e-8
0.283, -1.722e-8
0.284, -1.704e-8
0.285, -1.704e-8
0.286, -1.722e-8
0.287, -1.728e-8
0.288, -1.707e-8
0.289, -1.704e-8
0.290, -1.725e-8
0.291, -1.731e-8
0.292, -1.716e-8
0.293, -1.707e-8
0.294, -1.725e-8
0.295, -1.741e-8
0.296, -1.722e-8
0.297, -1.713e-8
0.298, -1.725e-8
0.299, -1.741e-8
0.300, -1.556e-8
0.299, -1.316e-8
0.298, -1.285e-8
0.297, -1.276e-8
0.296, -1.248e-8
0.295, -1.205e-8
0.294, -1.196e-8
0.293, -1.199e-8
0.292, -1.181e-8
0.291, -1.150e-8
0.290, -1.141e-8
0.289, -1.147e-8
0.288, -1.141e-8
0.287, -1.110e-8
0.286, -1.098e-8
0.285, -1.107e-8
0.284, -1.104e-8
0.283, -1.079e-8
0.282, -1.061e-8
0.281, -1.070e-8
0.280, -1.079e-8
0.279, -1.051e-8
0.278, -1.036e-8
0.277, -1.039e-8
0.276, -1.048e-8
0.275, -1.036e-8
0.274, -1.011e-8
0.273, -1.015e-8
0.272, -1.027e-8
0.271, -1.015e-8
0.270, -9.930e-9
0.269, -9.900e-9
0.268, -1.005e-8
0.267, -9.992e-9
0.266, -9.746e-9
0.265, -9.715e-9
0.264, -9.869e-9
0.263, -9.838e-9
0.262, -9.623e-9
0.261, -9.500e-9
0.260, -9.653e-9
0.259, -9.715e-9
0.258, -9.500e-9
0.257, -9.346e-9
0.256, -9.469e-9
0.255, -9.561e-9
0.254, -9.377e-9
0.253, -9.223e-9
0.252, -9.284e-9
0.251, -9.438e-9
0.250, -9.284e-9
0.249, -9.069e-9
0.248, -9.161e-9
0.247, -9.284e-9
0.246, -9.192e-9
0.245, -8.977e-9
0.244, -8.977e-9
0.243, -9.161e-9
0.242, -9.130e-9
0.241, -8.854e-9
0.240, -8.884e-9
0.239, -9.007e-9
0.238, -9.038e-9
0.237, -8.823e-9
0.236, -8.730e-9
0.235, -8.915e-9
0.234, -8.915e-9
0.233, -8.730e-9
0.232, -8.607e-9
0.231, -8.730e-9
0.230, -8.854e-9
0.229, -8.669e-9
0.228, -8.484e-9
0.227, -8.607e-9
0.226, -8.730e-9
0.225, -8.607e-9
0.224, -8.423e-9
0.223, -8.484e-9
0.222, -8.638e-9
0.221, -8.546e-9
0.220, -8.331e-9
0.219, -8.361e-9
0.218, -8.515e-9
0.217, -8.484e-9
0.216, -8.269e-9
0.215, -8.238e-9
0.214, -8.392e-9
0.213, -8.423e-9
0.212, -8.177e-9
0.211, -8.146e-9
0.210, -8.269e-9
0.209, -8.331e-9
0.208, -8.146e-9
0.207, -8.023e-9
0.206, -8.177e-9
0.205, -8.238e-9
0.204, -8.084e-9
0.203, -7.931e-9
0.202, -8.023e-9
0.201, -8.146e-9
0.200, -8.054e-9
0.199, -7.808e-9
0.198, -7.900e-9
0.197, -8.084e-9
0.196, -7.961e-9
0.195, -7.777e-9
0.194, -7.777e-9
0.193, -7.961e-9
0.192, -7.931e-9
0.191, -7.654e-9
0.190, -7.684e-9
0.189, -7.838e-9
0.188, -7.838e-9
0.187, -7.654e-9
0.186, -7.561e-9
0.185, -7.715e-9
0.184, -7.746e-9
0.183, -7.531e-9
0.182, -7.469e-9
0.181, -7.561e-9
0.180, -7.654e-9
0.179, -7.500e-9
0.178, -7.315e-9
0.177, -7.438e-9
0.176, -7.561e-9
0.175, -7.438e-9
0.174, -7.223e-9
0.173, -7.285e-9
0.172, -7.469e-9
0.171, -7.377e-9
0.170, -7.131e-9
0.169, -7.131e-9
0.168, -7.315e-9
0.167, -7.254e-9
0.166, -7.008e-9
0.165, -7.008e-9
0.164, -7.131e-9
0.163, -7.161e-9
0.162, -6.946e-9
0.161, -6.823e-9
0.160, -7.008e-9
0.159, -7.038e-9
0.158, -6.823e-9
0.157, -6.731e-9
0.156, -6.792e-9
0.155, -6.915e-9
0.154, -6.700e-9
0.153, -6.546e-9
0.152, -6.638e-9
0.151, -6.700e-9
0.150, -6.608e-9
0.149, -6.362e-9
0.148, -6.423e-9
0.147, -6.608e-9
0.146, -6.423e-9
0.145, -6.208e-9
0.144, -6.208e-9
0.143, -6.331e-9
0.142, -6.300e-9
0.141, -6.023e-9
0.140, -5.992e-9
0.139, -6.115e-9
0.138, -6.085e-9
0.137, -5.839e-9
0.136, -5.715e-9
0.135, -5.839e-9
0.134, -5.869e-9
0.133, -5.623e-9
0.132, -5.469e-9
0.131, -5.531e-9
0.130, -5.592e-9
0.129, -5.377e-9
0.128, -5.162e-9
0.127, -5.223e-9
0.126, -5.285e-9
0.125, -5.100e-9
0.124, -4.823e-9
0.123, -4.854e-9
0.122, -4.946e-9
0.121, -4.762e-9
0.120, -4.485e-9
0.119, -4.423e-9
0.118, -4.546e-9
0.117, -4.423e-9
0.116, -4.085e-9
0.115, -3.993e-9
0.114, -4.054e-9
0.113, -3.993e-9
0.112, -3.685e-9
0.111, -3.470e-9
0.110, -3.562e-9
0.109, -3.500e-9
0.108, -3.193e-9
0.107, -2.977e-9
0.106, -2.947e-9
0.105, -2.916e-9
0.104, -2.670e-9
0.103, -2.331e-9
0.102, -2.301e-9
0.101, -2.270e-9
0.100, -1.993e-9
0.099, -1.685e-9
0.098, -1.562e-9
0.097, -1.562e-9
0.096, -1.316e-9
0.095, -9.161e-10
0.094, -7.623e-10
0.093, -7.623e-10
0.092, -5.162e-10
0.091, -1.162e-10
0.090, 1.299e-10
0.089, 1.606e-10
0.088, 3.760e-10
0.087, 8.067e-10
0.086, 1.084e-9
0.085, 1.207e-9
0.084, 1.360e-9
0.083, 1.791e-9
0.082, 2.160e-9
0.081, 2.314e-9
0.080, 2.468e-9
0.079, 2.899e-9
0.078, 3.329e-9
0.077, 3.483e-9
0.076, 3.668e-9
0.075, 4.068e-9
0.074, 4.560e-9
0.073, 4.775e-9
0.072, 4.929e-9
0.071, 5.329e-9
0.070, 5.852e-9
0.069, 6.098e-9
0.068, 6.344e-9
0.067, 6.652e-9
0.066, 7.237e-9
0.065, 7.606e-9
0.064, 7.729e-9
0.063, 8.129e-9
0.062, 8.621e-9
0.061, 9.052e-9
0.060, 9.298e-9
0.059, 9.544e-9
0.058, 1.013e-8
0.057, 1.056e-8
0.056, 1.077e-8
0.055, 1.108e-8
0.054, 1.151e-8
0.053, 1.207e-8
0.052, 1.234e-8
0.051, 1.253e-8
0.050, 1.302e-8
0.049, 1.351e-8
0.048, 1.382e-8
0.047, 1.400e-8
0.046, 1.440e-8
0.045, 1.496e-8
0.044, 1.524e-8
0.043, 1.542e-8
0.042, 1.576e-8
0.041, 1.631e-8
0.040, 1.659e-8
0.039, 1.677e-8
0.038, 1.705e-8
0.037, 1.751e-8
0.036, 1.788e-8
0.035, 1.794e-8
0.034, 1.816e-8
0.033, 1.859e-8
0.032, 1.890e-8
0.031, 1.905e-8
0.030, 1.914e-8
0.029, 1.948e-8
0.028, 1.988e-8
0.027, 1.991e-8
0.026, 2.000e-8
0.025, 2.028e-8
0.024, 2.059e-8
0.023, 2.068e-8
0.022, 2.065e-8
0.021, 2.087e-8
0.020, 2.120e-8
0.019, 2.120e-8
0.018, 2.120e-8
0.017, 2.130e-8
0.016, 2.157e-8
0.015, 2.167e-8
0.014, 2.154e-8
0.013, 2.157e-8
0.012, 2.182e-8
0.011, 2.185e-8
0.010, 2.176e-8
0.009, 2.167e-8
0.008, 2.188e-8
0.007, 2.197e-8
0.006, 2.179e-8
0.005, 2.167e-8
0.004, 2.182e-8
0.003, 2.188e-8
0.002, 2.176e-8
0.001, 2.154e-8
0.000, 2.176e-8
-0.001, 2.179e-8
-0.002, 2.160e-8
-0.003, 2.136e-8
-0.004, 2.136e-8
-0.005, 2.145e-8
-0.006, 2.133e-8
-0.007, 2.108e-8
-0.008, 2.099e-8
-0.009, 2.111e-8
-0.010, 2.099e-8
-0.011, 2.071e-8
-0.012, 2.059e-8
-0.013, 2.068e-8
-0.014, 2.059e-8
-0.015, 2.034e-8
-0.016, 2.010e-8
-0.017, 2.022e-8
-0.018, 2.016e-8
-0.019, 1.988e-8
-0.020, 1.970e-8
-0.021, 1.967e-8
-0.022, 1.970e-8
-0.023, 1.948e-8
-0.024, 1.914e-8
-0.025, 1.917e-8
-0.026, 1.920e-8
-0.027, 1.899e-8
-0.028, 1.871e-8
-0.029, 1.859e-8
-0.030, 1.874e-8
-0.031, 1.853e-8
-0.032, 1.822e-8
-0.033, 1.813e-8
-0.034, 1.819e-8
-0.035, 1.810e-8
-0.036, 1.779e-8
-0.037, 1.760e-8
-0.038, 1.770e-8
-0.039, 1.760e-8
-0.040, 1.733e-8
-0.041, 1.714e-8
-0.042, 1.717e-8
-0.043, 1.717e-8
-0.044, 1.690e-8
-0.045, 1.665e-8
-0.046, 1.668e-8
-0.047, 1.671e-8
-0.048, 1.647e-8
-0.049, 1.622e-8
-0.050, 1.622e-8
-0.051, 1.628e-8
-0.052, 1.613e-8
-0.053, 1.579e-8
-0.054, 1.576e-8
-0.055, 1.588e-8
-0.056, 1.570e-8
-0.057, 1.545e-8
-0.058, 1.533e-8
-0.059, 1.542e-8
-0.060, 1.536e-8
-0.061, 1.505e-8
-0.062, 1.496e-8
-0.063, 1.505e-8
-0.064, 1.499e-8
-0.065, 1.477e-8
-0.066, 1.459e-8
-0.067, 1.465e-8
-0.068, 1.468e-8
-0.069, 1.444e-8
-0.070, 1.425e-8
-0.071, 1.428e-8
-0.072, 1.437e-8
-0.073, 1.416e-8
-0.074, 1.391e-8
-0.075, 1.394e-8
-0.076, 1.407e-8
-0.077, 1.388e-8
-0.078, 1.364e-8
-0.079, 1.364e-8
-0.080, 1.376e-8
-0.081, 1.367e-8
-0.082, 1.336e-8
-0.083, 1.333e-8
-0.084, 1.348e-8
-0.085, 1.339e-8
-0.086, 1.317e-8
-0.087, 1.305e-8
-0.088, 1.317e-8
-0.089, 1.317e-8
-0.090, 1.296e-8
-0.091, 1.281e-8
-0.092, 1.293e-8
-0.093, 1.293e-8
-0.094, 1.274e-8
-0.095, 1.256e-8
-0.096, 1.265e-8
-0.097, 1.274e-8
-0.098, 1.256e-8
-0.099, 1.234e-8
-0.100, 1.241e-8
-0.101, 1.253e-8
-0.102, 1.237e-8
-0.103, 1.219e-8
-0.104, 1.216e-8
-0.105, 1.234e-8
-0.106, 1.225e-8
-0.107, 1.201e-8
-0.108, 1.201e-8
-0.109, 1.213e-8
-0.110, 1.207e-8
-0.111, 1.185e-8
-0.112, 1.176e-8
-0.113, 1.194e-8
-0.114, 1.191e-8
-0.115, 1.173e-8
-0.116, 1.164e-8
-0.117, 1.170e-8
-0.118, 1.182e-8
-0.119, 1.161e-8
-0.120, 1.145e-8
-0.121, 1.157e-8
-0.122, 1.164e-8
-0.123, 1.151e-8
-0.124, 1.130e-8
-0.125, 1.136e-8
-0.126, 1.151e-8
-0.127, 1.139e-8
-0.128, 1.121e-8
-0.129, 1.121e-8
-0.130, 1.136e-8
-0.131, 1.130e-8
-0.132, 1.105e-8
-0.133, 1.105e-8
-0.134, 1.124e-8
-0.135, 1.121e-8
-0.136, 1.099e-8
-0.137, 1.090e-8
-0.138, 1.108e-8
-0.139, 1.108e-8
-0.140, 1.093e-8
-0.141, 1.081e-8
-0.142, 1.093e-8
-0.143, 1.102e-8
-0.144, 1.084e-8
-0.145, 1.071e-8
-0.146, 1.081e-8
-0.147, 1.090e-8
-0.148, 1.081e-8
-0.149, 1.059e-8
-0.150, 1.068e-8
-0.151, 1.084e-8
-0.152, 1.071e-8
-0.153, 1.053e-8
-0.154, 1.056e-8
-0.155, 1.071e-8
-0.156, 1.065e-8
-0.157, 1.044e-8
-0.158, 1.047e-8
-0.159, 1.062e-8
-0.160, 1.059e-8
-0.161, 1.041e-8
-0.162, 1.034e-8
-0.163, 1.053e-8
-0.164, 1.056e-8
-0.165, 1.034e-8
-0.166, 1.025e-8
-0.167, 1.044e-8
-0.168, 1.050e-8
-0.169, 1.034e-8
-0.170, 1.016e-8
-0.171, 1.031e-8
-0.172, 1.044e-8
-0.173, 1.028e-8
-0.174, 1.013e-8
-0.175, 1.019e-8
-0.176, 1.034e-8
-0.177, 1.025e-8
-0.178, 1.007e-8
-0.179, 1.013e-8
-0.180, 1.028e-8
-0.181, 1.022e-8
-0.182, 1.004e-8
-0.183, 1.004e-8
-0.184, 1.022e-8
-0.185, 1.019e-8
-0.186, 1.001e-8
-0.187, 9.944e-9
-0.188, 1.016e-8
-0.189, 1.016e-8
-0.190, 9.975e-9
-0.191, 9.913e-9
-0.192, 1.004e-8
-0.193, 1.016e-8
-0.194, 9.975e-9
-0.195, 9.821e-9
-0.196, 1.001e-8
-0.197, 1.010e-8
-0.198, 9.975e-9
-0.199, 9.821e-9
