Mar. 16, 2023   09:01:32
Cyclic Voltammetry
File: c:/users/oliverrz/desktop/electrolab/data/2023_03_16\fcmeoh_macros_250_um\electrode7_cv_200mvs_250_um.bin
Data Source:  Experiment
Instrument Model:  CHI760E
Header: CV
Note: 

Init E (V) = -0.2
High E (V) = 0.3
Low E (V) = -0.2
Final E (V) = -0.2
Init P/N = P
Scan Rate (V/s) = 0.2
Segment = 3
Sample Interval (V) = 0.001
Quiet Time (sec) = 2
Sensitivity (A/V) = 1e-7

Results:

Channel 1:
Segment 1:
Ep = 0.064V
ip = -2.405e-8A
Ah = -7.375e-9C

Segment 2:
Ep = 0.001V
ip = 2.303e-8A
Ah = 7.377e-9C

Segment 3:

Potential/V, Current/A

-0.200, 2.388e-9
-0.199, 1.746e-9
-0.198, 1.903e-9
-0.197, 1.851e-9
-0.196, 1.591e-9
-0.195, 1.727e-9
-0.194, 1.813e-9
-0.193, 1.553e-9
-0.192, 1.556e-9
-0.191, 1.753e-9
-0.190, 1.568e-9
-0.189, 1.439e-9
-0.188, 1.645e-9
-0.187, 1.604e-9
-0.186, 1.373e-9
-0.185, 1.498e-9
-0.184, 1.611e-9
-0.183, 1.362e-9
-0.182, 1.358e-9
-0.181, 1.568e-9
-0.180, 1.386e-9
-0.179, 1.252e-9
-0.178, 1.476e-9
-0.177, 1.420e-9
-0.176, 1.213e-9
-0.175, 1.346e-9
-0.174, 1.439e-9
-0.173, 1.209e-9
-0.172, 1.210e-9
-0.171, 1.412e-9
-0.170, 1.246e-9
-0.169, 1.095e-9
-0.168, 1.332e-9
-0.167, 1.281e-9
-0.166, 1.056e-9
-0.165, 1.198e-9
-0.164, 1.304e-9
-0.163, 1.069e-9
-0.162, 1.075e-9
-0.161, 1.265e-9
-0.160, 1.118e-9
-0.159, 9.711e-10
-0.158, 1.196e-9
-0.157, 1.155e-9
-0.156, 9.249e-10
-0.155, 1.072e-9
-0.154, 1.177e-9
-0.153, 9.177e-10
-0.152, 9.493e-10
-0.151, 1.147e-9
-0.150, 9.776e-10
-0.149, 8.361e-10
-0.148, 1.071e-9
-0.147, 1.017e-9
-0.146, 8.074e-10
-0.145, 9.250e-10
-0.144, 1.060e-9
-0.143, 8.037e-10
-0.142, 8.105e-10
-0.141, 1.017e-9
-0.140, 8.483e-10
-0.139, 7.131e-10
-0.138, 9.464e-10
-0.137, 8.831e-10
-0.136, 6.776e-10
-0.135, 8.136e-10
-0.134, 9.152e-10
-0.133, 6.774e-10
-0.132, 6.869e-10
-0.131, 8.907e-10
-0.130, 7.240e-10
-0.129, 5.692e-10
-0.128, 8.133e-10
-0.127, 7.601e-10
-0.126, 5.300e-10
-0.125, 6.745e-10
-0.124, 7.811e-10
-0.123, 5.330e-10
-0.122, 5.593e-10
-0.121, 7.377e-10
-0.120, 5.881e-10
-0.119, 4.380e-10
-0.118, 6.667e-10
-0.117, 6.234e-10
-0.116, 3.852e-10
-0.115, 5.232e-10
-0.114, 6.465e-10
-0.113, 3.714e-10
-0.112, 4.050e-10
-0.111, 5.972e-10
-0.110, 4.194e-10
-0.109, 2.852e-10
-0.108, 5.042e-10
-0.107, 4.523e-10
-0.106, 2.461e-10
-0.105, 3.515e-10
-0.104, 4.725e-10
-0.103, 2.044e-10
-0.102, 2.222e-10
-0.101, 4.150e-10
-0.100, 2.490e-10
-0.099, 9.453e-11
-0.098, 3.247e-10
-0.097, 2.545e-10
-0.096, 4.659e-11
-0.095, 1.599e-10
-0.094, 2.601e-10
-0.093, 1.370e-11
-0.092, 1.528e-11
-0.091, 2.023e-10
-0.090, 2.050e-11
-0.089, -1.335e-10
-0.088, 9.483e-11
-0.087, 2.946e-11
-0.086, -2.096e-10
-0.085, -7.953e-11
-0.084, 6.419e-12
-0.083, -2.461e-10
-0.082, -2.502e-10
-0.081, -7.874e-11
-0.080, -2.489e-10
-0.079, -4.151e-10
-0.078, -2.098e-10
-0.077, -2.785e-10
-0.076, -5.286e-10
-0.075, -4.046e-10
-0.074, -3.157e-10
-0.073, -6.014e-10
-0.072, -5.965e-10
-0.071, -4.318e-10
-0.070, -6.360e-10
-0.069, -7.912e-10
-0.068, -6.040e-10
-0.067, -6.751e-10
-0.066, -9.386e-10
-0.065, -8.404e-10
-0.064, -7.644e-10
-0.063, -1.044e-9
-0.062, -1.081e-9
-0.061, -9.110e-10
-0.060, -1.133e-9
-0.059, -1.301e-9
-0.058, -1.131e-9
-0.057, -1.236e-9
-0.056, -1.497e-9
-0.055, -1.401e-9
-0.054, -1.375e-9
-0.053, -1.655e-9
-0.052, -1.728e-9
-0.051, -1.578e-9
-0.050, -1.809e-9
-0.049, -2.020e-9
-0.048, -1.856e-9
-0.047, -1.974e-9
-0.046, -2.285e-9
-0.045, -2.202e-9
-0.044, -2.208e-9
-0.043, -2.509e-9
-0.042, -2.587e-9
-0.041, -2.491e-9
-0.040, -2.746e-9
-0.039, -2.974e-9
-0.038, -2.870e-9
-0.037, -2.998e-9
-0.036, -3.350e-9
-0.035, -3.298e-9
-0.034, -3.328e-9
-0.033, -3.679e-9
-0.032, -3.785e-9
-0.031, -3.709e-9
-0.030, -4.030e-9
-0.029, -4.265e-9
-0.028, -4.216e-9
-0.027, -4.394e-9
-0.026, -4.776e-9
-0.025, -4.790e-9
-0.024, -4.848e-9
-0.023, -5.230e-9
-0.022, -5.414e-9
-0.021, -5.360e-9
-0.020, -5.741e-9
-0.019, -6.026e-9
-0.018, -6.021e-9
-0.017, -6.253e-9
-0.016, -6.668e-9
-0.015, -6.726e-9
-0.014, -6.865e-9
-0.013, -7.290e-9
-0.012, -7.534e-9
-0.011, -7.532e-9
-0.010, -7.956e-9
-0.009, -8.320e-9
-0.008, -8.343e-9
-0.007, -8.630e-9
-0.006, -9.119e-9
-0.005, -9.206e-9
-0.004, -9.406e-9
-0.003, -9.878e-9
-0.002, -1.015e-8
-0.001, -1.025e-8
-0.000, -1.082e-8
0.001, -1.115e-8
0.002, -1.123e-8
0.003, -1.153e-8
0.004, -1.208e-8
0.005, -1.221e-8
0.006, -1.245e-8
0.007, -1.298e-8
0.008, -1.328e-8
0.009, -1.339e-8
0.010, -1.390e-8
0.011, -1.431e-8
0.012, -1.445e-8
0.013, -1.480e-8
0.014, -1.536e-8
0.015, -1.553e-8
0.016, -1.577e-8
0.017, -1.632e-8
0.018, -1.666e-8
0.019, -1.675e-8
0.020, -1.728e-8
0.021, -1.767e-8
0.022, -1.780e-8
0.023, -1.816e-8
0.024, -1.868e-8
0.025, -1.886e-8
0.026, -1.910e-8
0.027, -1.958e-8
0.028, -1.990e-8
0.029, -1.997e-8
0.030, -2.044e-8
0.031, -2.084e-8
0.032, -2.089e-8
0.033, -2.121e-8
0.034, -2.169e-8
0.035, -2.177e-8
0.036, -2.197e-8
0.037, -2.238e-8
0.038, -2.264e-8
0.039, -2.266e-8
0.040, -2.302e-8
0.041, -2.335e-8
0.042, -2.335e-8
0.043, -2.356e-8
0.044, -2.398e-8
0.045, -2.396e-8
0.046, -2.406e-8
0.047, -2.442e-8
0.048, -2.453e-8
0.049, -2.448e-8
0.050, -2.478e-8
0.051, -2.500e-8
0.052, -2.490e-8
0.053, -2.502e-8
0.054, -2.530e-8
0.055, -2.524e-8
0.056, -2.520e-8
0.057, -2.547e-8
0.058, -2.552e-8
0.059, -2.534e-8
0.060, -2.556e-8
0.061, -2.567e-8
0.062, -2.548e-8
0.063, -2.554e-8
0.064, -2.574e-8
0.065, -2.559e-8
0.066, -2.548e-8
0.067, -2.565e-8
0.068, -2.563e-8
0.069, -2.537e-8
0.070, -2.551e-8
0.071, -2.558e-8
0.072, -2.530e-8
0.073, -2.528e-8
0.074, -2.544e-8
0.075, -2.520e-8
0.076, -2.506e-8
0.077, -2.519e-8
0.078, -2.509e-8
0.079, -2.483e-8
0.080, -2.488e-8
0.081, -2.491e-8
0.082, -2.460e-8
0.083, -2.454e-8
0.084, -2.466e-8
0.085, -2.439e-8
0.086, -2.420e-8
0.087, -2.433e-8
0.088, -2.417e-8
0.089, -2.388e-8
0.090, -2.394e-8
0.091, -2.393e-8
0.092, -2.360e-8
0.093, -2.354e-8
0.094, -2.362e-8
0.095, -2.338e-8
0.096, -2.313e-8
0.097, -2.326e-8
0.098, -2.311e-8
0.099, -2.279e-8
0.100, -2.285e-8
0.101, -2.285e-8
0.102, -2.251e-8
0.103, -2.245e-8
0.104, -2.252e-8
0.105, -2.226e-8
0.106, -2.206e-8
0.107, -2.216e-8
0.108, -2.202e-8
0.109, -2.171e-8
0.110, -2.176e-8
0.111, -2.179e-8
0.112, -2.142e-8
0.113, -2.137e-8
0.114, -2.147e-8
0.115, -2.121e-8
0.116, -2.101e-8
0.117, -2.113e-8
0.118, -2.099e-8
0.119, -2.071e-8
0.120, -2.075e-8
0.121, -2.078e-8
0.122, -2.045e-8
0.123, -2.039e-8
0.124, -2.051e-8
0.125, -2.026e-8
0.126, -2.005e-8
0.127, -2.021e-8
0.128, -2.009e-8
0.129, -1.979e-8
0.130, -1.987e-8
0.131, -1.990e-8
0.132, -1.958e-8
0.133, -1.954e-8
0.134, -1.965e-8
0.135, -1.943e-8
0.136, -1.923e-8
0.137, -1.939e-8
0.138, -1.928e-8
0.139, -1.901e-8
0.140, -1.909e-8
0.141, -1.914e-8
0.142, -1.882e-8
0.143, -1.882e-8
0.144, -1.892e-8
0.145, -1.871e-8
0.146, -1.854e-8
0.147, -1.870e-8
0.148, -1.860e-8
0.149, -1.833e-8
0.150, -1.842e-8
0.151, -1.849e-8
0.152, -1.817e-8
0.153, -1.818e-8
0.154, -1.831e-8
0.155, -1.810e-8
0.156, -1.793e-8
0.157, -1.811e-8
0.158, -1.801e-8
0.159, -1.777e-8
0.160, -1.786e-8
0.161, -1.793e-8
0.162, -1.764e-8
0.163, -1.763e-8
0.164, -1.779e-8
0.165, -1.758e-8
0.166, -1.742e-8
0.167, -1.762e-8
0.168, -1.752e-8
0.169, -1.727e-8
0.170, -1.740e-8
0.171, -1.746e-8
0.172, -1.718e-8
0.173, -1.718e-8
0.174, -1.733e-8
0.175, -1.716e-8
0.176, -1.699e-8
0.177, -1.718e-8
0.178, -1.711e-8
0.179, -1.687e-8
0.180, -1.699e-8
0.181, -1.707e-8
0.182, -1.679e-8
0.183, -1.682e-8
0.184, -1.697e-8
0.185, -1.678e-8
0.186, -1.664e-8
0.187, -1.683e-8
0.188, -1.678e-8
0.189, -1.653e-8
0.190, -1.665e-8
0.191, -1.675e-8
0.192, -1.648e-8
0.193, -1.649e-8
0.194, -1.667e-8
0.195, -1.647e-8
0.196, -1.635e-8
0.197, -1.654e-8
0.198, -1.647e-8
0.199, -1.625e-8
0.200, -1.638e-8
0.201, -1.646e-8
0.202, -1.622e-8
0.203, -1.621e-8
0.204, -1.642e-8
0.205, -1.622e-8
0.206, -1.609e-8
0.207, -1.630e-8
0.208, -1.624e-8
0.209, -1.600e-8
0.210, -1.616e-8
0.211, -1.623e-8
0.212, -1.599e-8
0.213, -1.600e-8
0.214, -1.619e-8
0.215, -1.601e-8
0.216, -1.588e-8
0.217, -1.608e-8
0.218, -1.606e-8
0.219, -1.581e-8
0.220, -1.597e-8
0.221, -1.605e-8
0.222, -1.580e-8
0.223, -1.583e-8
0.224, -1.602e-8
0.225, -1.583e-8
0.226, -1.573e-8
0.227, -1.592e-8
0.228, -1.590e-8
0.229, -1.565e-8
0.230, -1.582e-8
0.231, -1.591e-8
0.232, -1.566e-8
0.233, -1.568e-8
0.234, -1.590e-8
0.235, -1.569e-8
0.236, -1.560e-8
0.237, -1.579e-8
0.238, -1.576e-8
0.239, -1.555e-8
0.240, -1.569e-8
0.241, -1.579e-8
0.242, -1.556e-8
0.243, -1.557e-8
0.244, -1.579e-8
0.245, -1.559e-8
0.246, -1.550e-8
0.247, -1.571e-8
0.248, -1.567e-8
0.249, -1.545e-8
0.250, -1.562e-8
0.251, -1.570e-8
0.252, -1.549e-8
0.253, -1.550e-8
0.254, -1.571e-8
0.255, -1.554e-8
0.256, -1.545e-8
0.257, -1.564e-8
0.258, -1.563e-8
0.259, -1.539e-8
0.260, -1.558e-8
0.261, -1.566e-8
0.262, -1.544e-8
0.263, -1.547e-8
0.264, -1.568e-8
0.265, -1.550e-8
0.266, -1.542e-8
0.267, -1.562e-8
0.268, -1.560e-8
0.269, -1.538e-8
0.270, -1.556e-8
0.271, -1.567e-8
0.272, -1.543e-8
0.273, -1.546e-8
0.274, -1.569e-8
0.275, -1.550e-8
0.276, -1.543e-8
0.277, -1.563e-8
0.278, -1.561e-8
0.279, -1.540e-8
0.280, -1.558e-8
0.281, -1.568e-8
0.282, -1.547e-8
0.283, -1.550e-8
0.284, -1.573e-8
0.285, -1.555e-8
0.286, -1.547e-8
0.287, -1.569e-8
0.288, -1.567e-8
0.289, -1.545e-8
0.290, -1.565e-8
0.291, -1.574e-8
0.292, -1.555e-8
0.293, -1.557e-8
0.294, -1.581e-8
0.295, -1.564e-8
0.296, -1.555e-8
0.297, -1.578e-8
0.298, -1.578e-8
0.299, -1.556e-8
0.300, -1.389e-8
0.299, -1.254e-8
0.298, -1.200e-8
0.297, -1.179e-8
0.296, -1.184e-8
0.295, -1.149e-8
0.294, -1.127e-8
0.293, -1.136e-8
0.292, -1.120e-8
0.291, -1.089e-8
0.290, -1.096e-8
0.289, -1.096e-8
0.288, -1.066e-8
0.287, -1.059e-8
0.286, -1.074e-8
0.285, -1.049e-8
0.284, -1.032e-8
0.283, -1.047e-8
0.282, -1.037e-8
0.281, -1.009e-8
0.280, -1.022e-8
0.279, -1.025e-8
0.278, -9.972e-9
0.277, -9.952e-9
0.276, -1.010e-8
0.275, -9.893e-9
0.274, -9.748e-9
0.273, -9.904e-9
0.272, -9.847e-9
0.271, -9.577e-9
0.270, -9.705e-9
0.269, -9.768e-9
0.268, -9.487e-9
0.267, -9.496e-9
0.266, -9.672e-9
0.265, -9.442e-9
0.264, -9.329e-9
0.263, -9.508e-9
0.262, -9.442e-9
0.261, -9.193e-9
0.260, -9.320e-9
0.259, -9.405e-9
0.258, -9.139e-9
0.257, -9.134e-9
0.256, -9.317e-9
0.255, -9.113e-9
0.254, -8.988e-9
0.253, -9.188e-9
0.252, -9.109e-9
0.251, -8.890e-9
0.250, -9.024e-9
0.249, -9.091e-9
0.248, -8.839e-9
0.247, -8.844e-9
0.246, -9.024e-9
0.245, -8.835e-9
0.244, -8.698e-9
0.243, -8.906e-9
0.242, -8.844e-9
0.241, -8.606e-9
0.240, -8.755e-9
0.239, -8.835e-9
0.238, -8.567e-9
0.237, -8.599e-9
0.236, -8.767e-9
0.235, -8.592e-9
0.234, -8.461e-9
0.233, -8.659e-9
0.232, -8.603e-9
0.231, -8.368e-9
0.230, -8.505e-9
0.229, -8.609e-9
0.228, -8.331e-9
0.227, -8.367e-9
0.226, -8.546e-9
0.225, -8.358e-9
0.224, -8.238e-9
0.223, -8.441e-9
0.222, -8.371e-9
0.221, -8.163e-9
0.220, -8.284e-9
0.219, -8.392e-9
0.218, -8.120e-9
0.217, -8.144e-9
0.216, -8.341e-9
0.215, -8.145e-9
0.214, -8.023e-9
0.213, -8.242e-9
0.212, -8.166e-9
0.211, -7.951e-9
0.210, -8.094e-9
0.209, -8.175e-9
0.208, -7.920e-9
0.207, -7.950e-9
0.206, -8.124e-9
0.205, -7.941e-9
0.204, -7.809e-9
0.203, -8.042e-9
0.202, -7.967e-9
0.201, -7.745e-9
0.200, -7.884e-9
0.199, -7.980e-9
0.198, -7.709e-9
0.197, -7.754e-9
0.196, -7.913e-9
0.195, -7.751e-9
0.194, -7.622e-9
0.193, -7.825e-9
0.192, -7.770e-9
0.191, -7.541e-9
0.190, -7.680e-9
0.189, -7.780e-9
0.188, -7.501e-9
0.187, -7.548e-9
0.186, -7.721e-9
0.185, -7.533e-9
0.184, -7.418e-9
0.183, -7.619e-9
0.182, -7.552e-9
0.181, -7.339e-9
0.180, -7.461e-9
0.179, -7.559e-9
0.178, -7.297e-9
0.177, -7.317e-9
0.176, -7.504e-9
0.175, -7.308e-9
0.174, -7.174e-9
0.173, -7.404e-9
0.172, -7.314e-9
0.171, -7.101e-9
0.170, -7.235e-9
0.169, -7.320e-9
0.168, -7.049e-9
0.167, -7.074e-9
0.166, -7.245e-9
0.165, -7.064e-9
0.164, -6.918e-9
0.163, -7.142e-9
0.162, -7.055e-9
0.161, -6.826e-9
0.160, -6.970e-9
0.159, -7.039e-9
0.158, -6.769e-9
0.157, -6.800e-9
0.156, -6.950e-9
0.155, -6.765e-9
0.154, -6.629e-9
0.153, -6.824e-9
0.152, -6.754e-9
0.151, -6.509e-9
0.150, -6.642e-9
0.149, -6.719e-9
0.148, -6.424e-9
0.147, -6.457e-9
0.146, -6.612e-9
0.145, -6.399e-9
0.144, -6.267e-9
0.143, -6.454e-9
0.142, -6.366e-9
0.141, -6.121e-9
0.140, -6.224e-9
0.139, -6.313e-9
0.138, -6.021e-9
0.137, -6.016e-9
0.136, -6.164e-9
0.135, -5.956e-9
0.134, -5.800e-9
0.133, -5.987e-9
0.132, -5.861e-9
0.131, -5.630e-9
0.130, -5.727e-9
0.129, -5.769e-9
0.128, -5.473e-9
0.127, -5.452e-9
0.126, -5.587e-9
0.125, -5.372e-9
0.124, -5.182e-9
0.123, -5.359e-9
0.122, -5.231e-9
0.121, -4.951e-9
0.120, -5.044e-9
0.119, -5.070e-9
0.118, -4.743e-9
0.117, -4.723e-9
0.116, -4.816e-9
0.115, -4.574e-9
0.114, -4.373e-9
0.113, -4.505e-9
0.112, -4.370e-9
0.111, -4.063e-9
0.110, -4.127e-9
0.109, -4.134e-9
0.108, -3.755e-9
0.107, -3.721e-9
0.106, -3.788e-9
0.105, -3.506e-9
0.104, -3.302e-9
0.103, -3.380e-9
0.102, -3.198e-9
0.101, -2.877e-9
0.100, -2.881e-9
0.099, -2.871e-9
0.098, -2.469e-9
0.097, -2.362e-9
0.096, -2.415e-9
0.095, -2.074e-9
0.094, -1.819e-9
0.093, -1.885e-9
0.092, -1.642e-9
0.091, -1.296e-9
0.090, -1.253e-9
0.089, -1.156e-9
0.088, -7.544e-10
0.087, -5.880e-10
0.086, -5.850e-10
0.085, -2.130e-10
0.084, 1.074e-10
0.083, 8.469e-11
0.082, 3.671e-10
0.081, 8.124e-10
0.080, 8.668e-10
0.079, 1.031e-9
0.078, 1.497e-9
0.077, 1.700e-9
0.076, 1.783e-9
0.075, 2.188e-9
0.074, 2.548e-9
0.073, 2.617e-9
0.072, 2.917e-9
0.071, 3.405e-9
0.070, 3.520e-9
0.069, 3.711e-9
0.068, 4.258e-9
0.067, 4.475e-9
0.066, 4.600e-9
0.065, 5.089e-9
0.064, 5.471e-9
0.063, 5.591e-9
0.062, 5.946e-9
0.061, 6.447e-9
0.060, 6.627e-9
0.059, 6.844e-9
0.058, 7.407e-9
0.057, 7.696e-9
0.056, 7.826e-9
0.055, 8.355e-9
0.054, 8.753e-9
0.053, 8.881e-9
0.052, 9.283e-9
0.051, 9.804e-9
0.050, 9.971e-9
0.049, 1.022e-8
0.048, 1.076e-8
0.047, 1.106e-8
0.046, 1.118e-8
0.045, 1.168e-8
0.044, 1.210e-8
0.043, 1.218e-8
0.042, 1.254e-8
0.041, 1.306e-8
0.040, 1.318e-8
0.039, 1.342e-8
0.038, 1.393e-8
0.037, 1.416e-8
0.036, 1.428e-8
0.035, 1.469e-8
0.034, 1.504e-8
0.033, 1.514e-8
0.032, 1.539e-8
0.031, 1.587e-8
0.030, 1.592e-8
0.029, 1.607e-8
0.028, 1.653e-8
0.027, 1.669e-8
0.026, 1.671e-8
0.025, 1.710e-8
0.024, 1.733e-8
0.023, 1.733e-8
0.022, 1.750e-8
0.021, 1.787e-8
0.020, 1.787e-8
0.019, 1.790e-8
0.018, 1.826e-8
0.017, 1.833e-8
0.016, 1.822e-8
0.015, 1.854e-8
0.014, 1.868e-8
0.013, 1.858e-8
0.012, 1.869e-8
0.011, 1.893e-8
0.010, 1.882e-8
0.009, 1.881e-8
0.008, 1.905e-8
0.007, 1.905e-8
0.006, 1.885e-8
0.005, 1.904e-8
0.004, 1.916e-8
0.003, 1.893e-8
0.002, 1.896e-8
0.001, 1.916e-8
0.000, 1.907e-8
-0.001, 1.890e-8
-0.002, 1.907e-8
-0.003, 1.897e-8
-0.004, 1.874e-8
-0.005, 1.885e-8
-0.006, 1.888e-8
-0.007, 1.862e-8
-0.008, 1.857e-8
-0.009, 1.874e-8
-0.010, 1.846e-8
-0.011, 1.831e-8
-0.012, 1.847e-8
-0.013, 1.833e-8
-0.014, 1.805e-8
-0.015, 1.815e-8
-0.016, 1.811e-8
-0.017, 1.784e-8
-0.018, 1.776e-8
-0.019, 1.788e-8
-0.020, 1.761e-8
-0.021, 1.741e-8
-0.022, 1.754e-8
-0.023, 1.740e-8
-0.024, 1.707e-8
-0.025, 1.716e-8
-0.026, 1.714e-8
-0.027, 1.681e-8
-0.028, 1.675e-8
-0.029, 1.684e-8
-0.030, 1.656e-8
-0.031, 1.637e-8
-0.032, 1.647e-8
-0.033, 1.634e-8
-0.034, 1.601e-8
-0.035, 1.608e-8
-0.036, 1.607e-8
-0.037, 1.574e-8
-0.038, 1.567e-8
-0.039, 1.578e-8
-0.040, 1.548e-8
-0.041, 1.530e-8
-0.042, 1.542e-8
-0.043, 1.527e-8
-0.044, 1.497e-8
-0.045, 1.505e-8
-0.046, 1.501e-8
-0.047, 1.472e-8
-0.048, 1.464e-8
-0.049, 1.477e-8
-0.050, 1.448e-8
-0.051, 1.431e-8
-0.052, 1.445e-8
-0.053, 1.431e-8
-0.054, 1.400e-8
-0.055, 1.410e-8
-0.056, 1.408e-8
-0.057, 1.379e-8
-0.058, 1.372e-8
-0.059, 1.386e-8
-0.060, 1.359e-8
-0.061, 1.341e-8
-0.062, 1.355e-8
-0.063, 1.344e-8
-0.064, 1.314e-8
-0.065, 1.326e-8
-0.066, 1.325e-8
-0.067, 1.296e-8
-0.068, 1.292e-8
-0.069, 1.306e-8
-0.070, 1.279e-8
-0.071, 1.265e-8
-0.072, 1.278e-8
-0.073, 1.269e-8
-0.074, 1.239e-8
-0.075, 1.251e-8
-0.076, 1.253e-8
-0.077, 1.225e-8
-0.078, 1.221e-8
-0.079, 1.237e-8
-0.080, 1.212e-8
-0.081, 1.198e-8
-0.082, 1.214e-8
-0.083, 1.203e-8
-0.084, 1.177e-8
-0.085, 1.189e-8
-0.086, 1.191e-8
-0.087, 1.165e-8
-0.088, 1.162e-8
-0.089, 1.179e-8
-0.090, 1.154e-8
-0.091, 1.139e-8
-0.092, 1.158e-8
-0.093, 1.148e-8
-0.094, 1.121e-8
-0.095, 1.136e-8
-0.096, 1.137e-8
-0.097, 1.113e-8
-0.098, 1.110e-8
-0.099, 1.127e-8
-0.100, 1.105e-8
-0.101, 1.091e-8
-0.102, 1.110e-8
-0.103, 1.102e-8
-0.104, 1.075e-8
-0.105, 1.091e-8
-0.106, 1.093e-8
-0.107, 1.068e-8
-0.108, 1.068e-8
-0.109, 1.085e-8
-0.110, 1.063e-8
-0.111, 1.051e-8
-0.112, 1.069e-8
-0.113, 1.062e-8
-0.114, 1.036e-8
-0.115, 1.052e-8
-0.116, 1.057e-8
-0.117, 1.030e-8
-0.118, 1.031e-8
-0.119, 1.049e-8
-0.120, 1.027e-8
-0.121, 1.015e-8
-0.122, 1.035e-8
-0.123, 1.027e-8
-0.124, 1.004e-8
-0.125, 1.018e-8
-0.126, 1.024e-8
-0.127, 9.993e-9
-0.128, 9.991e-9
-0.129, 1.019e-8
-0.130, 9.975e-9
-0.131, 9.844e-9
-0.132, 1.006e-8
-0.133, 9.977e-9
-0.134, 9.745e-9
-0.135, 9.914e-9
-0.136, 9.952e-9
-0.137, 9.720e-9
-0.138, 9.725e-9
-0.139, 9.913e-9
-0.140, 9.720e-9
-0.141, 9.598e-9
-0.142, 9.799e-9
-0.143, 9.748e-9
-0.144, 9.498e-9
-0.145, 9.669e-9
-0.146, 9.734e-9
-0.147, 9.482e-9
-0.148, 9.507e-9
-0.149, 9.686e-9
-0.150, 9.487e-9
-0.151, 9.390e-9
-0.152, 9.590e-9
-0.153, 9.534e-9
-0.154, 9.303e-9
-0.155, 9.462e-9
-0.156, 9.537e-9
-0.157, 9.285e-9
-0.158, 9.311e-9
-0.159, 9.509e-9
-0.160, 9.313e-9
-0.161, 9.199e-9
-0.162, 9.417e-9
-0.163, 9.345e-9
-0.164, 9.134e-9
-0.165, 9.290e-9
-0.166, 9.363e-9
-0.167, 9.129e-9
-0.168, 9.147e-9
-0.169, 9.348e-9
-0.170, 9.155e-9
-0.171, 9.040e-9
-0.172, 9.278e-9
-0.173, 9.191e-9
-0.174, 8.986e-9
-0.175, 9.154e-9
-0.176, 9.219e-9
-0.177, 8.986e-9
-0.178, 9.020e-9
-0.179, 9.207e-9
-0.180, 9.032e-9
-0.181, 8.906e-9
-0.182, 9.138e-9
-0.183, 9.080e-9
-0.184, 8.854e-9
-0.185, 9.036e-9
-0.186, 9.106e-9
-0.187, 8.860e-9
-0.188, 8.920e-9
-0.189, 9.090e-9
-0.190, 8.908e-9
-0.191, 8.813e-9
-0.192, 9.038e-9
-0.193, 8.975e-9
-0.194, 8.767e-9
-0.195, 8.923e-9
-0.196, 9.020e-9
-0.197, 8.769e-9
-0.198, 8.817e-9
-0.199, 9.014e-9
