Mar. 16, 2023   08:53:15
Cyclic Voltammetry
File: c:/users/oliverrz/desktop/electrolab/data/2023_03_16\fcmeoh_macros_250_um\electrode1_cv_100mvs_250_um.bin
Data Source:  Experiment
Instrument Model:  CHI760E
Header: CV
Note: 

Init E (V) = -0.2
High E (V) = 0.3
Low E (V) = -0.2
Final E (V) = -0.2
Init P/N = P
Scan Rate (V/s) = 0.1
Segment = 3
Sample Interval (V) = 0.001
Quiet Time (sec) = 2
Sensitivity (A/V) = 1e-7

Results:

Channel 1:
Segment 1:
Ep = 0.115V
ip = -1.718e-8A
Ah = -1.097e-8C

Segment 2:
Ep = 0.044V
ip = 1.604e-8A
Ah = 1.057e-8C

Segment 3:

Potential/V, Current/A

-0.200, 4.353e-9
-0.199, 3.782e-9
-0.198, 3.545e-9
-0.197, 3.506e-9
-0.196, 3.445e-9
-0.195, 3.355e-9
-0.194, 3.372e-9
-0.193, 3.258e-9
-0.192, 3.261e-9
-0.191, 3.218e-9
-0.190, 3.138e-9
-0.189, 3.172e-9
-0.188, 3.065e-9
-0.187, 3.073e-9
-0.186, 3.042e-9
-0.185, 2.960e-9
-0.184, 3.006e-9
-0.183, 2.902e-9
-0.182, 2.909e-9
-0.181, 2.886e-9
-0.180, 2.802e-9
-0.179, 2.847e-9
-0.178, 2.752e-9
-0.177, 2.759e-9
-0.176, 2.738e-9
-0.175, 2.664e-9
-0.174, 2.706e-9
-0.173, 2.617e-9
-0.172, 2.626e-9
-0.171, 2.608e-9
-0.170, 2.537e-9
-0.169, 2.579e-9
-0.168, 2.495e-9
-0.167, 2.502e-9
-0.166, 2.483e-9
-0.165, 2.413e-9
-0.164, 2.459e-9
-0.163, 2.374e-9
-0.162, 2.393e-9
-0.161, 2.369e-9
-0.160, 2.308e-9
-0.159, 2.351e-9
-0.158, 2.268e-9
-0.157, 2.284e-9
-0.156, 2.264e-9
-0.155, 2.204e-9
-0.154, 2.250e-9
-0.153, 2.161e-9
-0.152, 2.185e-9
-0.151, 2.168e-9
-0.150, 2.101e-9
-0.149, 2.155e-9
-0.148, 2.066e-9
-0.147, 2.091e-9
-0.146, 2.076e-9
-0.145, 2.010e-9
-0.144, 2.067e-9
-0.143, 1.979e-9
-0.142, 2.000e-9
-0.141, 1.989e-9
-0.140, 1.922e-9
-0.139, 1.983e-9
-0.138, 1.899e-9
-0.137, 1.916e-9
-0.136, 1.912e-9
-0.135, 1.848e-9
-0.134, 1.901e-9
-0.133, 1.823e-9
-0.132, 1.842e-9
-0.131, 1.836e-9
-0.130, 1.773e-9
-0.129, 1.825e-9
-0.128, 1.746e-9
-0.127, 1.769e-9
-0.126, 1.760e-9
-0.125, 1.702e-9
-0.124, 1.757e-9
-0.123, 1.682e-9
-0.122, 1.708e-9
-0.121, 1.693e-9
-0.120, 1.637e-9
-0.119, 1.694e-9
-0.118, 1.614e-9
-0.117, 1.643e-9
-0.116, 1.632e-9
-0.115, 1.572e-9
-0.114, 1.632e-9
-0.113, 1.552e-9
-0.112, 1.586e-9
-0.111, 1.572e-9
-0.110, 1.516e-9
-0.109, 1.575e-9
-0.108, 1.493e-9
-0.107, 1.528e-9
-0.106, 1.520e-9
-0.105, 1.458e-9
-0.104, 1.522e-9
-0.103, 1.440e-9
-0.102, 1.462e-9
-0.101, 1.465e-9
-0.100, 1.402e-9
-0.099, 1.466e-9
-0.098, 1.391e-9
-0.097, 1.412e-9
-0.096, 1.416e-9
-0.095, 1.352e-9
-0.094, 1.412e-9
-0.093, 1.339e-9
-0.092, 1.363e-9
-0.091, 1.367e-9
-0.090, 1.302e-9
-0.089, 1.361e-9
-0.088, 1.292e-9
-0.087, 1.317e-9
-0.086, 1.314e-9
-0.085, 1.259e-9
-0.084, 1.314e-9
-0.083, 1.247e-9
-0.082, 1.273e-9
-0.081, 1.265e-9
-0.080, 1.214e-9
-0.079, 1.267e-9
-0.078, 1.197e-9
-0.077, 1.222e-9
-0.076, 1.216e-9
-0.075, 1.163e-9
-0.074, 1.222e-9
-0.073, 1.145e-9
-0.072, 1.178e-9
-0.071, 1.172e-9
-0.070, 1.110e-9
-0.069, 1.175e-9
-0.068, 1.095e-9
-0.067, 1.129e-9
-0.066, 1.121e-9
-0.065, 1.058e-9
-0.064, 1.120e-9
-0.063, 1.045e-9
-0.062, 1.070e-9
-0.061, 1.070e-9
-0.060, 1.002e-9
-0.059, 1.068e-9
-0.058, 9.902e-10
-0.057, 1.012e-9
-0.056, 1.013e-9
-0.055, 9.478e-10
-0.054, 1.005e-9
-0.053, 9.309e-10
-0.052, 9.464e-10
-0.051, 9.459e-10
-0.050, 8.787e-10
-0.049, 9.364e-10
-0.048, 8.635e-10
-0.047, 8.797e-10
-0.046, 8.712e-10
-0.045, 8.086e-10
-0.044, 8.622e-10
-0.043, 7.869e-10
-0.042, 8.036e-10
-0.041, 7.928e-10
-0.040, 7.325e-10
-0.039, 7.819e-10
-0.038, 6.976e-10
-0.037, 7.135e-10
-0.036, 7.023e-10
-0.035, 6.368e-10
-0.034, 6.881e-10
-0.033, 5.922e-10
-0.032, 6.160e-10
-0.031, 5.956e-10
-0.030, 5.233e-10
-0.029, 5.722e-10
-0.028, 4.799e-10
-0.027, 4.918e-10
-0.026, 4.727e-10
-0.025, 3.926e-10
-0.024, 4.434e-10
-0.023, 3.486e-10
-0.022, 3.516e-10
-0.021, 3.354e-10
-0.020, 2.453e-10
-0.019, 2.913e-10
-0.018, 1.935e-10
-0.017, 1.894e-10
-0.016, 1.712e-10
-0.015, 7.799e-11
-0.014, 1.110e-10
-0.013, 1.105e-11
-0.012, -2.540e-12
-0.011, -2.794e-11
-0.010, -1.225e-10
-0.009, -9.833e-11
-0.008, -2.008e-10
-0.007, -2.202e-10
-0.006, -2.603e-10
-0.005, -3.614e-10
-0.004, -3.463e-10
-0.003, -4.599e-10
-0.002, -4.871e-10
-0.001, -5.362e-10
-0.000, -6.900e-10
0.001, -6.607e-10
0.002, -7.774e-10
0.003, -8.079e-10
0.004, -8.718e-10
0.005, -9.867e-10
0.006, -9.897e-10
0.007, -1.128e-9
0.008, -1.171e-9
0.009, -1.246e-9
0.010, -1.377e-9
0.011, -1.388e-9
0.012, -1.550e-9
0.013, -1.603e-9
0.014, -1.690e-9
0.015, -1.846e-9
0.016, -1.865e-9
0.017, -2.037e-9
0.018, -2.111e-9
0.019, -2.207e-9
0.020, -2.377e-9
0.021, -2.416e-9
0.022, -2.599e-9
0.023, -2.699e-9
0.024, -2.806e-9
0.025, -2.996e-9
0.026, -3.065e-9
0.027, -3.261e-9
0.028, -3.377e-9
0.029, -3.495e-9
0.030, -3.699e-9
0.031, -3.788e-9
0.032, -3.993e-9
0.033, -4.129e-9
0.034, -4.282e-9
0.035, -4.501e-9
0.036, -4.615e-9
0.037, -4.838e-9
0.038, -4.997e-9
0.039, -5.170e-9
0.040, -5.401e-9
0.041, -5.530e-9
0.042, -5.779e-9
0.043, -5.953e-9
0.044, -6.149e-9
0.045, -6.394e-9
0.046, -6.542e-9
0.047, -6.819e-9
0.048, -7.000e-9
0.049, -7.212e-9
0.050, -7.493e-9
0.051, -7.655e-9
0.052, -7.946e-9
0.053, -8.150e-9
0.054, -8.370e-9
0.055, -8.660e-9
0.056, -8.823e-9
0.057, -9.127e-9
0.058, -9.330e-9
0.059, -9.560e-9
0.060, -9.863e-9
0.061, -1.002e-8
0.062, -1.033e-8
0.063, -1.055e-8
0.064, -1.079e-8
0.065, -1.108e-8
0.066, -1.126e-8
0.067, -1.154e-8
0.068, -1.176e-8
0.069, -1.198e-8
0.070, -1.228e-8
0.071, -1.245e-8
0.072, -1.273e-8
0.073, -1.295e-8
0.074, -1.315e-8
0.075, -1.342e-8
0.076, -1.358e-8
0.077, -1.385e-8
0.078, -1.404e-8
0.079, -1.424e-8
0.080, -1.448e-8
0.081, -1.464e-8
0.082, -1.487e-8
0.083, -1.504e-8
0.084, -1.522e-8
0.085, -1.544e-8
0.086, -1.555e-8
0.087, -1.577e-8
0.088, -1.590e-8
0.089, -1.604e-8
0.090, -1.624e-8
0.091, -1.631e-8
0.092, -1.651e-8
0.093, -1.659e-8
0.094, -1.671e-8
0.095, -1.687e-8
0.096, -1.690e-8
0.097, -1.707e-8
0.098, -1.713e-8
0.099, -1.719e-8
0.100, -1.734e-8
0.101, -1.733e-8
0.102, -1.747e-8
0.103, -1.752e-8
0.104, -1.755e-8
0.105, -1.766e-8
0.106, -1.762e-8
0.107, -1.772e-8
0.108, -1.773e-8
0.109, -1.773e-8
0.110, -1.781e-8
0.111, -1.777e-8
0.112, -1.782e-8
0.113, -1.781e-8
0.114, -1.780e-8
0.115, -1.785e-8
0.116, -1.778e-8
0.117, -1.781e-8
0.118, -1.777e-8
0.119, -1.775e-8
0.120, -1.776e-8
0.121, -1.768e-8
0.122, -1.771e-8
0.123, -1.764e-8
0.124, -1.760e-8
0.125, -1.760e-8
0.126, -1.750e-8
0.127, -1.752e-8
0.128, -1.745e-8
0.129, -1.739e-8
0.130, -1.740e-8
0.131, -1.727e-8
0.132, -1.729e-8
0.133, -1.720e-8
0.134, -1.713e-8
0.135, -1.713e-8
0.136, -1.700e-8
0.137, -1.700e-8
0.138, -1.692e-8
0.139, -1.684e-8
0.140, -1.684e-8
0.141, -1.672e-8
0.142, -1.671e-8
0.143, -1.663e-8
0.144, -1.654e-8
0.145, -1.654e-8
0.146, -1.640e-8
0.147, -1.640e-8
0.148, -1.632e-8
0.149, -1.623e-8
0.150, -1.623e-8
0.151, -1.610e-8
0.152, -1.609e-8
0.153, -1.602e-8
0.154, -1.594e-8
0.155, -1.594e-8
0.156, -1.581e-8
0.157, -1.579e-8
0.158, -1.571e-8
0.159, -1.564e-8
0.160, -1.563e-8
0.161, -1.551e-8
0.162, -1.551e-8
0.163, -1.543e-8
0.164, -1.536e-8
0.165, -1.536e-8
0.166, -1.524e-8
0.167, -1.525e-8
0.168, -1.516e-8
0.169, -1.509e-8
0.170, -1.509e-8
0.171, -1.497e-8
0.172, -1.499e-8
0.173, -1.490e-8
0.174, -1.485e-8
0.175, -1.486e-8
0.176, -1.474e-8
0.177, -1.476e-8
0.178, -1.470e-8
0.179, -1.464e-8
0.180, -1.466e-8
0.181, -1.455e-8
0.182, -1.458e-8
0.183, -1.452e-8
0.184, -1.447e-8
0.185, -1.450e-8
0.186, -1.440e-8
0.187, -1.442e-8
0.188, -1.437e-8
0.189, -1.431e-8
0.190, -1.434e-8
0.191, -1.423e-8
0.192, -1.425e-8
0.193, -1.421e-8
0.194, -1.417e-8
0.195, -1.418e-8
0.196, -1.408e-8
0.197, -1.410e-8
0.198, -1.404e-8
0.199, -1.399e-8
0.200, -1.401e-8
0.201, -1.391e-8
0.202, -1.392e-8
0.203, -1.388e-8
0.204, -1.387e-8
0.205, -1.391e-8
0.206, -1.380e-8
0.207, -1.382e-8
0.208, -1.376e-8
0.209, -1.372e-8
0.210, -1.363e-8
0.211, -1.199e-8
0.212, -1.352e-8
0.213, -1.365e-8
0.214, -1.363e-8
0.215, -1.366e-8
0.216, -1.356e-8
0.217, -1.359e-8
0.218, -1.354e-8
0.219, -1.350e-8
0.220, -1.354e-8
0.221, -1.344e-8
0.222, -1.348e-8
0.223, -1.345e-8
0.224, -1.341e-8
0.225, -1.345e-8
0.226, -1.337e-8
0.227, -1.341e-8
0.228, -1.338e-8
0.229, -1.334e-8
0.230, -1.339e-8
0.231, -1.331e-8
0.232, -1.334e-8
0.233, -1.331e-8
0.234, -1.328e-8
0.235, -1.332e-8
0.236, -1.325e-8
0.237, -1.329e-8
0.238, -1.325e-8
0.239, -1.323e-8
0.240, -1.327e-8
0.241, -1.319e-8
0.242, -1.324e-8
0.243, -1.321e-8
0.244, -1.318e-8
0.245, -1.322e-8
0.246, -1.314e-8
0.247, -1.319e-8
0.248, -1.315e-8
0.249, -1.313e-8
0.250, -1.319e-8
0.251, -1.311e-8
0.252, -1.317e-8
0.253, -1.314e-8
0.254, -1.313e-8
0.255, -1.319e-8
0.256, -1.312e-8
0.257, -1.318e-8
0.258, -1.317e-8
0.259, -1.316e-8
0.260, -1.322e-8
0.261, -1.315e-8
0.262, -1.321e-8
0.263, -1.320e-8
0.264, -1.318e-8
0.265, -1.324e-8
0.266, -1.316e-8
0.267, -1.322e-8
0.268, -1.321e-8
0.269, -1.319e-8
0.270, -1.324e-8
0.271, -1.317e-8
0.272, -1.322e-8
0.273, -1.321e-8
0.274, -1.319e-8
0.275, -1.324e-8
0.276, -1.318e-8
0.277, -1.324e-8
0.278, -1.322e-8
0.279, -1.321e-8
0.280, -1.327e-8
0.281, -1.321e-8
0.282, -1.327e-8
0.283, -1.325e-8
0.284, -1.325e-8
0.285, -1.330e-8
0.286, -1.325e-8
0.287, -1.331e-8
0.288, -1.330e-8
0.289, -1.329e-8
0.290, -1.336e-8
0.291, -1.330e-8
0.292, -1.337e-8
0.293, -1.335e-8
0.294, -1.335e-8
0.295, -1.342e-8
0.296, -1.336e-8
0.297, -1.343e-8
0.298, -1.342e-8
0.299, -1.341e-8
0.300, -1.257e-8
0.299, -1.087e-8
0.298, -1.038e-8
0.297, -1.007e-8
0.296, -9.844e-9
0.295, -9.732e-9
0.294, -9.517e-9
0.293, -9.440e-9
0.292, -9.299e-9
0.291, -9.181e-9
0.290, -9.134e-9
0.289, -8.966e-9
0.288, -8.938e-9
0.287, -8.831e-9
0.286, -8.738e-9
0.285, -8.717e-9
0.284, -8.572e-9
0.283, -8.567e-9
0.282, -8.478e-9
0.281, -8.394e-9
0.280, -8.398e-9
0.279, -8.268e-9
0.278, -8.276e-9
0.277, -8.202e-9
0.276, -8.121e-9
0.275, -8.140e-9
0.274, -8.020e-9
0.273, -8.028e-9
0.272, -7.965e-9
0.271, -7.895e-9
0.270, -7.915e-9
0.269, -7.797e-9
0.268, -7.809e-9
0.267, -7.761e-9
0.266, -7.696e-9
0.265, -7.717e-9
0.264, -7.616e-9
0.263, -7.631e-9
0.262, -7.580e-9
0.261, -7.518e-9
0.260, -7.544e-9
0.259, -7.446e-9
0.258, -7.468e-9
0.257, -7.420e-9
0.256, -7.364e-9
0.255, -7.392e-9
0.254, -7.290e-9
0.253, -7.321e-9
0.252, -7.264e-9
0.251, -7.219e-9
0.250, -7.250e-9
0.249, -7.145e-9
0.248, -7.176e-9
0.247, -7.123e-9
0.246, -7.077e-9
0.245, -7.110e-9
0.244, -7.012e-9
0.243, -7.042e-9
0.242, -6.997e-9
0.241, -6.657e-9
0.240, -6.734e-9
0.239, -6.877e-9
0.238, -6.925e-9
0.237, -6.882e-9
0.236, -6.842e-9
0.235, -6.885e-9
0.234, -6.781e-9
0.233, -6.806e-9
0.232, -6.762e-9
0.231, -6.705e-9
0.230, -6.746e-9
0.229, -6.649e-9
0.228, -6.676e-9
0.227, -6.646e-9
0.226, -6.593e-9
0.225, -6.631e-9
0.224, -6.543e-9
0.223, -6.565e-9
0.222, -6.533e-9
0.221, -6.482e-9
0.220, -6.516e-9
0.219, -6.412e-9
0.218, -6.446e-9
0.217, -6.409e-9
0.216, -6.363e-9
0.215, -6.388e-9
0.214, -6.303e-9
0.213, -6.333e-9
0.212, -6.282e-9
0.211, -6.242e-9
0.210, -6.272e-9
0.209, -6.170e-9
0.208, -6.204e-9
0.207, -6.156e-9
0.206, -6.105e-9
0.205, -6.133e-9
0.204, -6.035e-9
0.203, -6.071e-9
0.202, -6.026e-9
0.201, -5.966e-9
0.200, -6.004e-9
0.199, -5.898e-9
0.198, -5.925e-9
0.197, -5.881e-9
0.196, -5.820e-9
0.195, -5.853e-9
0.194, -5.745e-9
0.193, -5.770e-9
0.192, -5.718e-9
0.191, -5.656e-9
0.190, -5.685e-9
0.189, -5.583e-9
0.188, -5.596e-9
0.187, -5.549e-9
0.186, -5.485e-9
0.185, -5.509e-9
0.184, -5.396e-9
0.183, -5.410e-9
0.182, -5.358e-9
0.181, -5.294e-9
0.180, -5.307e-9
0.179, -5.196e-9
0.178, -5.208e-9
0.177, -5.152e-9
0.176, -5.077e-9
0.175, -5.081e-9
0.174, -4.963e-9
0.173, -4.968e-9
0.172, -4.899e-9
0.171, -4.834e-9
0.170, -4.835e-9
0.169, -4.710e-9
0.168, -4.702e-9
0.167, -4.622e-9
0.166, -4.537e-9
0.165, -4.536e-9
0.164, -4.402e-9
0.163, -4.399e-9
0.162, -4.315e-9
0.161, -4.216e-9
0.160, -4.210e-9
0.159, -4.058e-9
0.158, -4.042e-9
0.157, -3.950e-9
0.156, -3.838e-9
0.155, -3.826e-9
0.154, -3.665e-9
0.153, -3.636e-9
0.152, -3.536e-9
0.151, -3.421e-9
0.150, -3.396e-9
0.149, -3.230e-9
0.148, -3.178e-9
0.147, -3.071e-9
0.146, -2.932e-9
0.145, -2.886e-9
0.144, -2.712e-9
0.143, -2.641e-9
0.142, -2.520e-9
0.141, -2.370e-9
0.140, -2.305e-9
0.139, -2.123e-9
0.138, -2.041e-9
0.137, -1.896e-9
0.136, -1.732e-9
0.135, -1.656e-9
0.134, -1.455e-9
0.133, -1.337e-9
0.132, -1.172e-9
0.131, -9.997e-10
0.130, -8.984e-10
0.129, -6.692e-10
0.128, -5.571e-10
0.127, -3.766e-10
0.126, -1.855e-10
0.125, -5.708e-11
0.124, 1.857e-10
0.123, 3.193e-10
0.122, 5.141e-10
0.121, 7.358e-10
0.120, 8.755e-10
0.119, 1.145e-9
0.118, 1.291e-9
0.117, 1.503e-9
0.116, 1.751e-9
0.115, 1.893e-9
0.114, 2.186e-9
0.113, 2.355e-9
0.112, 2.576e-9
0.111, 2.834e-9
0.110, 2.997e-9
0.109, 3.294e-9
0.108, 3.486e-9
0.107, 3.721e-9
0.106, 3.997e-9
0.105, 4.175e-9
0.104, 4.469e-9
0.103, 4.678e-9
0.102, 4.934e-9
0.101, 5.202e-9
0.100, 5.393e-9
0.099, 5.692e-9
0.098, 5.902e-9
0.097, 6.148e-9
0.096, 6.418e-9
0.095, 6.615e-9
0.094, 6.911e-9
0.093, 7.114e-9
0.092, 7.367e-9
0.091, 7.628e-9
0.090, 7.816e-9
0.089, 8.115e-9
0.088, 8.298e-9
0.087, 8.552e-9
0.086, 8.799e-9
0.085, 8.970e-9
0.084, 9.257e-9
0.083, 9.416e-9
0.082, 9.647e-9
0.081, 9.876e-9
0.080, 1.002e-8
0.079, 1.029e-8
0.078, 1.044e-8
0.077, 1.064e-8
0.076, 1.086e-8
0.075, 1.097e-8
0.074, 1.120e-8
0.073, 1.131e-8
0.072, 1.149e-8
0.071, 1.168e-8
0.070, 1.176e-8
0.069, 1.196e-8
0.068, 1.205e-8
0.067, 1.218e-8
0.066, 1.233e-8
0.065, 1.238e-8
0.064, 1.256e-8
0.063, 1.262e-8
0.062, 1.271e-8
0.061, 1.284e-8
0.060, 1.286e-8
0.059, 1.299e-8
0.058, 1.302e-8
0.057, 1.308e-8
0.056, 1.317e-8
0.055, 1.317e-8
0.054, 1.327e-8
0.053, 1.327e-8
0.052, 1.331e-8
0.051, 1.337e-8
0.050, 1.333e-8
0.049, 1.341e-8
0.048, 1.338e-8
0.047, 1.340e-8
0.046, 1.342e-8
0.045, 1.336e-8
0.044, 1.343e-8
0.043, 1.337e-8
0.042, 1.336e-8
0.041, 1.337e-8
0.040, 1.329e-8
0.039, 1.334e-8
0.038, 1.327e-8
0.037, 1.324e-8
0.036, 1.325e-8
0.035, 1.315e-8
0.034, 1.319e-8
0.033, 1.310e-8
0.032, 1.305e-8
0.031, 1.305e-8
0.030, 1.293e-8
0.029, 1.295e-8
0.028, 1.285e-8
0.027, 1.280e-8
0.026, 1.279e-8
0.025, 1.267e-8
0.024, 1.268e-8
0.023, 1.258e-8
0.022, 1.252e-8
0.021, 1.250e-8
0.020, 1.237e-8
0.019, 1.237e-8
0.018, 1.228e-8
0.017, 1.223e-8
0.016, 1.220e-8
0.015, 1.208e-8
0.014, 1.208e-8
0.013, 1.197e-8
0.012, 1.193e-8
0.011, 1.189e-8
0.010, 1.176e-8
0.009, 1.176e-8
0.008, 1.164e-8
0.007, 1.162e-8
0.006, 1.159e-8
0.005, 1.146e-8
0.004, 1.147e-8
0.003, 1.137e-8
0.002, 1.132e-8
0.001, 1.128e-8
0.000, 1.122e-8
-0.001, 1.122e-8
-0.002, 1.109e-8
-0.003, 1.103e-8
-0.004, 1.102e-8
-0.005, 1.087e-8
-0.006, 1.089e-8
-0.007, 1.082e-8
-0.008, 1.077e-8
-0.009, 1.075e-8
-0.010, 1.061e-8
-0.011, 1.062e-8
-0.012, 1.054e-8
-0.013, 1.050e-8
-0.014, 1.048e-8
-0.015, 1.038e-8
-0.016, 1.039e-8
-0.017, 1.030e-8
-0.018, 1.026e-8
-0.019, 1.024e-8
-0.020, 1.014e-8
-0.021, 1.016e-8
-0.022, 1.006e-8
-0.023, 1.002e-8
-0.024, 1.002e-8
-0.025, 9.917e-9
-0.026, 9.952e-9
-0.027, 9.859e-9
-0.028, 9.828e-9
-0.029, 9.812e-9
-0.030, 9.709e-9
-0.031, 9.750e-9
-0.032, 9.666e-9
-0.033, 9.639e-9
-0.034, 9.632e-9
-0.035, 9.527e-9
-0.036, 9.567e-9
-0.037, 9.488e-9
-0.038, 9.466e-9
-0.039, 9.471e-9
-0.040, 9.364e-9
-0.041, 9.400e-9
-0.042, 9.321e-9
-0.043, 9.297e-9
-0.044, 9.310e-9
-0.045, 9.207e-9
-0.046, 9.251e-9
-0.047, 9.174e-9
-0.048, 9.143e-9
-0.049, 9.161e-9
-0.050, 9.069e-9
-0.051, 9.114e-9
-0.052, 9.044e-9
-0.053, 9.011e-9
-0.054, 9.026e-9
-0.055, 8.938e-9
-0.056, 8.976e-9
-0.057, 8.917e-9
-0.058, 8.888e-9
-0.059, 8.902e-9
-0.060, 8.825e-9
-0.061, 8.864e-9
-0.062, 8.804e-9
-0.063, 8.782e-9
-0.064, 8.798e-9
-0.065, 8.718e-9
-0.066, 8.759e-9
-0.067, 8.700e-9
-0.068, 8.686e-9
-0.069, 8.696e-9
-0.070, 8.610e-9
-0.071, 8.665e-9
-0.072, 8.596e-9
-0.073, 8.590e-9
-0.074, 8.602e-9
-0.075, 8.519e-9
-0.076, 8.581e-9
-0.077, 8.514e-9
-0.078, 8.501e-9
-0.079, 8.524e-9
-0.080, 8.433e-9
-0.081, 8.499e-9
-0.082, 8.427e-9
-0.083, 8.420e-9
-0.084, 8.452e-9
-0.085, 8.362e-9
-0.086, 8.420e-9
-0.087, 8.362e-9
-0.088, 8.353e-9
-0.089, 8.380e-9
-0.090, 8.299e-9
-0.091, 8.356e-9
-0.092, 8.304e-9
-0.093, 8.290e-9
-0.094, 8.322e-9
-0.095, 8.243e-9
-0.096, 8.295e-9
-0.097, 8.247e-9
-0.098, 8.239e-9
-0.099, 8.266e-9
-0.100, 8.194e-9
-0.101, 8.247e-9
-0.102, 8.201e-9
-0.103, 8.198e-9
-0.104, 8.221e-9
-0.105, 8.152e-9
-0.106, 8.206e-9
-0.107, 8.157e-9
-0.108, 8.156e-9
-0.109, 8.181e-9
-0.110, 8.108e-9
-0.111, 8.173e-9
-0.112, 8.112e-9
-0.113, 8.115e-9
-0.114, 8.141e-9
-0.115, 8.074e-9
-0.116, 8.137e-9
-0.117, 8.082e-9
-0.118, 8.082e-9
-0.119, 8.112e-9
-0.120, 8.039e-9
-0.121, 8.108e-9
-0.122, 8.055e-9
-0.123, 8.053e-9
-0.124, 8.092e-9
-0.125, 8.012e-9
-0.126, 8.080e-9
-0.127, 8.034e-9
-0.128, 8.035e-9
-0.129, 8.074e-9
-0.130, 7.995e-9
-0.131, 8.064e-9
-0.132, 8.019e-9
-0.133, 8.013e-9
-0.134, 8.053e-9
-0.135, 7.982e-9
-0.136, 8.050e-9
-0.137, 8.008e-9
-0.138, 8.002e-9
-0.139, 8.043e-9
-0.140, 7.980e-9
-0.141, 8.042e-9
-0.142, 7.997e-9
-0.143, 8.001e-9
-0.144, 8.035e-9
-0.145, 7.972e-9
-0.146, 8.035e-9
-0.147, 7.991e-9
-0.148, 8.000e-9
-0.149, 8.036e-9
-0.150, 7.970e-9
-0.151, 8.041e-9
-0.152, 8.002e-9
-0.153, 8.006e-9
-0.154, 8.046e-9
-0.155, 7.980e-9
-0.156, 8.054e-9
-0.157, 8.010e-9
-0.158, 8.016e-9
-0.159, 8.060e-9
-0.160, 7.992e-9
-0.161, 8.072e-9
-0.162, 8.026e-9
-0.163, 8.035e-9
-0.164, 8.089e-9
-0.165, 8.023e-9
-0.166, 8.105e-9
-0.167, 8.071e-9
-0.168, 8.085e-9
-0.169, 8.134e-9
-0.170, 8.070e-9
-0.171, 8.144e-9
-0.172, 8.113e-9
-0.173, 8.114e-9
-0.174, 8.167e-9
-0.175, 8.108e-9
-0.176, 8.177e-9
-0.177, 8.151e-9
-0.178, 8.155e-9
-0.179, 8.205e-9
-0.180, 8.151e-9
-0.181, 8.218e-9
-0.182, 8.189e-9
-0.183, 8.198e-9
-0.184, 8.245e-9
-0.185, 8.197e-9
-0.186, 8.267e-9
-0.187, 8.241e-9
-0.188, 8.255e-9
-0.189, 8.299e-9
-0.190, 8.254e-9
-0.191, 8.336e-9
-0.192, 8.308e-9
-0.193, 8.328e-9
-0.194, 8.380e-9
-0.195, 8.327e-9
-0.196, 8.416e-9
-0.197, 8.385e-9
-0.198, 8.410e-9
-0.199, 8.471e-9
