Mar. 16, 2023   08:57:12
Cyclic Voltammetry
File: c:/users/oliverrz/desktop/electrolab/data/2023_03_16\fcmeoh_macros_250_um\electrode4_cv_100mvs_250_um.bin
Data Source:  Experiment
Instrument Model:  CHI760E
Header: CV
Note: 

Init E (V) = -0.2
High E (V) = 0.3
Low E (V) = -0.2
Final E (V) = -0.2
Init P/N = P
Scan Rate (V/s) = 0.1
Segment = 3
Sample Interval (V) = 0.001
Quiet Time (sec) = 2
Sensitivity (A/V) = 1e-7

Results:

Channel 1:
Segment 1:
Ep = 0.114V
ip = -1.799e-8A
Ah = -1.131e-8C

Segment 2:
Ep = 0.045V
ip = 1.603e-8A
Ah = 1.013e-8C

Segment 3:

Potential/V, Current/A

-0.200, 3.175e-9
-0.199, 2.684e-9
-0.198, 2.611e-9
-0.197, 2.580e-9
-0.196, 2.485e-9
-0.195, 2.533e-9
-0.194, 2.437e-9
-0.193, 2.440e-9
-0.192, 2.433e-9
-0.191, 2.349e-9
-0.190, 2.402e-9
-0.189, 2.315e-9
-0.188, 2.320e-9
-0.187, 2.318e-9
-0.186, 2.241e-9
-0.185, 2.292e-9
-0.184, 2.211e-9
-0.183, 2.218e-9
-0.182, 2.222e-9
-0.181, 2.141e-9
-0.180, 2.195e-9
-0.179, 2.114e-9
-0.178, 2.123e-9
-0.177, 2.120e-9
-0.176, 2.052e-9
-0.175, 2.107e-9
-0.174, 2.029e-9
-0.173, 2.041e-9
-0.172, 2.041e-9
-0.171, 1.968e-9
-0.170, 2.029e-9
-0.169, 1.947e-9
-0.168, 1.965e-9
-0.167, 1.966e-9
-0.166, 1.889e-9
-0.165, 1.958e-9
-0.164, 1.874e-9
-0.163, 1.895e-9
-0.162, 1.899e-9
-0.161, 1.823e-9
-0.160, 1.893e-9
-0.159, 1.812e-9
-0.158, 1.829e-9
-0.157, 1.838e-9
-0.156, 1.762e-9
-0.155, 1.830e-9
-0.154, 1.752e-9
-0.153, 1.765e-9
-0.152, 1.778e-9
-0.151, 1.707e-9
-0.150, 1.772e-9
-0.149, 1.702e-9
-0.148, 1.714e-9
-0.147, 1.725e-9
-0.146, 1.654e-9
-0.145, 1.721e-9
-0.144, 1.651e-9
-0.143, 1.665e-9
-0.142, 1.678e-9
-0.141, 1.606e-9
-0.140, 1.668e-9
-0.139, 1.604e-9
-0.138, 1.621e-9
-0.137, 1.630e-9
-0.136, 1.566e-9
-0.135, 1.630e-9
-0.134, 1.559e-9
-0.133, 1.576e-9
-0.132, 1.586e-9
-0.131, 1.521e-9
-0.130, 1.591e-9
-0.129, 1.517e-9
-0.128, 1.534e-9
-0.127, 1.548e-9
-0.126, 1.480e-9
-0.125, 1.551e-9
-0.124, 1.479e-9
-0.123, 1.500e-9
-0.122, 1.514e-9
-0.121, 1.446e-9
-0.120, 1.517e-9
-0.119, 1.447e-9
-0.118, 1.461e-9
-0.117, 1.481e-9
-0.116, 1.408e-9
-0.115, 1.480e-9
-0.114, 1.412e-9
-0.113, 1.426e-9
-0.112, 1.448e-9
-0.111, 1.378e-9
-0.110, 1.449e-9
-0.109, 1.381e-9
-0.108, 1.397e-9
-0.107, 1.414e-9
-0.106, 1.344e-9
-0.105, 1.414e-9
-0.104, 1.349e-9
-0.103, 1.360e-9
-0.102, 1.378e-9
-0.101, 1.314e-9
-0.100, 1.381e-9
-0.099, 1.316e-9
-0.098, 1.335e-9
-0.097, 1.345e-9
-0.096, 1.282e-9
-0.095, 1.351e-9
-0.094, 1.287e-9
-0.093, 1.302e-9
-0.092, 1.317e-9
-0.091, 1.253e-9
-0.090, 1.318e-9
-0.089, 1.251e-9
-0.088, 1.270e-9
-0.087, 1.285e-9
-0.086, 1.217e-9
-0.085, 1.289e-9
-0.084, 1.219e-9
-0.083, 1.238e-9
-0.082, 1.254e-9
-0.081, 1.183e-9
-0.080, 1.253e-9
-0.079, 1.186e-9
-0.078, 1.200e-9
-0.077, 1.215e-9
-0.076, 1.142e-9
-0.075, 1.218e-9
-0.074, 1.148e-9
-0.073, 1.158e-9
-0.072, 1.181e-9
-0.071, 1.105e-9
-0.070, 1.175e-9
-0.069, 1.105e-9
-0.068, 1.116e-9
-0.067, 1.139e-9
-0.066, 1.063e-9
-0.065, 1.131e-9
-0.064, 1.061e-9
-0.063, 1.070e-9
-0.062, 1.087e-9
-0.061, 1.015e-9
-0.060, 1.080e-9
-0.059, 1.012e-9
-0.058, 1.023e-9
-0.057, 1.036e-9
-0.056, 9.638e-10
-0.055, 1.027e-9
-0.054, 9.574e-10
-0.053, 9.669e-10
-0.052, 9.748e-10
-0.051, 9.008e-10
-0.050, 9.636e-10
-0.049, 8.910e-10
-0.048, 9.010e-10
-0.047, 9.092e-10
-0.046, 8.313e-10
-0.045, 8.968e-10
-0.044, 8.165e-10
-0.043, 8.261e-10
-0.042, 8.365e-10
-0.041, 7.533e-10
-0.040, 8.165e-10
-0.039, 7.357e-10
-0.038, 7.405e-10
-0.037, 7.495e-10
-0.036, 6.643e-10
-0.035, 7.234e-10
-0.034, 6.426e-10
-0.033, 6.389e-10
-0.032, 6.490e-10
-0.031, 5.567e-10
-0.030, 6.143e-10
-0.029, 5.290e-10
-0.028, 5.251e-10
-0.027, 5.272e-10
-0.026, 4.365e-10
-0.025, 4.815e-10
-0.024, 3.989e-10
-0.023, 3.904e-10
-0.022, 3.881e-10
-0.021, 2.928e-10
-0.020, 3.370e-10
-0.019, 2.534e-10
-0.018, 2.377e-10
-0.017, 2.282e-10
-0.016, 1.307e-10
-0.015, 1.706e-10
-0.014, 7.809e-11
-0.013, 5.486e-11
-0.012, 3.792e-11
-0.011, -5.984e-11
-0.010, -3.119e-11
-0.009, -1.319e-10
-0.008, -1.555e-10
-0.007, -1.772e-10
-0.006, -2.887e-10
-0.005, -2.636e-10
-0.004, -3.754e-10
-0.003, -4.057e-10
-0.002, -4.376e-10
-0.001, -5.604e-10
-0.000, -5.748e-10
0.001, -6.789e-10
0.002, -7.180e-10
0.003, -7.479e-10
0.004, -8.868e-10
0.005, -8.745e-10
0.006, -1.001e-9
0.007, -1.059e-9
0.008, -1.106e-9
0.009, -1.247e-9
0.010, -1.252e-9
0.011, -1.390e-9
0.012, -1.469e-9
0.013, -1.524e-9
0.014, -1.681e-9
0.015, -1.705e-9
0.016, -1.855e-9
0.017, -1.943e-9
0.018, -2.016e-9
0.019, -2.184e-9
0.020, -2.229e-9
0.021, -2.390e-9
0.022, -2.491e-9
0.023, -2.585e-9
0.024, -2.769e-9
0.025, -2.829e-9
0.026, -3.016e-9
0.027, -3.134e-9
0.028, -3.250e-9
0.029, -3.443e-9
0.030, -3.514e-9
0.031, -3.721e-9
0.032, -3.853e-9
0.033, -3.987e-9
0.034, -4.210e-9
0.035, -4.301e-9
0.036, -4.532e-9
0.037, -4.680e-9
0.038, -4.842e-9
0.039, -5.080e-9
0.040, -5.187e-9
0.041, -5.437e-9
0.042, -5.614e-9
0.043, -5.777e-9
0.044, -6.049e-9
0.045, -6.169e-9
0.046, -6.438e-9
0.047, -6.638e-9
0.048, -6.817e-9
0.049, -7.103e-9
0.050, -7.256e-9
0.051, -7.537e-9
0.052, -7.759e-9
0.053, -7.951e-9
0.054, -8.249e-9
0.055, -8.420e-9
0.056, -8.705e-9
0.057, -8.937e-9
0.058, -9.140e-9
0.059, -9.450e-9
0.060, -9.629e-9
0.061, -9.913e-9
0.062, -1.015e-8
0.063, -1.038e-8
0.064, -1.068e-8
0.065, -1.087e-8
0.066, -1.116e-8
0.067, -1.139e-8
0.068, -1.161e-8
0.069, -1.192e-8
0.070, -1.209e-8
0.071, -1.238e-8
0.072, -1.260e-8
0.073, -1.282e-8
0.074, -1.311e-8
0.075, -1.327e-8
0.076, -1.355e-8
0.077, -1.377e-8
0.078, -1.397e-8
0.079, -1.425e-8
0.080, -1.438e-8
0.081, -1.464e-8
0.082, -1.483e-8
0.083, -1.499e-8
0.084, -1.526e-8
0.085, -1.537e-8
0.086, -1.560e-8
0.087, -1.577e-8
0.088, -1.590e-8
0.089, -1.614e-8
0.090, -1.622e-8
0.091, -1.642e-8
0.092, -1.656e-8
0.093, -1.665e-8
0.094, -1.684e-8
0.095, -1.690e-8
0.096, -1.706e-8
0.097, -1.716e-8
0.098, -1.723e-8
0.099, -1.738e-8
0.100, -1.740e-8
0.101, -1.753e-8
0.102, -1.760e-8
0.103, -1.765e-8
0.104, -1.776e-8
0.105, -1.775e-8
0.106, -1.784e-8
0.107, -1.787e-8
0.108, -1.788e-8
0.109, -1.797e-8
0.110, -1.792e-8
0.111, -1.799e-8
0.112, -1.799e-8
0.113, -1.797e-8
0.114, -1.804e-8
0.115, -1.796e-8
0.116, -1.801e-8
0.117, -1.799e-8
0.118, -1.794e-8
0.119, -1.798e-8
0.120, -1.789e-8
0.121, -1.791e-8
0.122, -1.787e-8
0.123, -1.780e-8
0.124, -1.783e-8
0.125, -1.771e-8
0.126, -1.773e-8
0.127, -1.767e-8
0.128, -1.758e-8
0.129, -1.760e-8
0.130, -1.748e-8
0.131, -1.747e-8
0.132, -1.740e-8
0.133, -1.731e-8
0.134, -1.732e-8
0.135, -1.718e-8
0.136, -1.717e-8
0.137, -1.710e-8
0.138, -1.699e-8
0.139, -1.699e-8
0.140, -1.686e-8
0.141, -1.684e-8
0.142, -1.676e-8
0.143, -1.666e-8
0.144, -1.666e-8
0.145, -1.652e-8
0.146, -1.650e-8
0.147, -1.641e-8
0.148, -1.631e-8
0.149, -1.631e-8
0.150, -1.617e-8
0.151, -1.615e-8
0.152, -1.607e-8
0.153, -1.597e-8
0.154, -1.597e-8
0.155, -1.582e-8
0.156, -1.581e-8
0.157, -1.573e-8
0.158, -1.563e-8
0.159, -1.563e-8
0.160, -1.549e-8
0.161, -1.548e-8
0.162, -1.540e-8
0.163, -1.530e-8
0.164, -1.531e-8
0.165, -1.516e-8
0.166, -1.516e-8
0.167, -1.508e-8
0.168, -1.499e-8
0.169, -1.499e-8
0.170, -1.486e-8
0.171, -1.485e-8
0.172, -1.479e-8
0.173, -1.469e-8
0.174, -1.470e-8
0.175, -1.457e-8
0.176, -1.457e-8
0.177, -1.451e-8
0.178, -1.442e-8
0.179, -1.444e-8
0.180, -1.432e-8
0.181, -1.431e-8
0.182, -1.426e-8
0.183, -1.417e-8
0.184, -1.419e-8
0.185, -1.407e-8
0.186, -1.407e-8
0.187, -1.402e-8
0.188, -1.394e-8
0.189, -1.396e-8
0.190, -1.385e-8
0.191, -1.386e-8
0.192, -1.380e-8
0.193, -1.373e-8
0.194, -1.376e-8
0.195, -1.364e-8
0.196, -1.365e-8
0.197, -1.360e-8
0.198, -1.353e-8
0.199, -1.356e-8
0.200, -1.345e-8
0.201, -1.347e-8
0.202, -1.342e-8
0.203, -1.335e-8
0.204, -1.339e-8
0.205, -1.328e-8
0.206, -1.331e-8
0.207, -1.327e-8
0.208, -1.319e-8
0.209, -1.323e-8
0.210, -1.313e-8
0.211, -1.315e-8
0.212, -1.311e-8
0.213, -1.305e-8
0.214, -1.309e-8
0.215, -1.299e-8
0.216, -1.301e-8
0.217, -1.298e-8
0.218, -1.292e-8
0.219, -1.296e-8
0.220, -1.286e-8
0.221, -1.289e-8
0.222, -1.285e-8
0.223, -1.280e-8
0.224, -1.284e-8
0.225, -1.275e-8
0.226, -1.278e-8
0.227, -1.274e-8
0.228, -1.269e-8
0.229, -1.274e-8
0.230, -1.264e-8
0.231, -1.268e-8
0.232, -1.265e-8
0.233, -1.260e-8
0.234, -1.265e-8
0.235, -1.255e-8
0.236, -1.259e-8
0.237, -1.256e-8
0.238, -1.251e-8
0.239, -1.256e-8
0.240, -1.247e-8
0.241, -1.251e-8
0.242, -1.249e-8
0.243, -1.243e-8
0.244, -1.250e-8
0.245, -1.240e-8
0.246, -1.244e-8
0.247, -1.242e-8
0.248, -1.237e-8
0.249, -1.243e-8
0.250, -1.234e-8
0.251, -1.238e-8
0.252, -1.236e-8
0.253, -1.231e-8
0.254, -1.237e-8
0.255, -1.229e-8
0.256, -1.233e-8
0.257, -1.231e-8
0.258, -1.227e-8
0.259, -1.233e-8
0.260, -1.225e-8
0.261, -1.228e-8
0.262, -1.227e-8
0.263, -1.223e-8
0.264, -1.229e-8
0.265, -1.221e-8
0.266, -1.226e-8
0.267, -1.224e-8
0.268, -1.220e-8
0.269, -1.226e-8
0.270, -1.218e-8
0.271, -1.223e-8
0.272, -1.221e-8
0.273, -1.217e-8
0.274, -1.224e-8
0.275, -1.216e-8
0.276, -1.221e-8
0.277, -1.220e-8
0.278, -1.216e-8
0.279, -1.223e-8
0.280, -1.215e-8
0.281, -1.220e-8
0.282, -1.219e-8
0.283, -1.215e-8
0.284, -1.222e-8
0.285, -1.214e-8
0.286, -1.219e-8
0.287, -1.219e-8
0.288, -1.214e-8
0.289, -1.222e-8
0.290, -1.215e-8
0.291, -1.219e-8
0.292, -1.219e-8
0.293, -1.215e-8
0.294, -1.223e-8
0.295, -1.216e-8
0.296, -1.221e-8
0.297, -1.220e-8
0.298, -1.217e-8
0.299, -1.224e-8
0.300, -1.157e-8
0.299, -1.059e-8
0.298, -1.026e-8
0.297, -1.006e-8
0.296, -1.001e-8
0.295, -9.827e-9
0.294, -9.791e-9
0.293, -9.703e-9
0.292, -9.588e-9
0.291, -9.595e-9
0.290, -9.449e-9
0.289, -9.438e-9
0.288, -9.376e-9
0.287, -9.280e-9
0.286, -9.299e-9
0.285, -9.177e-9
0.284, -9.174e-9
0.283, -9.127e-9
0.282, -9.040e-9
0.281, -9.065e-9
0.280, -8.954e-9
0.279, -8.962e-9
0.278, -8.920e-9
0.277, -8.843e-9
0.276, -8.872e-9
0.275, -8.766e-9
0.274, -8.780e-9
0.273, -8.738e-9
0.272, -8.670e-9
0.271, -8.704e-9
0.270, -8.601e-9
0.269, -8.615e-9
0.268, -8.579e-9
0.267, -8.514e-9
0.266, -8.556e-9
0.265, -8.447e-9
0.264, -8.472e-9
0.263, -8.437e-9
0.262, -8.370e-9
0.261, -8.413e-9
0.260, -8.312e-9
0.259, -8.340e-9
0.258, -8.302e-9
0.257, -8.238e-9
0.256, -8.279e-9
0.255, -8.181e-9
0.254, -8.212e-9
0.253, -8.179e-9
0.252, -8.112e-9
0.251, -8.166e-9
0.250, -8.065e-9
0.249, -8.091e-9
0.248, -8.066e-9
0.247, -7.998e-9
0.246, -8.051e-9
0.245, -7.953e-9
0.244, -7.975e-9
0.243, -7.951e-9
0.242, -7.889e-9
0.241, -7.937e-9
0.240, -7.841e-9
0.239, -7.863e-9
0.238, -7.841e-9
0.237, -7.779e-9
0.236, -7.826e-9
0.235, -7.734e-9
0.234, -7.760e-9
0.233, -7.732e-9
0.232, -7.674e-9
0.231, -7.719e-9
0.230, -7.624e-9
0.229, -7.653e-9
0.228, -7.622e-9
0.227, -7.564e-9
0.226, -7.614e-9
0.225, -7.511e-9
0.224, -7.542e-9
0.223, -7.512e-9
0.222, -7.453e-9
0.221, -7.501e-9
0.220, -7.404e-9
0.219, -7.431e-9
0.218, -7.403e-9
0.217, -7.341e-9
0.216, -7.390e-9
0.215, -7.287e-9
0.214, -7.317e-9
0.213, -7.283e-9
0.212, -7.213e-9
0.211, -7.274e-9
0.210, -7.165e-9
0.209, -7.192e-9
0.208, -7.165e-9
0.207, -7.094e-9
0.206, -7.142e-9
0.205, -7.037e-9
0.204, -7.058e-9
0.203, -7.035e-9
0.202, -6.966e-9
0.201, -7.011e-9
0.200, -6.910e-9
0.199, -6.926e-9
0.198, -6.898e-9
0.197, -6.825e-9
0.196, -6.864e-9
0.195, -6.766e-9
0.194, -6.780e-9
0.193, -6.746e-9
0.192, -6.673e-9
0.191, -6.709e-9
0.190, -6.606e-9
0.189, -6.621e-9
0.188, -6.585e-9
0.187, -6.509e-9
0.186, -6.545e-9
0.185, -6.432e-9
0.184, -6.446e-9
0.183, -6.399e-9
0.182, -6.324e-9
0.181, -6.352e-9
0.180, -6.238e-9
0.179, -6.243e-9
0.178, -6.198e-9
0.177, -6.117e-9
0.176, -6.145e-9
0.175, -6.024e-9
0.174, -6.028e-9
0.173, -5.974e-9
0.172, -5.883e-9
0.171, -5.909e-9
0.170, -5.777e-9
0.169, -5.774e-9
0.168, -5.715e-9
0.167, -5.615e-9
0.166, -5.631e-9
0.165, -5.498e-9
0.164, -5.485e-9
0.163, -5.424e-9
0.162, -5.313e-9
0.161, -5.319e-9
0.160, -5.183e-9
0.159, -5.155e-9
0.158, -5.084e-9
0.157, -4.969e-9
0.156, -4.962e-9
0.155, -4.817e-9
0.154, -4.776e-9
0.153, -4.694e-9
0.152, -4.572e-9
0.151, -4.552e-9
0.150, -4.394e-9
0.149, -4.351e-9
0.148, -4.249e-9
0.147, -4.114e-9
0.146, -4.086e-9
0.145, -3.912e-9
0.144, -3.852e-9
0.143, -3.737e-9
0.142, -3.592e-9
0.141, -3.547e-9
0.140, -3.364e-9
0.139, -3.291e-9
0.138, -3.163e-9
0.137, -2.996e-9
0.136, -2.939e-9
0.135, -2.728e-9
0.134, -2.641e-9
0.133, -2.495e-9
0.132, -2.312e-9
0.131, -2.239e-9
0.130, -2.012e-9
0.129, -1.904e-9
0.128, -1.740e-9
0.127, -1.531e-9
0.126, -1.444e-9
0.125, -1.203e-9
0.124, -1.074e-9
0.123, -9.034e-10
0.122, -6.732e-10
0.121, -5.585e-10
0.120, -3.019e-10
0.119, -1.519e-10
0.118, 3.477e-11
0.117, 2.837e-10
0.116, 4.154e-10
0.115, 6.967e-10
0.114, 8.695e-10
0.113, 1.078e-9
0.112, 1.334e-9
0.111, 1.492e-9
0.110, 1.771e-9
0.109, 1.962e-9
0.108, 2.190e-9
0.107, 2.450e-9
0.106, 2.617e-9
0.105, 2.921e-9
0.104, 3.113e-9
0.103, 3.365e-9
0.102, 3.645e-9
0.101, 3.819e-9
0.100, 4.129e-9
0.099, 4.318e-9
0.098, 4.570e-9
0.097, 4.852e-9
0.096, 5.017e-9
0.095, 5.343e-9
0.094, 5.530e-9
0.093, 5.778e-9
0.092, 6.070e-9
0.091, 6.232e-9
0.090, 6.546e-9
0.089, 6.746e-9
0.088, 6.972e-9
0.087, 7.257e-9
0.086, 7.406e-9
0.085, 7.709e-9
0.084, 7.894e-9
0.083, 8.106e-9
0.082, 8.375e-9
0.081, 8.522e-9
0.080, 8.792e-9
0.079, 8.968e-9
0.078, 9.160e-9
0.077, 9.405e-9
0.076, 9.529e-9
0.075, 9.774e-9
0.074, 9.919e-9
0.073, 1.008e-8
0.072, 1.029e-8
0.071, 1.039e-8
0.070, 1.059e-8
0.069, 1.071e-8
0.068, 1.086e-8
0.067, 1.102e-8
0.066, 1.109e-8
0.065, 1.128e-8
0.064, 1.136e-8
0.063, 1.147e-8
0.062, 1.161e-8
0.061, 1.164e-8
0.060, 1.180e-8
0.059, 1.184e-8
0.058, 1.192e-8
0.057, 1.203e-8
0.056, 1.203e-8
0.055, 1.216e-8
0.054, 1.217e-8
0.053, 1.222e-8
0.052, 1.230e-8
0.051, 1.227e-8
0.050, 1.236e-8
0.049, 1.234e-8
0.048, 1.235e-8
0.047, 1.241e-8
0.046, 1.235e-8
0.045, 1.243e-8
0.044, 1.239e-8
0.043, 1.238e-8
0.042, 1.242e-8
0.041, 1.233e-8
0.040, 1.238e-8
0.039, 1.233e-8
0.038, 1.231e-8
0.037, 1.232e-8
0.036, 1.223e-8
0.035, 1.226e-8
0.034, 1.218e-8
0.033, 1.215e-8
0.032, 1.214e-8
0.031, 1.204e-8
0.030, 1.206e-8
0.029, 1.197e-8
0.028, 1.193e-8
0.027, 1.191e-8
0.026, 1.180e-8
0.025, 1.181e-8
0.024, 1.171e-8
0.023, 1.166e-8
0.022, 1.163e-8
0.021, 1.151e-8
0.020, 1.152e-8
0.019, 1.141e-8
0.018, 1.135e-8
0.017, 1.133e-8
0.016, 1.120e-8
0.015, 1.121e-8
0.014, 1.110e-8
0.013, 1.104e-8
0.012, 1.102e-8
0.011, 1.088e-8
0.010, 1.089e-8
0.009, 1.078e-8
0.008, 1.072e-8
0.007, 1.070e-8
0.006, 1.056e-8
0.005, 1.057e-8
0.004, 1.047e-8
0.003, 1.040e-8
0.002, 1.039e-8
0.001, 1.026e-8
0.000, 1.030e-8
-0.001, 1.018e-8
-0.002, 1.011e-8
-0.003, 1.009e-8
-0.004, 9.959e-9
-0.005, 9.973e-9
-0.006, 9.868e-9
-0.007, 9.810e-9
-0.008, 9.797e-9
-0.009, 9.671e-9
-0.010, 9.680e-9
-0.011, 9.586e-9
-0.012, 9.535e-9
-0.013, 9.525e-9
-0.014, 9.398e-9
-0.015, 9.418e-9
-0.016, 9.320e-9
-0.017, 9.271e-9
-0.018, 9.260e-9
-0.019, 9.136e-9
-0.020, 9.164e-9
-0.021, 9.069e-9
-0.022, 9.024e-9
-0.023, 9.020e-9
-0.024, 8.902e-9
-0.025, 8.933e-9
-0.026, 8.838e-9
-0.027, 8.794e-9
-0.028, 8.795e-9
-0.029, 8.675e-9
-0.030, 8.710e-9
-0.031, 8.619e-9
-0.032, 8.577e-9
-0.033, 8.586e-9
-0.034, 8.466e-9
-0.035, 8.500e-9
-0.036, 8.414e-9
-0.037, 8.375e-9
-0.038, 8.383e-9
-0.039, 8.277e-9
-0.040, 8.308e-9
-0.041, 8.236e-9
-0.042, 8.197e-9
-0.043, 8.205e-9
-0.044, 8.102e-9
-0.045, 8.141e-9
-0.046, 8.063e-9
-0.047, 8.031e-9
-0.048, 8.041e-9
-0.049, 7.942e-9
-0.050, 7.981e-9
-0.051, 7.907e-9
-0.052, 7.879e-9
-0.053, 7.889e-9
-0.054, 7.787e-9
-0.055, 7.834e-9
-0.056, 7.761e-9
-0.057, 7.735e-9
-0.058, 7.749e-9
-0.059, 7.655e-9
-0.060, 7.702e-9
-0.061, 7.626e-9
-0.062, 7.601e-9
-0.063, 7.620e-9
-0.064, 7.522e-9
-0.065, 7.579e-9
-0.066, 7.503e-9
-0.067, 7.480e-9
-0.068, 7.504e-9
-0.069, 7.405e-9
-0.070, 7.456e-9
-0.071, 7.389e-9
-0.072, 7.367e-9
-0.073, 7.392e-9
-0.074, 7.295e-9
-0.075, 7.349e-9
-0.076, 7.287e-9
-0.077, 7.266e-9
-0.078, 7.291e-9
-0.079, 7.203e-9
-0.080, 7.252e-9
-0.081, 7.194e-9
-0.082, 7.169e-9
-0.083, 7.195e-9
-0.084, 7.110e-9
-0.085, 7.162e-9
-0.086, 7.099e-9
-0.087, 7.083e-9
-0.088, 7.108e-9
-0.089, 7.024e-9
-0.090, 7.079e-9
-0.091, 7.016e-9
-0.092, 7.004e-9
-0.093, 7.026e-9
-0.094, 6.942e-9
-0.095, 7.000e-9
-0.096, 6.937e-9
-0.097, 6.926e-9
-0.098, 6.955e-9
-0.099, 6.869e-9
-0.100, 6.931e-9
-0.101, 6.866e-9
-0.102, 6.859e-9
-0.103, 6.890e-9
-0.104, 6.800e-9
-0.105, 6.863e-9
-0.106, 6.804e-9
-0.107, 6.790e-9
-0.108, 6.827e-9
-0.109, 6.740e-9
-0.110, 6.802e-9
-0.111, 6.745e-9
-0.112, 6.732e-9
-0.113, 6.766e-9
-0.114, 6.682e-9
-0.115, 6.746e-9
-0.116, 6.693e-9
-0.117, 6.678e-9
-0.118, 6.713e-9
-0.119, 6.631e-9
-0.120, 6.692e-9
-0.121, 6.640e-9
-0.122, 6.628e-9
-0.123, 6.664e-9
-0.124, 6.586e-9
-0.125, 6.643e-9
-0.126, 6.593e-9
-0.127, 6.586e-9
-0.128, 6.621e-9
-0.129, 6.541e-9
-0.130, 6.603e-9
-0.131, 6.550e-9
-0.132, 6.545e-9
-0.133, 6.580e-9
-0.134, 6.501e-9
-0.135, 6.567e-9
-0.136, 6.511e-9
-0.137, 6.509e-9
-0.138, 6.542e-9
-0.139, 6.464e-9
-0.140, 6.530e-9
-0.141, 6.480e-9
-0.142, 6.475e-9
-0.143, 6.512e-9
-0.144, 6.431e-9
-0.145, 6.501e-9
-0.146, 6.449e-9
-0.147, 6.444e-9
-0.148, 6.485e-9
-0.149, 6.405e-9
-0.150, 6.473e-9
-0.151, 6.427e-9
-0.152, 6.419e-9
-0.153, 6.461e-9
-0.154, 6.383e-9
-0.155, 6.455e-9
-0.156, 6.405e-9
-0.157, 6.399e-9
-0.158, 6.438e-9
-0.159, 6.364e-9
-0.160, 6.433e-9
-0.161, 6.387e-9
-0.162, 6.384e-9
-0.163, 6.423e-9
-0.164, 6.351e-9
-0.165, 6.420e-9
-0.166, 6.374e-9
-0.167, 6.372e-9
-0.168, 6.411e-9
-0.169, 6.342e-9
-0.170, 6.409e-9
-0.171, 6.362e-9
-0.172, 6.366e-9
-0.173, 6.402e-9
-0.174, 6.335e-9
-0.175, 6.404e-9
-0.176, 6.356e-9
-0.177, 6.359e-9
-0.178, 6.403e-9
-0.179, 6.333e-9
-0.180, 6.407e-9
-0.181, 6.359e-9
-0.182, 6.362e-9
-0.183, 6.407e-9
-0.184, 6.332e-9
-0.185, 6.410e-9
-0.186, 6.365e-9
-0.187, 6.366e-9
-0.188, 6.415e-9
-0.189, 6.343e-9
-0.190, 6.417e-9
-0.191, 6.374e-9
-0.192, 6.379e-9
-0.193, 6.426e-9
-0.194, 6.356e-9
-0.195, 6.432e-9
-0.196, 6.391e-9
-0.197, 6.392e-9
-0.198, 6.443e-9
-0.199, 6.376e-9
