Mar. 16, 2023   09:02:28
Cyclic Voltammetry
File: c:/users/oliverrz/desktop/electrolab/data/2023_03_16\fcmeoh_macros_250_um\electrode8_cv_100mvs_250_um.bin
Data Source:  Experiment
Instrument Model:  CHI760E
Header: CV
Note: 

Init E (V) = -0.2
High E (V) = 0.3
Low E (V) = -0.2
Final E (V) = -0.2
Init P/N = P
Scan Rate (V/s) = 0.1
Segment = 3
Sample Interval (V) = 0.001
Quiet Time (sec) = 2
Sensitivity (A/V) = 1e-7

Results:

Channel 1:
Segment 1:
Ep = 0.068V
ip = -9.029e-9A
Ah = -5.857e-9C

Segment 2:
Ep = -0.001V
ip = 1.242e-8A
Ah = 7.952e-9C

Segment 3:

Potential/V, Current/A

-0.200, 1.479e-8
-0.199, 1.390e-8
-0.198, 1.362e-8
-0.197, 1.331e-8
-0.196, 1.317e-8
-0.195, 1.297e-8
-0.194, 1.276e-8
-0.193, 1.266e-8
-0.192, 1.241e-8
-0.191, 1.232e-8
-0.190, 1.215e-8
-0.189, 1.198e-8
-0.188, 1.189e-8
-0.187, 1.167e-8
-0.186, 1.159e-8
-0.185, 1.142e-8
-0.184, 1.125e-8
-0.183, 1.118e-8
-0.182, 1.096e-8
-0.181, 1.089e-8
-0.180, 1.074e-8
-0.179, 1.057e-8
-0.178, 1.051e-8
-0.177, 1.030e-8
-0.176, 1.024e-8
-0.175, 1.009e-8
-0.174, 9.934e-9
-0.173, 9.881e-9
-0.172, 9.669e-9
-0.171, 9.621e-9
-0.170, 9.472e-9
-0.169, 9.322e-9
-0.168, 9.273e-9
-0.167, 9.070e-9
-0.166, 9.014e-9
-0.165, 8.878e-9
-0.164, 8.731e-9
-0.163, 8.691e-9
-0.162, 8.487e-9
-0.161, 8.435e-9
-0.160, 8.301e-9
-0.159, 8.161e-9
-0.158, 8.117e-9
-0.157, 7.932e-9
-0.156, 7.882e-9
-0.155, 7.756e-9
-0.154, 7.617e-9
-0.153, 7.572e-9
-0.152, 7.388e-9
-0.151, 7.347e-9
-0.150, 7.222e-9
-0.149, 7.094e-9
-0.148, 7.053e-9
-0.147, 6.874e-9
-0.146, 6.836e-9
-0.145, 6.708e-9
-0.144, 6.589e-9
-0.143, 6.549e-9
-0.142, 6.379e-9
-0.141, 6.340e-9
-0.140, 6.212e-9
-0.139, 6.102e-9
-0.138, 6.068e-9
-0.137, 5.889e-9
-0.136, 5.868e-9
-0.135, 5.742e-9
-0.134, 5.628e-9
-0.133, 5.597e-9
-0.132, 5.421e-9
-0.131, 5.403e-9
-0.130, 5.285e-9
-0.129, 5.166e-9
-0.128, 5.141e-9
-0.127, 4.968e-9
-0.126, 4.946e-9
-0.125, 4.836e-9
-0.124, 4.722e-9
-0.123, 4.702e-9
-0.122, 4.535e-9
-0.121, 4.515e-9
-0.120, 4.409e-9
-0.119, 4.301e-9
-0.118, 4.280e-9
-0.117, 4.122e-9
-0.116, 4.098e-9
-0.115, 3.991e-9
-0.114, 3.887e-9
-0.113, 3.865e-9
-0.112, 3.708e-9
-0.111, 3.695e-9
-0.110, 3.590e-9
-0.109, 3.493e-9
-0.108, 3.466e-9
-0.107, 3.311e-9
-0.106, 3.299e-9
-0.105, 3.193e-9
-0.104, 3.100e-9
-0.103, 3.080e-9
-0.102, 2.920e-9
-0.101, 2.915e-9
-0.100, 2.806e-9
-0.099, 2.720e-9
-0.098, 2.703e-9
-0.097, 2.546e-9
-0.096, 2.550e-9
-0.095, 2.441e-9
-0.094, 2.350e-9
-0.093, 2.340e-9
-0.092, 2.184e-9
-0.091, 2.187e-9
-0.090, 2.077e-9
-0.089, 1.986e-9
-0.088, 1.980e-9
-0.087, 1.821e-9
-0.086, 1.822e-9
-0.085, 1.722e-9
-0.084, 1.630e-9
-0.083, 1.625e-9
-0.082, 1.472e-9
-0.081, 1.468e-9
-0.080, 1.367e-9
-0.079, 1.277e-9
-0.078, 1.269e-9
-0.077, 1.115e-9
-0.076, 1.114e-9
-0.075, 1.015e-9
-0.074, 9.251e-10
-0.073, 9.111e-10
-0.072, 7.650e-10
-0.071, 7.580e-10
-0.070, 6.554e-10
-0.069, 5.656e-10
-0.068, 5.435e-10
-0.067, 4.014e-10
-0.066, 3.960e-10
-0.065, 2.884e-10
-0.064, 1.976e-10
-0.063, 1.787e-10
-0.062, 3.251e-11
-0.061, 3.152e-11
-0.060, -7.844e-11
-0.059, -1.698e-10
-0.058, -1.922e-10
-0.057, -3.500e-10
-0.056, -3.540e-10
-0.055, -4.687e-10
-0.054, -5.634e-10
-0.053, -5.812e-10
-0.052, -7.529e-10
-0.051, -7.656e-10
-0.050, -8.773e-10
-0.049, -9.800e-10
-0.048, -1.003e-9
-0.047, -1.170e-9
-0.046, -1.186e-9
-0.045, -1.304e-9
-0.044, -1.420e-9
-0.043, -1.449e-9
-0.042, -1.618e-9
-0.041, -1.653e-9
-0.040, -1.778e-9
-0.039, -1.896e-9
-0.038, -1.941e-9
-0.037, -2.120e-9
-0.036, -2.158e-9
-0.035, -2.293e-9
-0.034, -2.416e-9
-0.033, -2.470e-9
-0.032, -2.655e-9
-0.031, -2.708e-9
-0.030, -2.858e-9
-0.029, -2.993e-9
-0.028, -3.068e-9
-0.027, -3.258e-9
-0.026, -3.325e-9
-0.025, -3.489e-9
-0.024, -3.630e-9
-0.023, -3.711e-9
-0.022, -3.920e-9
-0.021, -3.996e-9
-0.020, -4.180e-9
-0.019, -4.332e-9
-0.018, -4.432e-9
-0.017, -4.667e-9
-0.016, -4.746e-9
-0.015, -4.946e-9
-0.014, -5.115e-9
-0.013, -5.235e-9
-0.012, -5.484e-9
-0.011, -5.580e-9
-0.010, -5.794e-9
-0.009, -5.993e-9
-0.008, -6.111e-9
-0.007, -6.378e-9
-0.006, -6.493e-9
-0.005, -6.721e-9
-0.004, -6.935e-9
-0.003, -7.075e-9
-0.002, -7.364e-9
-0.001, -7.505e-9
-0.000, -7.812e-9
0.001, -8.016e-9
0.002, -8.160e-9
0.003, -8.435e-9
0.004, -8.595e-9
0.005, -8.839e-9
0.006, -9.076e-9
0.007, -9.253e-9
0.008, -9.541e-9
0.009, -9.711e-9
0.010, -9.966e-9
0.011, -1.020e-8
0.012, -1.040e-8
0.013, -1.070e-8
0.014, -1.086e-8
0.015, -1.114e-8
0.016, -1.137e-8
0.017, -1.156e-8
0.018, -1.187e-8
0.019, -1.203e-8
0.020, -1.231e-8
0.021, -1.253e-8
0.022, -1.272e-8
0.023, -1.302e-8
0.024, -1.317e-8
0.025, -1.344e-8
0.026, -1.368e-8
0.027, -1.384e-8
0.028, -1.414e-8
0.029, -1.427e-8
0.030, -1.451e-8
0.031, -1.474e-8
0.032, -1.487e-8
0.033, -1.515e-8
0.034, -1.528e-8
0.035, -1.549e-8
0.036, -1.569e-8
0.037, -1.581e-8
0.038, -1.606e-8
0.039, -1.616e-8
0.040, -1.634e-8
0.041, -1.651e-8
0.042, -1.660e-8
0.043, -1.681e-8
0.044, -1.688e-8
0.045, -1.703e-8
0.046, -1.718e-8
0.047, -1.723e-8
0.048, -1.741e-8
0.049, -1.744e-8
0.050, -1.758e-8
0.051, -1.768e-8
0.052, -1.772e-8
0.053, -1.785e-8
0.054, -1.785e-8
0.055, -1.796e-8
0.056, -1.801e-8
0.057, -1.802e-8
0.058, -1.813e-8
0.059, -1.810e-8
0.060, -1.817e-8
0.061, -1.819e-8
0.062, -1.817e-8
0.063, -1.826e-8
0.064, -1.820e-8
0.065, -1.825e-8
0.066, -1.825e-8
0.067, -1.819e-8
0.068, -1.826e-8
0.069, -1.817e-8
0.070, -1.820e-8
0.071, -1.818e-8
0.072, -1.810e-8
0.073, -1.815e-8
0.074, -1.804e-8
0.075, -1.805e-8
0.076, -1.802e-8
0.077, -1.793e-8
0.078, -1.797e-8
0.079, -1.785e-8
0.080, -1.783e-8
0.081, -1.779e-8
0.082, -1.769e-8
0.083, -1.770e-8
0.084, -1.758e-8
0.085, -1.756e-8
0.086, -1.751e-8
0.087, -1.740e-8
0.088, -1.740e-8
0.089, -1.727e-8
0.090, -1.726e-8
0.091, -1.719e-8
0.092, -1.708e-8
0.093, -1.708e-8
0.094, -1.695e-8
0.095, -1.693e-8
0.096, -1.686e-8
0.097, -1.675e-8
0.098, -1.676e-8
0.099, -1.661e-8
0.100, -1.660e-8
0.101, -1.653e-8
0.102, -1.642e-8
0.103, -1.643e-8
0.104, -1.628e-8
0.105, -1.626e-8
0.106, -1.620e-8
0.107, -1.609e-8
0.108, -1.610e-8
0.109, -1.596e-8
0.110, -1.594e-8
0.111, -1.589e-8
0.112, -1.577e-8
0.113, -1.579e-8
0.114, -1.566e-8
0.115, -1.564e-8
0.116, -1.559e-8
0.117, -1.548e-8
0.118, -1.550e-8
0.119, -1.538e-8
0.120, -1.536e-8
0.121, -1.531e-8
0.122, -1.522e-8
0.123, -1.523e-8
0.124, -1.511e-8
0.125, -1.510e-8
0.126, -1.506e-8
0.127, -1.496e-8
0.128, -1.499e-8
0.129, -1.488e-8
0.130, -1.488e-8
0.131, -1.483e-8
0.132, -1.475e-8
0.133, -1.478e-8
0.134, -1.467e-8
0.135, -1.468e-8
0.136, -1.464e-8
0.137, -1.456e-8
0.138, -1.460e-8
0.139, -1.448e-8
0.140, -1.451e-8
0.141, -1.447e-8
0.142, -1.439e-8
0.143, -1.444e-8
0.144, -1.433e-8
0.145, -1.435e-8
0.146, -1.433e-8
0.147, -1.425e-8
0.148, -1.431e-8
0.149, -1.421e-8
0.150, -1.424e-8
0.151, -1.421e-8
0.152, -1.415e-8
0.153, -1.421e-8
0.154, -1.411e-8
0.155, -1.414e-8
0.156, -1.413e-8
0.157, -1.406e-8
0.158, -1.413e-8
0.159, -1.404e-8
0.160, -1.407e-8
0.161, -1.406e-8
0.162, -1.400e-8
0.163, -1.406e-8
0.164, -1.398e-8
0.165, -1.402e-8
0.166, -1.401e-8
0.167, -1.397e-8
0.168, -1.403e-8
0.169, -1.395e-8
0.170, -1.400e-8
0.171, -1.399e-8
0.172, -1.395e-8
0.173, -1.401e-8
0.174, -1.394e-8
0.175, -1.399e-8
0.176, -1.398e-8
0.177, -1.395e-8
0.178, -1.402e-8
0.179, -1.395e-8
0.180, -1.401e-8
0.181, -1.400e-8
0.182, -1.396e-8
0.183, -1.405e-8
0.184, -1.397e-8
0.185, -1.403e-8
0.186, -1.403e-8
0.187, -1.399e-8
0.188, -1.409e-8
0.189, -1.401e-8
0.190, -1.407e-8
0.191, -1.409e-8
0.192, -1.405e-8
0.193, -1.414e-8
0.194, -1.407e-8
0.195, -1.414e-8
0.196, -1.415e-8
0.197, -1.412e-8
0.198, -1.421e-8
0.199, -1.415e-8
0.200, -1.421e-8
0.201, -1.423e-8
0.202, -1.421e-8
0.203, -1.429e-8
0.204, -1.424e-8
0.205, -1.432e-8
0.206, -1.433e-8
0.207, -1.432e-8
0.208, -1.440e-8
0.209, -1.435e-8
0.210, -1.443e-8
0.211, -1.444e-8
0.212, -1.444e-8
0.213, -1.453e-8
0.214, -1.447e-8
0.215, -1.456e-8
0.216, -1.457e-8
0.217, -1.457e-8
0.218, -1.467e-8
0.219, -1.462e-8
0.220, -1.471e-8
0.221, -1.472e-8
0.222, -1.472e-8
0.223, -1.483e-8
0.224, -1.478e-8
0.225, -1.487e-8
0.226, -1.489e-8
0.227, -1.489e-8
0.228, -1.500e-8
0.229, -1.495e-8
0.230, -1.505e-8
0.231, -1.508e-8
0.232, -1.507e-8
0.233, -1.519e-8
0.234, -1.515e-8
0.235, -1.524e-8
0.236, -1.527e-8
0.237, -1.528e-8
0.238, -1.539e-8
0.239, -1.536e-8
0.240, -1.545e-8
0.241, -1.548e-8
0.242, -1.549e-8
0.243, -1.560e-8
0.244, -1.557e-8
0.245, -1.567e-8
0.246, -1.570e-8
0.247, -1.572e-8
0.248, -1.583e-8
0.249, -1.580e-8
0.250, -1.590e-8
0.251, -1.593e-8
0.252, -1.595e-8
0.253, -1.606e-8
0.254, -1.604e-8
0.255, -1.615e-8
0.256, -1.618e-8
0.257, -1.620e-8
0.258, -1.632e-8
0.259, -1.629e-8
0.260, -1.640e-8
0.261, -1.644e-8
0.262, -1.646e-8
0.263, -1.659e-8
0.264, -1.655e-8
0.265, -1.667e-8
0.266, -1.670e-8
0.267, -1.673e-8
0.268, -1.685e-8
0.269, -1.683e-8
0.270, -1.694e-8
0.271, -1.699e-8
0.272, -1.701e-8
0.273, -1.714e-8
0.274, -1.711e-8
0.275, -1.723e-8
0.276, -1.728e-8
0.277, -1.730e-8
0.278, -1.743e-8
0.279, -1.742e-8
0.280, -1.753e-8
0.281, -1.758e-8
0.282, -1.762e-8
0.283, -1.774e-8
0.284, -1.773e-8
0.285, -1.784e-8
0.286, -1.789e-8
0.287, -1.793e-8
0.288, -1.806e-8
0.289, -1.805e-8
0.290, -1.817e-8
0.291, -1.821e-8
0.292, -1.825e-8
0.293, -1.838e-8
0.294, -1.838e-8
0.295, -1.850e-8
0.296, -1.855e-8
0.297, -1.859e-8
0.298, -1.873e-8
0.299, -1.872e-8
0.300, -1.776e-8
0.299, -1.559e-8
0.298, -1.464e-8
0.297, -1.416e-8
0.296, -1.366e-8
0.295, -1.336e-8
0.294, -1.304e-8
0.293, -1.273e-8
0.292, -1.253e-8
0.291, -1.223e-8
0.290, -1.206e-8
0.289, -1.184e-8
0.288, -1.163e-8
0.287, -1.150e-8
0.286, -1.126e-8
0.285, -1.116e-8
0.284, -1.097e-8
0.283, -1.081e-8
0.282, -1.072e-8
0.281, -1.051e-8
0.280, -1.044e-8
0.279, -1.029e-8
0.278, -1.015e-8
0.277, -1.010e-8
0.276, -9.899e-9
0.275, -9.861e-9
0.274, -9.729e-9
0.273, -9.609e-9
0.272, -9.573e-9
0.271, -9.394e-9
0.270, -9.368e-9
0.269, -9.254e-9
0.268, -9.140e-9
0.267, -9.128e-9
0.266, -8.960e-9
0.265, -8.945e-9
0.264, -8.844e-9
0.263, -8.737e-9
0.262, -8.736e-9
0.261, -8.574e-9
0.260, -8.565e-9
0.259, -8.482e-9
0.258, -8.382e-9
0.257, -8.378e-9
0.256, -8.232e-9
0.255, -8.230e-9
0.254, -8.149e-9
0.253, -8.063e-9
0.252, -8.062e-9
0.251, -7.923e-9
0.250, -7.924e-9
0.249, -7.843e-9
0.248, -7.762e-9
0.247, -7.765e-9
0.246, -7.635e-9
0.245, -7.646e-9
0.244, -7.559e-9
0.243, -7.483e-9
0.242, -7.494e-9
0.241, -7.366e-9
0.240, -7.382e-9
0.239, -7.296e-9
0.238, -7.226e-9
0.237, -7.236e-9
0.236, -7.101e-9
0.235, -7.124e-9
0.234, -7.047e-9
0.233, -6.978e-9
0.232, -6.996e-9
0.231, -6.860e-9
0.230, -6.879e-9
0.229, -6.809e-9
0.228, -6.737e-9
0.227, -6.765e-9
0.226, -6.632e-9
0.225, -6.652e-9
0.224, -6.586e-9
0.223, -6.515e-9
0.222, -6.543e-9
0.221, -6.413e-9
0.220, -6.432e-9
0.219, -6.368e-9
0.218, -6.298e-9
0.217, -6.320e-9
0.216, -6.196e-9
0.215, -6.218e-9
0.214, -6.155e-9
0.213, -6.093e-9
0.212, -6.109e-9
0.211, -5.993e-9
0.210, -6.014e-9
0.209, -5.944e-9
0.208, -5.890e-9
0.207, -5.906e-9
0.206, -5.785e-9
0.205, -5.805e-9
0.204, -5.732e-9
0.203, -5.685e-9
0.202, -5.701e-9
0.201, -5.583e-9
0.200, -5.611e-9
0.199, -5.538e-9
0.198, -5.481e-9
0.197, -5.505e-9
0.196, -5.376e-9
0.195, -5.415e-9
0.194, -5.341e-9
0.193, -5.283e-9
0.192, -5.306e-9
0.191, -5.183e-9
0.190, -5.222e-9
0.189, -5.148e-9
0.188, -5.090e-9
0.187, -5.114e-9
0.186, -4.995e-9
0.185, -5.020e-9
0.184, -4.956e-9
0.183, -4.897e-9
0.182, -4.923e-9
0.181, -4.803e-9
0.180, -4.829e-9
0.179, -4.764e-9
0.178, -4.707e-9
0.177, -4.731e-9
0.176, -4.617e-9
0.175, -4.644e-9
0.174, -4.576e-9
0.173, -4.520e-9
0.172, -4.533e-9
0.171, -4.424e-9
0.170, -4.450e-9
0.169, -4.379e-9
0.168, -4.330e-9
0.167, -4.345e-9
0.166, -4.227e-9
0.165, -4.259e-9
0.164, -4.184e-9
0.163, -4.137e-9
0.162, -4.155e-9
0.161, -4.036e-9
0.160, -4.073e-9
0.159, -3.992e-9
0.158, -3.944e-9
0.157, -3.964e-9
0.156, -3.834e-9
0.155, -3.872e-9
0.154, -3.792e-9
0.153, -3.741e-9
0.152, -3.761e-9
0.151, -3.637e-9
0.150, -3.672e-9
0.149, -3.595e-9
0.148, -3.538e-9
0.147, -3.558e-9
0.146, -3.441e-9
0.145, -3.467e-9
0.144, -3.397e-9
0.143, -3.336e-9
0.142, -3.354e-9
0.141, -3.227e-9
0.140, -3.249e-9
0.139, -3.175e-9
0.138, -3.113e-9
0.137, -3.128e-9
0.136, -3.001e-9
0.135, -3.020e-9
0.134, -2.943e-9
0.133, -2.878e-9
0.132, -2.883e-9
0.131, -2.760e-9
0.130, -2.776e-9
0.129, -2.685e-9
0.128, -2.617e-9
0.127, -2.619e-9
0.126, -2.494e-9
0.125, -2.508e-9
0.124, -2.409e-9
0.123, -2.347e-9
0.122, -2.341e-9
0.121, -2.204e-9
0.120, -2.217e-9
0.119, -2.111e-9
0.118, -2.037e-9
0.117, -2.028e-9
0.116, -1.876e-9
0.115, -1.883e-9
0.114, -1.769e-9
0.113, -1.690e-9
0.112, -1.674e-9
0.111, -1.515e-9
0.110, -1.510e-9
0.109, -1.395e-9
0.108, -1.298e-9
0.107, -1.279e-9
0.106, -1.112e-9
0.105, -1.097e-9
0.104, -9.710e-10
0.103, -8.610e-10
0.102, -8.191e-10
0.101, -6.461e-10
0.100, -6.148e-10
0.099, -4.865e-10
0.098, -3.672e-10
0.097, -3.138e-10
0.096, -1.274e-10
0.095, -7.785e-11
0.094, 6.588e-11
0.093, 1.934e-10
0.092, 2.673e-10
0.091, 4.602e-10
0.090, 5.265e-10
0.089, 7.070e-10
0.088, 8.392e-10
0.087, 9.302e-10
0.086, 1.142e-9
0.085, 1.216e-9
0.084, 1.412e-9
0.083, 1.559e-9
0.082, 1.666e-9
0.081, 1.897e-9
0.080, 1.985e-9
0.079, 2.197e-9
0.078, 2.361e-9
0.077, 2.487e-9
0.076, 2.740e-9
0.075, 2.835e-9
0.074, 3.062e-9
0.073, 3.251e-9
0.072, 3.382e-9
0.071, 3.657e-9
0.070, 3.768e-9
0.069, 4.011e-9
0.068, 4.223e-9
0.067, 4.361e-9
0.066, 4.644e-9
0.065, 4.779e-9
0.064, 5.029e-9
0.063, 5.255e-9
0.062, 5.411e-9
0.061, 5.706e-9
0.060, 5.853e-9
0.059, 6.115e-9
0.058, 6.342e-9
0.057, 6.503e-9
0.056, 6.803e-9
0.055, 6.964e-9
0.054, 7.220e-9
0.053, 7.461e-9
0.052, 7.636e-9
0.051, 7.938e-9
0.050, 8.101e-9
0.049, 8.357e-9
0.048, 8.592e-9
0.047, 8.771e-9
0.046, 9.058e-9
0.045, 9.210e-9
0.044, 9.476e-9
0.043, 9.690e-9
0.042, 9.854e-9
0.041, 1.014e-8
0.040, 1.027e-8
0.039, 1.053e-8
0.038, 1.073e-8
0.037, 1.087e-8
0.036, 1.115e-8
0.035, 1.126e-8
0.034, 1.149e-8
0.033, 1.167e-8
0.032, 1.179e-8
0.031, 1.204e-8
0.030, 1.213e-8
0.029, 1.233e-8
0.028, 1.249e-8
0.027, 1.259e-8
0.026, 1.282e-8
0.025, 1.289e-8
0.024, 1.305e-8
0.023, 1.319e-8
0.022, 1.325e-8
0.021, 1.344e-8
0.020, 1.348e-8
0.019, 1.362e-8
0.018, 1.372e-8
0.017, 1.376e-8
0.016, 1.391e-8
0.015, 1.393e-8
0.014, 1.404e-8
0.013, 1.411e-8
0.012, 1.413e-8
0.011, 1.425e-8
0.010, 1.423e-8
0.009, 1.432e-8
0.008, 1.436e-8
0.007, 1.435e-8
0.006, 1.444e-8
0.005, 1.440e-8
0.004, 1.447e-8
0.003, 1.447e-8
0.002, 1.444e-8
0.001, 1.453e-8
0.000, 1.452e-8
-0.001, 1.455e-8
-0.002, 1.452e-8
-0.003, 1.446e-8
-0.004, 1.452e-8
-0.005, 1.442e-8
-0.006, 1.445e-8
-0.007, 1.442e-8
-0.008, 1.436e-8
-0.009, 1.441e-8
-0.010, 1.429e-8
-0.011, 1.432e-8
-0.012, 1.428e-8
-0.013, 1.420e-8
-0.014, 1.424e-8
-0.015, 1.412e-8
-0.016, 1.413e-8
-0.017, 1.409e-8
-0.018, 1.400e-8
-0.019, 1.403e-8
-0.020, 1.391e-8
-0.021, 1.391e-8
-0.022, 1.386e-8
-0.023, 1.377e-8
-0.024, 1.380e-8
-0.025, 1.368e-8
-0.026, 1.368e-8
-0.027, 1.363e-8
-0.028, 1.354e-8
-0.029, 1.355e-8
-0.030, 1.343e-8
-0.031, 1.344e-8
-0.032, 1.338e-8
-0.033, 1.330e-8
-0.034, 1.332e-8
-0.035, 1.320e-8
-0.036, 1.321e-8
-0.037, 1.315e-8
-0.038, 1.307e-8
-0.039, 1.310e-8
-0.040, 1.297e-8
-0.041, 1.299e-8
-0.042, 1.293e-8
-0.043, 1.285e-8
-0.044, 1.288e-8
-0.045, 1.276e-8
-0.046, 1.278e-8
-0.047, 1.273e-8
-0.048, 1.265e-8
-0.049, 1.269e-8
-0.050, 1.258e-8
-0.051, 1.260e-8
-0.052, 1.256e-8
-0.053, 1.248e-8
-0.054, 1.253e-8
-0.055, 1.242e-8
-0.056, 1.244e-8
-0.057, 1.241e-8
-0.058, 1.234e-8
-0.059, 1.238e-8
-0.060, 1.229e-8
-0.061, 1.231e-8
-0.062, 1.229e-8
-0.063, 1.223e-8
-0.064, 1.228e-8
-0.065, 1.219e-8
-0.066, 1.222e-8
-0.067, 1.220e-8
-0.068, 1.214e-8
-0.069, 1.220e-8
-0.070, 1.211e-8
-0.071, 1.215e-8
-0.072, 1.213e-8
-0.073, 1.208e-8
-0.074, 1.214e-8
-0.075, 1.206e-8
-0.076, 1.211e-8
-0.077, 1.209e-8
-0.078, 1.205e-8
-0.079, 1.212e-8
-0.080, 1.203e-8
-0.081, 1.209e-8
-0.082, 1.208e-8
-0.083, 1.204e-8
-0.084, 1.212e-8
-0.085, 1.204e-8
-0.086, 1.210e-8
-0.087, 1.210e-8
-0.088, 1.206e-8
-0.089, 1.214e-8
-0.090, 1.207e-8
-0.091, 1.214e-8
-0.092, 1.214e-8
-0.093, 1.210e-8
-0.094, 1.219e-8
-0.095, 1.213e-8
-0.096, 1.219e-8
-0.097, 1.220e-8
-0.098, 1.218e-8
-0.099, 1.226e-8
-0.100, 1.221e-8
-0.101, 1.227e-8
-0.102, 1.228e-8
-0.103, 1.227e-8
-0.104, 1.235e-8
-0.105, 1.230e-8
-0.106, 1.238e-8
-0.107, 1.239e-8
-0.108, 1.238e-8
-0.109, 1.247e-8
-0.110, 1.242e-8
-0.111, 1.251e-8
-0.112, 1.252e-8
-0.113, 1.252e-8
-0.114, 1.262e-8
-0.115, 1.257e-8
-0.116, 1.266e-8
-0.117, 1.268e-8
-0.118, 1.268e-8
-0.119, 1.279e-8
-0.120, 1.274e-8
-0.121, 1.284e-8
-0.122, 1.285e-8
-0.123, 1.286e-8
-0.124, 1.297e-8
-0.125, 1.292e-8
-0.126, 1.303e-8
-0.127, 1.305e-8
-0.128, 1.306e-8
-0.129, 1.318e-8
-0.130, 1.314e-8
-0.131, 1.324e-8
-0.132, 1.327e-8
-0.133, 1.328e-8
-0.134, 1.340e-8
-0.135, 1.336e-8
-0.136, 1.347e-8
-0.137, 1.351e-8
-0.138, 1.352e-8
-0.139, 1.364e-8
-0.140, 1.362e-8
-0.141, 1.373e-8
-0.142, 1.376e-8
-0.143, 1.379e-8
-0.144, 1.391e-8
-0.145, 1.389e-8
-0.146, 1.400e-8
-0.147, 1.404e-8
-0.148, 1.407e-8
-0.149, 1.419e-8
-0.150, 1.418e-8
-0.151, 1.430e-8
-0.152, 1.434e-8
-0.153, 1.438e-8
-0.154, 1.451e-8
-0.155, 1.449e-8
-0.156, 1.462e-8
-0.157, 1.466e-8
-0.158, 1.470e-8
-0.159, 1.484e-8
-0.160, 1.482e-8
-0.161, 1.496e-8
-0.162, 1.501e-8
-0.163, 1.505e-8
-0.164, 1.519e-8
-0.165, 1.519e-8
-0.166, 1.533e-8
-0.167, 1.539e-8
-0.168, 1.543e-8
-0.169, 1.558e-8
-0.170, 1.557e-8
-0.171, 1.571e-8
-0.172, 1.578e-8
-0.173, 1.583e-8
-0.174, 1.598e-8
-0.175, 1.599e-8
-0.176, 1.613e-8
-0.177, 1.620e-8
-0.178, 1.625e-8
-0.179, 1.642e-8
-0.180, 1.643e-8
-0.181, 1.657e-8
-0.182, 1.665e-8
-0.183, 1.672e-8
-0.184, 1.687e-8
-0.185, 1.689e-8
-0.186, 1.704e-8
-0.187, 1.712e-8
-0.188, 1.719e-8
-0.189, 1.735e-8
-0.190, 1.737e-8
-0.191, 1.753e-8
-0.192, 1.761e-8
-0.193, 1.769e-8
-0.194, 1.785e-8
-0.195, 1.788e-8
-0.196, 1.805e-8
-0.197, 1.812e-8
-0.198, 1.820e-8
-0.199, 1.838e-8
