Mar. 16, 2023   08:55:53
Cyclic Voltammetry
File: c:/users/oliverrz/desktop/electrolab/data/2023_03_16\fcmeoh_macros_250_um\electrode3_cv_100mvs_250_um.bin
Data Source:  Experiment
Instrument Model:  CHI760E
Header: CV
Note: 

Init E (V) = -0.2
High E (V) = 0.3
Low E (V) = -0.2
Final E (V) = -0.2
Init P/N = P
Scan Rate (V/s) = 0.1
Segment = 3
Sample Interval (V) = 0.001
Quiet Time (sec) = 2
Sensitivity (A/V) = 1e-7

Results:

Channel 1:
Segment 1:
Ep = 0.108V
ip = -1.653e-8A
Ah = -1.040e-8C

Segment 2:
Ep = 0.056V
ip = 1.433e-8A
Ah = 8.785e-9C

Segment 3:

Potential/V, Current/A

-0.200, 1.578e-9
-0.199, 1.094e-9
-0.198, 1.030e-9
-0.197, 8.893e-10
-0.196, 8.627e-10
-0.195, 8.177e-10
-0.194, 7.210e-10
-0.193, 7.380e-10
-0.192, 6.278e-10
-0.191, 6.174e-10
-0.190, 5.779e-10
-0.189, 4.917e-10
-0.188, 5.150e-10
-0.187, 4.134e-10
-0.186, 4.105e-10
-0.185, 3.747e-10
-0.184, 2.930e-10
-0.183, 3.233e-10
-0.182, 2.219e-10
-0.181, 2.270e-10
-0.180, 1.927e-10
-0.179, 1.126e-10
-0.178, 1.488e-10
-0.177, 4.885e-11
-0.176, 5.732e-11
-0.175, 2.877e-11
-0.174, -4.773e-11
-0.173, -1.022e-11
-0.172, -1.056e-10
-0.171, -9.498e-11
-0.170, -1.199e-10
-0.169, -1.977e-10
-0.168, -1.526e-10
-0.167, -2.564e-10
-0.166, -2.425e-10
-0.165, -2.644e-10
-0.164, -3.408e-10
-0.163, -2.920e-10
-0.162, -3.868e-10
-0.161, -3.766e-10
-0.160, -3.925e-10
-0.159, -4.677e-10
-0.158, -4.213e-10
-0.157, -5.114e-10
-0.156, -5.020e-10
-0.155, -5.187e-10
-0.154, -5.868e-10
-0.153, -5.445e-10
-0.152, -6.298e-10
-0.151, -6.140e-10
-0.150, -6.349e-10
-0.149, -6.983e-10
-0.148, -6.524e-10
-0.147, -7.371e-10
-0.146, -7.209e-10
-0.145, -7.379e-10
-0.144, -8.037e-10
-0.143, -7.546e-10
-0.142, -8.422e-10
-0.141, -8.230e-10
-0.140, -8.423e-10
-0.139, -9.026e-10
-0.138, -8.509e-10
-0.137, -9.388e-10
-0.136, -9.107e-10
-0.135, -9.321e-10
-0.134, -9.911e-10
-0.133, -9.403e-10
-0.132, -1.027e-9
-0.131, -9.993e-10
-0.130, -1.015e-9
-0.129, -1.078e-9
-0.128, -1.027e-9
-0.127, -1.109e-9
-0.126, -1.084e-9
-0.125, -1.098e-9
-0.124, -1.156e-9
-0.123, -1.103e-9
-0.122, -1.183e-9
-0.121, -1.160e-9
-0.120, -1.172e-9
-0.119, -1.231e-9
-0.118, -1.175e-9
-0.117, -1.256e-9
-0.116, -1.233e-9
-0.115, -1.243e-9
-0.114, -1.303e-9
-0.113, -1.250e-9
-0.112, -1.326e-9
-0.111, -1.301e-9
-0.110, -1.311e-9
-0.109, -1.366e-9
-0.108, -1.315e-9
-0.107, -1.390e-9
-0.106, -1.363e-9
-0.105, -1.376e-9
-0.104, -1.432e-9
-0.103, -1.380e-9
-0.102, -1.458e-9
-0.101, -1.427e-9
-0.100, -1.441e-9
-0.099, -1.491e-9
-0.098, -1.435e-9
-0.097, -1.518e-9
-0.096, -1.482e-9
-0.095, -1.498e-9
-0.094, -1.551e-9
-0.093, -1.492e-9
-0.092, -1.576e-9
-0.091, -1.540e-9
-0.090, -1.553e-9
-0.089, -1.610e-9
-0.088, -1.549e-9
-0.087, -1.632e-9
-0.086, -1.599e-9
-0.085, -1.611e-9
-0.084, -1.668e-9
-0.083, -1.603e-9
-0.082, -1.686e-9
-0.081, -1.656e-9
-0.080, -1.664e-9
-0.079, -1.719e-9
-0.078, -1.662e-9
-0.077, -1.745e-9
-0.076, -1.714e-9
-0.075, -1.724e-9
-0.074, -1.776e-9
-0.073, -1.719e-9
-0.072, -1.797e-9
-0.071, -1.768e-9
-0.070, -1.781e-9
-0.069, -1.832e-9
-0.068, -1.779e-9
-0.067, -1.857e-9
-0.066, -1.824e-9
-0.065, -1.841e-9
-0.064, -1.890e-9
-0.063, -1.840e-9
-0.062, -1.917e-9
-0.061, -1.886e-9
-0.060, -1.904e-9
-0.059, -1.955e-9
-0.058, -1.901e-9
-0.057, -1.988e-9
-0.056, -1.953e-9
-0.055, -1.973e-9
-0.054, -2.025e-9
-0.053, -1.973e-9
-0.052, -2.062e-9
-0.051, -2.030e-9
-0.050, -2.051e-9
-0.049, -2.108e-9
-0.048, -2.055e-9
-0.047, -2.141e-9
-0.046, -2.115e-9
-0.045, -2.136e-9
-0.044, -2.196e-9
-0.043, -2.143e-9
-0.042, -2.235e-9
-0.041, -2.211e-9
-0.040, -2.232e-9
-0.039, -2.297e-9
-0.038, -2.252e-9
-0.037, -2.339e-9
-0.036, -2.321e-9
-0.035, -2.345e-9
-0.034, -2.409e-9
-0.033, -2.371e-9
-0.032, -2.457e-9
-0.031, -2.446e-9
-0.030, -2.477e-9
-0.029, -2.540e-9
-0.028, -2.510e-9
-0.027, -2.604e-9
-0.026, -2.598e-9
-0.025, -2.635e-9
-0.024, -2.702e-9
-0.023, -2.672e-9
-0.022, -2.778e-9
-0.021, -2.769e-9
-0.020, -2.815e-9
-0.019, -2.887e-9
-0.018, -2.867e-9
-0.017, -2.980e-9
-0.016, -2.972e-9
-0.015, -3.026e-9
-0.014, -3.113e-9
-0.013, -3.097e-9
-0.012, -3.216e-9
-0.011, -3.220e-9
-0.010, -3.283e-9
-0.009, -3.375e-9
-0.008, -3.366e-9
-0.007, -3.487e-9
-0.006, -3.503e-9
-0.005, -3.567e-9
-0.004, -3.673e-9
-0.003, -3.672e-9
-0.002, -3.808e-9
-0.001, -3.837e-9
-0.000, -3.952e-9
0.001, -4.052e-9
0.002, -4.057e-9
0.003, -4.203e-9
0.004, -4.242e-9
0.005, -4.334e-9
0.006, -4.457e-9
0.007, -4.487e-9
0.008, -4.650e-9
0.009, -4.703e-9
0.010, -4.806e-9
0.011, -4.946e-9
0.012, -4.992e-9
0.013, -5.164e-9
0.014, -5.237e-9
0.015, -5.359e-9
0.016, -5.510e-9
0.017, -5.574e-9
0.018, -5.763e-9
0.019, -5.846e-9
0.020, -5.993e-9
0.021, -6.157e-9
0.022, -6.235e-9
0.023, -6.451e-9
0.024, -6.545e-9
0.025, -6.712e-9
0.026, -6.904e-9
0.027, -7.001e-9
0.028, -7.232e-9
0.029, -7.344e-9
0.030, -7.528e-9
0.031, -7.737e-9
0.032, -7.850e-9
0.033, -8.098e-9
0.034, -8.234e-9
0.035, -8.427e-9
0.036, -8.659e-9
0.037, -8.782e-9
0.038, -9.049e-9
0.039, -9.210e-9
0.040, -9.417e-9
0.041, -9.664e-9
0.042, -9.802e-9
0.043, -1.008e-8
0.044, -1.026e-8
0.045, -1.048e-8
0.046, -1.074e-8
0.047, -1.090e-8
0.048, -1.118e-8
0.049, -1.137e-8
0.050, -1.159e-8
0.051, -1.186e-8
0.052, -1.204e-8
0.053, -1.233e-8
0.054, -1.252e-8
0.055, -1.277e-8
0.056, -1.302e-8
0.057, -1.320e-8
0.058, -1.349e-8
0.059, -1.368e-8
0.060, -1.393e-8
0.061, -1.419e-8
0.062, -1.437e-8
0.063, -1.466e-8
0.064, -1.484e-8
0.065, -1.508e-8
0.066, -1.533e-8
0.067, -1.549e-8
0.068, -1.578e-8
0.069, -1.595e-8
0.070, -1.617e-8
0.071, -1.641e-8
0.072, -1.655e-8
0.073, -1.681e-8
0.074, -1.696e-8
0.075, -1.716e-8
0.076, -1.739e-8
0.077, -1.751e-8
0.078, -1.775e-8
0.079, -1.788e-8
0.080, -1.804e-8
0.081, -1.824e-8
0.082, -1.833e-8
0.083, -1.854e-8
0.084, -1.865e-8
0.085, -1.878e-8
0.086, -1.895e-8
0.087, -1.901e-8
0.088, -1.918e-8
0.089, -1.926e-8
0.090, -1.937e-8
0.091, -1.950e-8
0.092, -1.954e-8
0.093, -1.967e-8
0.094, -1.972e-8
0.095, -1.981e-8
0.096, -1.990e-8
0.097, -1.991e-8
0.098, -2.003e-8
0.099, -2.004e-8
0.100, -2.010e-8
0.101, -2.016e-8
0.102, -2.015e-8
0.103, -2.025e-8
0.104, -2.022e-8
0.105, -2.026e-8
0.106, -2.029e-8
0.107, -2.025e-8
0.108, -2.032e-8
0.109, -2.027e-8
0.110, -2.029e-8
0.111, -2.031e-8
0.112, -2.024e-8
0.113, -2.029e-8
0.114, -2.023e-8
0.115, -2.022e-8
0.116, -2.024e-8
0.117, -2.015e-8
0.118, -2.018e-8
0.119, -2.010e-8
0.120, -2.008e-8
0.121, -2.008e-8
0.122, -1.998e-8
0.123, -2.000e-8
0.124, -1.992e-8
0.125, -1.988e-8
0.126, -1.987e-8
0.127, -1.976e-8
0.128, -1.978e-8
0.129, -1.969e-8
0.130, -1.965e-8
0.131, -1.962e-8
0.132, -1.952e-8
0.133, -1.953e-8
0.134, -1.942e-8
0.135, -1.939e-8
0.136, -1.936e-8
0.137, -1.925e-8
0.138, -1.926e-8
0.139, -1.916e-8
0.140, -1.912e-8
0.141, -1.910e-8
0.142, -1.898e-8
0.143, -1.899e-8
0.144, -1.888e-8
0.145, -1.885e-8
0.146, -1.882e-8
0.147, -1.871e-8
0.148, -1.872e-8
0.149, -1.861e-8
0.150, -1.857e-8
0.151, -1.855e-8
0.152, -1.844e-8
0.153, -1.846e-8
0.154, -1.835e-8
0.155, -1.832e-8
0.156, -1.830e-8
0.157, -1.818e-8
0.158, -1.821e-8
0.159, -1.811e-8
0.160, -1.807e-8
0.161, -1.806e-8
0.162, -1.796e-8
0.163, -1.798e-8
0.164, -1.789e-8
0.165, -1.786e-8
0.166, -1.784e-8
0.167, -1.774e-8
0.168, -1.777e-8
0.169, -1.768e-8
0.170, -1.765e-8
0.171, -1.764e-8
0.172, -1.755e-8
0.173, -1.758e-8
0.174, -1.749e-8
0.175, -1.747e-8
0.176, -1.746e-8
0.177, -1.738e-8
0.178, -1.741e-8
0.179, -1.732e-8
0.180, -1.732e-8
0.181, -1.731e-8
0.182, -1.722e-8
0.183, -1.726e-8
0.184, -1.718e-8
0.185, -1.717e-8
0.186, -1.717e-8
0.187, -1.708e-8
0.188, -1.713e-8
0.189, -1.705e-8
0.190, -1.705e-8
0.191, -1.705e-8
0.192, -1.697e-8
0.193, -1.702e-8
0.194, -1.694e-8
0.195, -1.694e-8
0.196, -1.694e-8
0.197, -1.686e-8
0.198, -1.692e-8
0.199, -1.685e-8
0.200, -1.685e-8
0.201, -1.686e-8
0.202, -1.679e-8
0.203, -1.684e-8
0.204, -1.677e-8
0.205, -1.678e-8
0.206, -1.679e-8
0.207, -1.673e-8
0.208, -1.678e-8
0.209, -1.671e-8
0.210, -1.672e-8
0.211, -1.674e-8
0.212, -1.667e-8
0.213, -1.673e-8
0.214, -1.667e-8
0.215, -1.668e-8
0.216, -1.669e-8
0.217, -1.664e-8
0.218, -1.670e-8
0.219, -1.663e-8
0.220, -1.665e-8
0.221, -1.667e-8
0.222, -1.661e-8
0.223, -1.668e-8
0.224, -1.661e-8
0.225, -1.663e-8
0.226, -1.665e-8
0.227, -1.659e-8
0.228, -1.666e-8
0.229, -1.660e-8
0.230, -1.663e-8
0.231, -1.665e-8
0.232, -1.659e-8
0.233, -1.666e-8
0.234, -1.661e-8
0.235, -1.663e-8
0.236, -1.666e-8
0.237, -1.660e-8
0.238, -1.668e-8
0.239, -1.662e-8
0.240, -1.665e-8
0.241, -1.667e-8
0.242, -1.662e-8
0.243, -1.670e-8
0.244, -1.665e-8
0.245, -1.667e-8
0.246, -1.670e-8
0.247, -1.665e-8
0.248, -1.672e-8
0.249, -1.668e-8
0.250, -1.671e-8
0.251, -1.673e-8
0.252, -1.669e-8
0.253, -1.676e-8
0.254, -1.671e-8
0.255, -1.675e-8
0.256, -1.677e-8
0.257, -1.673e-8
0.258, -1.681e-8
0.259, -1.676e-8
0.260, -1.680e-8
0.261, -1.682e-8
0.262, -1.678e-8
0.263, -1.686e-8
0.264, -1.681e-8
0.265, -1.685e-8
0.266, -1.688e-8
0.267, -1.684e-8
0.268, -1.693e-8
0.269, -1.688e-8
0.270, -1.692e-8
0.271, -1.695e-8
0.272, -1.690e-8
0.273, -1.699e-8
0.274, -1.695e-8
0.275, -1.698e-8
0.276, -1.702e-8
0.277, -1.698e-8
0.278, -1.706e-8
0.279, -1.702e-8
0.280, -1.706e-8
0.281, -1.710e-8
0.282, -1.707e-8
0.283, -1.715e-8
0.284, -1.711e-8
0.285, -1.715e-8
0.286, -1.719e-8
0.287, -1.715e-8
0.288, -1.724e-8
0.289, -1.720e-8
0.290, -1.724e-8
0.291, -1.728e-8
0.292, -1.725e-8
0.293, -1.733e-8
0.294, -1.730e-8
0.295, -1.735e-8
0.296, -1.738e-8
0.297, -1.735e-8
0.298, -1.744e-8
0.299, -1.740e-8
0.300, -1.679e-8
0.299, -1.557e-8
0.298, -1.502e-8
0.297, -1.479e-8
0.296, -1.450e-8
0.295, -1.432e-8
0.294, -1.416e-8
0.293, -1.394e-8
0.292, -1.386e-8
0.291, -1.366e-8
0.290, -1.355e-8
0.289, -1.344e-8
0.288, -1.327e-8
0.287, -1.322e-8
0.286, -1.305e-8
0.285, -1.298e-8
0.284, -1.289e-8
0.283, -1.275e-8
0.282, -1.272e-8
0.281, -1.257e-8
0.280, -1.251e-8
0.279, -1.244e-8
0.278, -1.231e-8
0.277, -1.230e-8
0.276, -1.216e-8
0.275, -1.213e-8
0.274, -1.207e-8
0.273, -1.195e-8
0.272, -1.195e-8
0.271, -1.181e-8
0.270, -1.179e-8
0.269, -1.173e-8
0.268, -1.162e-8
0.267, -1.163e-8
0.266, -1.151e-8
0.265, -1.148e-8
0.264, -1.144e-8
0.263, -1.133e-8
0.262, -1.135e-8
0.261, -1.124e-8
0.260, -1.121e-8
0.259, -1.118e-8
0.258, -1.107e-8
0.257, -1.109e-8
0.256, -1.097e-8
0.255, -1.095e-8
0.254, -1.092e-8
0.253, -1.082e-8
0.252, -1.084e-8
0.251, -1.074e-8
0.250, -1.071e-8
0.249, -1.069e-8
0.248, -1.059e-8
0.247, -1.061e-8
0.246, -1.051e-8
0.245, -1.050e-8
0.244, -1.046e-8
0.243, -1.037e-8
0.242, -1.039e-8
0.241, -1.029e-8
0.240, -1.028e-8
0.239, -1.025e-8
0.238, -1.016e-8
0.237, -1.018e-8
0.236, -1.008e-8
0.235, -1.007e-8
0.234, -1.004e-8
0.233, -9.946e-9
0.232, -9.974e-9
0.231, -9.868e-9
0.230, -9.861e-9
0.229, -9.830e-9
0.228, -9.740e-9
0.227, -9.774e-9
0.226, -9.666e-9
0.225, -9.657e-9
0.224, -9.630e-9
0.223, -9.537e-9
0.222, -9.568e-9
0.221, -9.461e-9
0.220, -9.448e-9
0.219, -9.421e-9
0.218, -9.329e-9
0.217, -9.357e-9
0.216, -9.252e-9
0.215, -9.240e-9
0.214, -9.214e-9
0.213, -9.123e-9
0.212, -9.144e-9
0.211, -9.044e-9
0.210, -9.031e-9
0.209, -8.998e-9
0.208, -8.907e-9
0.207, -8.927e-9
0.206, -8.823e-9
0.205, -8.806e-9
0.204, -8.769e-9
0.203, -8.679e-9
0.202, -8.701e-9
0.201, -8.589e-9
0.200, -8.576e-9
0.199, -8.535e-9
0.198, -8.445e-9
0.197, -8.464e-9
0.196, -8.350e-9
0.195, -8.335e-9
0.194, -8.290e-9
0.193, -8.194e-9
0.192, -8.210e-9
0.191, -8.089e-9
0.190, -8.072e-9
0.189, -8.026e-9
0.188, -7.921e-9
0.187, -7.939e-9
0.186, -7.817e-9
0.185, -7.791e-9
0.184, -7.741e-9
0.183, -7.632e-9
0.182, -7.643e-9
0.181, -7.517e-9
0.180, -7.482e-9
0.179, -7.430e-9
0.178, -7.316e-9
0.177, -7.316e-9
0.176, -7.181e-9
0.175, -7.140e-9
0.174, -7.079e-9
0.173, -6.961e-9
0.172, -6.950e-9
0.171, -6.815e-9
0.170, -6.769e-9
0.169, -6.695e-9
0.168, -6.574e-9
0.167, -6.550e-9
0.166, -6.403e-9
0.165, -6.355e-9
0.164, -6.269e-9
0.163, -6.137e-9
0.162, -6.109e-9
0.161, -5.950e-9
0.160, -5.890e-9
0.159, -5.792e-9
0.158, -5.650e-9
0.157, -5.610e-9
0.156, -5.435e-9
0.155, -5.367e-9
0.154, -5.253e-9
0.153, -5.094e-9
0.152, -5.047e-9
0.151, -4.855e-9
0.150, -4.773e-9
0.149, -4.648e-9
0.148, -4.474e-9
0.147, -4.414e-9
0.146, -4.206e-9
0.145, -4.101e-9
0.144, -3.963e-9
0.143, -3.771e-9
0.142, -3.693e-9
0.141, -3.473e-9
0.140, -3.351e-9
0.139, -3.201e-9
0.138, -2.989e-9
0.137, -2.886e-9
0.136, -2.653e-9
0.135, -2.509e-9
0.134, -2.339e-9
0.133, -2.114e-9
0.132, -1.988e-9
0.131, -1.738e-9
0.130, -1.570e-9
0.129, -1.377e-9
0.128, -1.131e-9
0.127, -9.843e-10
0.126, -7.192e-10
0.125, -5.378e-10
0.124, -3.242e-10
0.123, -6.427e-11
0.122, 1.003e-10
0.121, 3.815e-10
0.120, 5.857e-10
0.119, 8.228e-10
0.118, 1.091e-9
0.117, 1.275e-9
0.116, 1.580e-9
0.115, 1.790e-9
0.114, 2.039e-9
0.113, 2.324e-9
0.112, 2.506e-9
0.111, 2.825e-9
0.110, 3.037e-9
0.109, 3.290e-9
0.108, 3.590e-9
0.107, 3.780e-9
0.106, 4.096e-9
0.105, 4.312e-9
0.104, 4.562e-9
0.103, 4.871e-9
0.102, 5.068e-9
0.101, 5.383e-9
0.100, 5.595e-9
0.099, 5.839e-9
0.098, 6.129e-9
0.097, 6.312e-9
0.096, 6.613e-9
0.095, 6.818e-9
0.094, 7.047e-9
0.093, 7.327e-9
0.092, 7.496e-9
0.091, 7.766e-9
0.090, 7.964e-9
0.089, 8.179e-9
0.088, 8.421e-9
0.087, 8.577e-9
0.086, 8.828e-9
0.085, 8.995e-9
0.084, 9.179e-9
0.083, 9.391e-9
0.082, 9.511e-9
0.081, 9.737e-9
0.080, 9.865e-9
0.079, 1.002e-8
0.078, 1.020e-8
0.077, 1.029e-8
0.076, 1.049e-8
0.075, 1.057e-8
0.074, 1.069e-8
0.073, 1.084e-8
0.072, 1.088e-8
0.071, 1.105e-8
0.070, 1.109e-8
0.069, 1.118e-8
0.068, 1.129e-8
0.067, 1.130e-8
0.066, 1.142e-8
0.065, 1.145e-8
0.064, 1.150e-8
0.063, 1.159e-8
0.062, 1.155e-8
0.061, 1.165e-8
0.060, 1.164e-8
0.059, 1.166e-8
0.058, 1.171e-8
0.057, 1.165e-8
0.056, 1.172e-8
0.055, 1.169e-8
0.054, 1.168e-8
0.053, 1.171e-8
0.052, 1.164e-8
0.051, 1.168e-8
0.050, 1.162e-8
0.049, 1.159e-8
0.048, 1.159e-8
0.047, 1.150e-8
0.046, 1.152e-8
0.045, 1.144e-8
0.044, 1.141e-8
0.043, 1.139e-8
0.042, 1.128e-8
0.041, 1.129e-8
0.040, 1.120e-8
0.039, 1.115e-8
0.038, 1.113e-8
0.037, 1.100e-8
0.036, 1.101e-8
0.035, 1.090e-8
0.034, 1.085e-8
0.033, 1.082e-8
0.032, 1.069e-8
0.031, 1.069e-8
0.030, 1.058e-8
0.029, 1.051e-8
0.028, 1.048e-8
0.027, 1.034e-8
0.026, 1.035e-8
0.025, 1.024e-8
0.024, 1.017e-8
0.023, 1.013e-8
0.022, 9.998e-9
0.021, 9.995e-9
0.020, 9.881e-9
0.019, 9.811e-9
0.018, 9.780e-9
0.017, 9.643e-9
0.016, 9.640e-9
0.015, 9.534e-9
0.014, 9.464e-9
0.013, 9.436e-9
0.012, 9.304e-9
0.011, 9.299e-9
0.010, 9.189e-9
0.009, 9.130e-9
0.008, 9.097e-9
0.007, 8.972e-9
0.006, 8.972e-9
0.005, 8.862e-9
0.004, 8.807e-9
0.003, 8.774e-9
0.002, 8.653e-9
0.001, 8.658e-9
0.000, 8.582e-9
-0.001, 8.516e-9
-0.002, 8.476e-9
-0.003, 8.352e-9
-0.004, 8.364e-9
-0.005, 8.258e-9
-0.006, 8.213e-9
-0.007, 8.194e-9
-0.008, 8.076e-9
-0.009, 8.097e-9
-0.010, 7.990e-9
-0.011, 7.946e-9
-0.012, 7.933e-9
-0.013, 7.818e-9
-0.014, 7.841e-9
-0.015, 7.741e-9
-0.016, 7.702e-9
-0.017, 7.697e-9
-0.018, 7.582e-9
-0.019, 7.608e-9
-0.020, 7.518e-9
-0.021, 7.479e-9
-0.022, 7.472e-9
-0.023, 7.367e-9
-0.024, 7.394e-9
-0.025, 7.312e-9
-0.026, 7.280e-9
-0.027, 7.275e-9
-0.028, 7.178e-9
-0.029, 7.207e-9
-0.030, 7.126e-9
-0.031, 7.099e-9
-0.032, 7.095e-9
-0.033, 7.000e-9
-0.034, 7.035e-9
-0.035, 6.952e-9
-0.036, 6.936e-9
-0.037, 6.934e-9
-0.038, 6.845e-9
-0.039, 6.884e-9
-0.040, 6.807e-9
-0.041, 6.792e-9
-0.042, 6.790e-9
-0.043, 6.706e-9
-0.044, 6.750e-9
-0.045, 6.675e-9
-0.046, 6.662e-9
-0.047, 6.671e-9
-0.048, 6.583e-9
-0.049, 6.637e-9
-0.050, 6.561e-9
-0.051, 6.555e-9
-0.052, 6.570e-9
-0.053, 6.481e-9
-0.054, 6.536e-9
-0.055, 6.469e-9
-0.056, 6.462e-9
-0.057, 6.477e-9
-0.058, 6.398e-9
-0.059, 6.453e-9
-0.060, 6.392e-9
-0.061, 6.384e-9
-0.062, 6.403e-9
-0.063, 6.331e-9
-0.064, 6.383e-9
-0.065, 6.326e-9
-0.066, 6.322e-9
-0.067, 6.344e-9
-0.068, 6.273e-9
-0.069, 6.331e-9
-0.070, 6.271e-9
-0.071, 6.279e-9
-0.072, 6.299e-9
-0.073, 6.231e-9
-0.074, 6.290e-9
-0.075, 6.238e-9
-0.076, 6.245e-9
-0.077, 6.271e-9
-0.078, 6.207e-9
-0.079, 6.271e-9
-0.080, 6.215e-9
-0.081, 6.231e-9
-0.082, 6.254e-9
-0.083, 6.193e-9
-0.084, 6.265e-9
-0.085, 6.210e-9
-0.086, 6.228e-9
-0.087, 6.258e-9
-0.088, 6.195e-9
-0.089, 6.273e-9
-0.090, 6.221e-9
-0.091, 6.236e-9
-0.092, 6.273e-9
-0.093, 6.211e-9
-0.094, 6.292e-9
-0.095, 6.243e-9
-0.096, 6.262e-9
-0.097, 6.302e-9
-0.098, 6.242e-9
-0.099, 6.323e-9
-0.100, 6.280e-9
-0.101, 6.302e-9
-0.102, 6.343e-9
-0.103, 6.290e-9
-0.104, 6.369e-9
-0.105, 6.333e-9
-0.106, 6.354e-9
-0.107, 6.393e-9
-0.108, 6.348e-9
-0.109, 6.427e-9
-0.110, 6.393e-9
-0.111, 6.422e-9
-0.112, 6.459e-9
-0.113, 6.418e-9
-0.114, 6.499e-9
-0.115, 6.465e-9
-0.116, 6.499e-9
-0.117, 6.538e-9
-0.118, 6.494e-9
-0.119, 6.586e-9
-0.120, 6.547e-9
-0.121, 6.587e-9
-0.122, 6.629e-9
-0.123, 6.591e-9
-0.124, 6.685e-9
-0.125, 6.648e-9
-0.126, 6.689e-9
-0.127, 6.735e-9
-0.128, 6.700e-9
-0.129, 6.797e-9
-0.130, 6.762e-9
-0.131, 6.803e-9
-0.132, 6.856e-9
-0.133, 6.816e-9
-0.134, 6.917e-9
-0.135, 6.887e-9
-0.136, 6.929e-9
-0.137, 6.986e-9
-0.138, 6.951e-9
-0.139, 7.048e-9
-0.140, 7.027e-9
-0.141, 7.075e-9
-0.142, 7.127e-9
-0.143, 7.099e-9
-0.144, 7.198e-9
-0.145, 7.176e-9
-0.146, 7.223e-9
-0.147, 7.280e-9
-0.148, 7.254e-9
-0.149, 7.354e-9
-0.150, 7.335e-9
-0.151, 7.388e-9
-0.152, 7.444e-9
-0.153, 7.426e-9
-0.154, 7.531e-9
-0.155, 7.511e-9
-0.156, 7.570e-9
-0.157, 7.629e-9
-0.158, 7.611e-9
-0.159, 7.717e-9
-0.160, 7.701e-9
-0.161, 7.763e-9
-0.162, 7.821e-9
-0.163, 7.804e-9
-0.164, 7.920e-9
-0.165, 7.901e-9
-0.166, 7.969e-9
-0.167, 8.035e-9
-0.168, 8.014e-9
-0.169, 8.133e-9
-0.170, 8.119e-9
-0.171, 8.187e-9
-0.172, 8.254e-9
-0.173, 8.239e-9
-0.174, 8.357e-9
-0.175, 8.348e-9
-0.176, 8.418e-9
-0.177, 8.494e-9
-0.178, 8.482e-9
-0.179, 8.611e-9
-0.180, 8.606e-9
-0.181, 8.674e-9
-0.182, 8.753e-9
-0.183, 8.746e-9
-0.184, 8.868e-9
-0.185, 8.872e-9
-0.186, 8.946e-9
-0.187, 9.019e-9
-0.188, 9.023e-9
-0.189, 9.145e-9
-0.190, 9.150e-9
-0.191, 9.228e-9
-0.192, 9.309e-9
-0.193, 9.312e-9
-0.194, 9.441e-9
-0.195, 9.445e-9
-0.196, 9.534e-9
-0.197, 9.610e-9
-0.198, 9.618e-9
-0.199, 9.753e-9
