Mar. 16, 2023   09:00:02
Cyclic Voltammetry
File: c:/users/oliverrz/desktop/electrolab/data/2023_03_16\fcmeoh_macros_250_um\electrode6_cv_150mvs_250_um.bin
Data Source:  Experiment
Instrument Model:  CHI760E
Header: CV
Note: 

Init E (V) = -0.2
High E (V) = 0.3
Low E (V) = -0.2
Final E (V) = -0.2
Init P/N = P
Scan Rate (V/s) = 0.15
Segment = 3
Sample Interval (V) = 0.001
Quiet Time (sec) = 2
Sensitivity (A/V) = 1e-7

Results:

Channel 1:
Segment 1:
Ep = 0.070V
ip = -2.130e-8A
Ah = -8.726e-9C

Segment 2:
Ep = 0.009V
ip = 2.023e-8A
Ah = 8.304e-9C

Segment 3:

Potential/V, Current/A

-0.200, 2.539e-9
-0.199, 2.422e-9
-0.198, 2.215e-9
-0.197, 2.215e-9
-0.196, 2.279e-9
-0.195, 2.064e-9
-0.194, 2.258e-9
-0.193, 2.073e-9
-0.192, 2.097e-9
-0.191, 2.166e-9
-0.190, 1.948e-9
-0.189, 2.158e-9
-0.188, 1.974e-9
-0.187, 1.999e-9
-0.186, 2.084e-9
-0.185, 1.852e-9
-0.184, 2.070e-9
-0.183, 1.906e-9
-0.182, 1.899e-9
-0.181, 2.007e-9
-0.180, 1.784e-9
-0.179, 1.975e-9
-0.178, 1.827e-9
-0.177, 1.835e-9
-0.176, 1.920e-9
-0.175, 1.726e-9
-0.174, 1.915e-9
-0.173, 1.745e-9
-0.172, 1.779e-9
-0.171, 1.854e-9
-0.170, 1.649e-9
-0.169, 1.853e-9
-0.168, 1.687e-9
-0.167, 1.704e-9
-0.166, 1.792e-9
-0.165, 1.592e-9
-0.164, 1.786e-9
-0.163, 1.634e-9
-0.162, 1.648e-9
-0.161, 1.723e-9
-0.160, 1.538e-9
-0.159, 1.733e-9
-0.158, 1.560e-9
-0.157, 1.607e-9
-0.156, 1.671e-9
-0.155, 1.463e-9
-0.154, 1.690e-9
-0.153, 1.502e-9
-0.152, 1.538e-9
-0.151, 1.631e-9
-0.150, 1.406e-9
-0.149, 1.627e-9
-0.148, 1.465e-9
-0.147, 1.479e-9
-0.146, 1.571e-9
-0.145, 1.362e-9
-0.144, 1.571e-9
-0.143, 1.408e-9
-0.142, 1.431e-9
-0.141, 1.511e-9
-0.140, 1.310e-9
-0.139, 1.521e-9
-0.138, 1.354e-9
-0.137, 1.374e-9
-0.136, 1.469e-9
-0.135, 1.264e-9
-0.134, 1.458e-9
-0.133, 1.309e-9
-0.132, 1.327e-9
-0.131, 1.413e-9
-0.130, 1.214e-9
-0.129, 1.406e-9
-0.128, 1.249e-9
-0.127, 1.280e-9
-0.126, 1.349e-9
-0.125, 1.162e-9
-0.124, 1.364e-9
-0.123, 1.192e-9
-0.122, 1.227e-9
-0.121, 1.299e-9
-0.120, 1.105e-9
-0.119, 1.311e-9
-0.118, 1.138e-9
-0.117, 1.174e-9
-0.116, 1.242e-9
-0.115, 1.045e-9
-0.114, 1.252e-9
-0.113, 1.074e-9
-0.112, 1.116e-9
-0.111, 1.190e-9
-0.110, 9.773e-10
-0.109, 1.198e-9
-0.108, 1.007e-9
-0.107, 1.051e-9
-0.106, 1.132e-9
-0.105, 9.086e-10
-0.104, 1.131e-9
-0.103, 9.500e-10
-0.102, 9.668e-10
-0.101, 1.061e-9
-0.100, 8.431e-10
-0.099, 1.044e-9
-0.098, 8.872e-10
-0.097, 8.960e-10
-0.096, 9.756e-10
-0.095, 7.798e-10
-0.094, 9.654e-10
-0.093, 7.951e-10
-0.092, 8.276e-10
-0.091, 8.936e-10
-0.090, 6.809e-10
-0.089, 8.873e-10
-0.088, 7.030e-10
-0.087, 7.255e-10
-0.086, 8.024e-10
-0.085, 5.844e-10
-0.084, 7.792e-10
-0.083, 6.095e-10
-0.082, 6.237e-10
-0.081, 6.775e-10
-0.080, 4.872e-10
-0.079, 6.685e-10
-0.078, 4.743e-10
-0.077, 5.078e-10
-0.076, 5.574e-10
-0.075, 3.452e-10
-0.074, 5.512e-10
-0.073, 3.401e-10
-0.072, 3.688e-10
-0.071, 4.336e-10
-0.070, 1.912e-10
-0.069, 3.967e-10
-0.068, 2.016e-10
-0.067, 2.097e-10
-0.066, 2.656e-10
-0.065, 4.103e-11
-0.064, 2.197e-10
-0.063, 2.965e-11
-0.062, 2.669e-11
-0.061, 8.094e-11
-0.060, -1.549e-10
-0.059, 2.655e-11
-0.058, -1.746e-10
-0.057, -1.909e-10
-0.056, -1.293e-10
-0.055, -3.761e-10
-0.054, -2.133e-10
-0.053, -4.135e-10
-0.052, -4.310e-10
-0.051, -4.001e-10
-0.050, -6.325e-10
-0.049, -4.837e-10
-0.048, -6.981e-10
-0.047, -7.126e-10
-0.046, -7.025e-10
-0.045, -9.448e-10
-0.044, -7.936e-10
-0.043, -1.030e-9
-0.042, -1.049e-9
-0.041, -1.049e-9
-0.040, -1.300e-9
-0.039, -1.171e-9
-0.038, -1.413e-9
-0.037, -1.453e-9
-0.036, -1.449e-9
-0.035, -1.730e-9
-0.034, -1.608e-9
-0.033, -1.869e-9
-0.032, -1.909e-9
-0.031, -1.939e-9
-0.030, -2.229e-9
-0.029, -2.110e-9
-0.028, -2.400e-9
-0.027, -2.446e-9
-0.026, -2.502e-9
-0.025, -2.817e-9
-0.024, -2.703e-9
-0.023, -3.004e-9
-0.022, -3.106e-9
-0.021, -3.138e-9
-0.020, -3.474e-9
-0.019, -3.412e-9
-0.018, -3.696e-9
-0.017, -3.821e-9
-0.016, -3.893e-9
-0.015, -4.223e-9
-0.014, -4.203e-9
-0.013, -4.534e-9
-0.012, -4.648e-9
-0.011, -4.761e-9
-0.010, -5.119e-9
-0.009, -5.099e-9
-0.008, -5.446e-9
-0.007, -5.602e-9
-0.006, -5.732e-9
-0.005, -6.119e-9
-0.004, -6.122e-9
-0.003, -6.494e-9
-0.002, -6.667e-9
-0.001, -6.835e-9
-0.000, -7.333e-9
0.001, -7.300e-9
0.002, -7.712e-9
0.003, -7.876e-9
0.004, -8.071e-9
0.005, -8.484e-9
0.006, -8.528e-9
0.007, -8.978e-9
0.008, -9.174e-9
0.009, -9.358e-9
0.010, -9.826e-9
0.011, -9.881e-9
0.012, -1.033e-8
0.013, -1.056e-8
0.014, -1.077e-8
0.015, -1.124e-8
0.016, -1.130e-8
0.017, -1.177e-8
0.018, -1.202e-8
0.019, -1.222e-8
0.020, -1.270e-8
0.021, -1.278e-8
0.022, -1.323e-8
0.023, -1.350e-8
0.024, -1.369e-8
0.025, -1.419e-8
0.026, -1.429e-8
0.027, -1.471e-8
0.028, -1.498e-8
0.029, -1.517e-8
0.030, -1.564e-8
0.031, -1.575e-8
0.032, -1.613e-8
0.033, -1.638e-8
0.034, -1.661e-8
0.035, -1.700e-8
0.036, -1.710e-8
0.037, -1.750e-8
0.038, -1.768e-8
0.039, -1.791e-8
0.040, -1.829e-8
0.041, -1.832e-8
0.042, -1.873e-8
0.043, -1.887e-8
0.044, -1.902e-8
0.045, -1.939e-8
0.046, -1.940e-8
0.047, -1.974e-8
0.048, -1.985e-8
0.049, -1.998e-8
0.050, -2.031e-8
0.051, -2.028e-8
0.052, -2.059e-8
0.053, -2.067e-8
0.054, -2.073e-8
0.055, -2.106e-8
0.056, -2.092e-8
0.057, -2.121e-8
0.058, -2.126e-8
0.059, -2.128e-8
0.060, -2.156e-8
0.061, -2.141e-8
0.062, -2.162e-8
0.063, -2.166e-8
0.064, -2.164e-8
0.065, -2.184e-8
0.066, -2.169e-8
0.067, -2.187e-8
0.068, -2.184e-8
0.069, -2.179e-8
0.070, -2.196e-8
0.071, -2.178e-8
0.072, -2.191e-8
0.073, -2.185e-8
0.074, -2.178e-8
0.075, -2.193e-8
0.076, -2.170e-8
0.077, -2.183e-8
0.078, -2.175e-8
0.079, -2.164e-8
0.080, -2.175e-8
0.081, -2.150e-8
0.082, -2.161e-8
0.083, -2.148e-8
0.084, -2.138e-8
0.085, -2.148e-8
0.086, -2.119e-8
0.087, -2.132e-8
0.088, -2.115e-8
0.089, -2.103e-8
0.090, -2.114e-8
0.091, -2.083e-8
0.092, -2.093e-8
0.093, -2.079e-8
0.094, -2.062e-8
0.095, -2.072e-8
0.096, -2.041e-8
0.097, -2.048e-8
0.098, -2.036e-8
0.099, -2.019e-8
0.100, -2.027e-8
0.101, -1.998e-8
0.102, -2.006e-8
0.103, -1.990e-8
0.104, -1.974e-8
0.105, -1.982e-8
0.106, -1.952e-8
0.107, -1.959e-8
0.108, -1.945e-8
0.109, -1.927e-8
0.110, -1.936e-8
0.111, -1.907e-8
0.112, -1.914e-8
0.113, -1.899e-8
0.114, -1.884e-8
0.115, -1.892e-8
0.116, -1.862e-8
0.117, -1.871e-8
0.118, -1.855e-8
0.119, -1.841e-8
0.120, -1.848e-8
0.121, -1.818e-8
0.122, -1.828e-8
0.123, -1.812e-8
0.124, -1.798e-8
0.125, -1.808e-8
0.126, -1.778e-8
0.127, -1.787e-8
0.128, -1.773e-8
0.129, -1.758e-8
0.130, -1.769e-8
0.131, -1.739e-8
0.132, -1.750e-8
0.133, -1.735e-8
0.134, -1.721e-8
0.135, -1.732e-8
0.136, -1.702e-8
0.137, -1.714e-8
0.138, -1.700e-8
0.139, -1.686e-8
0.140, -1.698e-8
0.141, -1.669e-8
0.142, -1.679e-8
0.143, -1.669e-8
0.144, -1.654e-8
0.145, -1.666e-8
0.146, -1.640e-8
0.147, -1.648e-8
0.148, -1.637e-8
0.149, -1.626e-8
0.150, -1.636e-8
0.151, -1.610e-8
0.152, -1.621e-8
0.153, -1.608e-8
0.154, -1.599e-8
0.155, -1.610e-8
0.156, -1.582e-8
0.157, -1.596e-8
0.158, -1.584e-8
0.159, -1.572e-8
0.160, -1.585e-8
0.161, -1.559e-8
0.162, -1.571e-8
0.163, -1.560e-8
0.164, -1.549e-8
0.165, -1.562e-8
0.166, -1.537e-8
0.167, -1.550e-8
0.168, -1.538e-8
0.169, -1.528e-8
0.170, -1.542e-8
0.171, -1.514e-8
0.172, -1.530e-8
0.173, -1.518e-8
0.174, -1.507e-8
0.175, -1.523e-8
0.176, -1.496e-8
0.177, -1.510e-8
0.178, -1.501e-8
0.179, -1.490e-8
0.180, -1.505e-8
0.181, -1.480e-8
0.182, -1.493e-8
0.183, -1.485e-8
0.184, -1.474e-8
0.185, -1.489e-8
0.186, -1.464e-8
0.187, -1.478e-8
0.188, -1.469e-8
0.189, -1.459e-8
0.190, -1.474e-8
0.191, -1.450e-8
0.192, -1.464e-8
0.193, -1.455e-8
0.194, -1.447e-8
0.195, -1.460e-8
0.196, -1.437e-8
0.197, -1.452e-8
0.198, -1.442e-8
0.199, -1.435e-8
0.200, -1.448e-8
0.201, -1.424e-8
0.202, -1.441e-8
0.203, -1.431e-8
0.204, -1.422e-8
0.205, -1.439e-8
0.206, -1.413e-8
0.207, -1.431e-8
0.208, -1.421e-8
0.209, -1.412e-8
0.210, -1.429e-8
0.211, -1.404e-8
0.212, -1.420e-8
0.213, -1.411e-8
0.214, -1.404e-8
0.215, -1.420e-8
0.216, -1.395e-8
0.217, -1.413e-8
0.218, -1.403e-8
0.219, -1.395e-8
0.220, -1.413e-8
0.221, -1.388e-8
0.222, -1.404e-8
0.223, -1.398e-8
0.224, -1.387e-8
0.225, -1.404e-8
0.226, -1.383e-8
0.227, -1.397e-8
0.228, -1.390e-8
0.229, -1.383e-8
0.230, -1.397e-8
0.231, -1.376e-8
0.232, -1.392e-8
0.233, -1.383e-8
0.234, -1.377e-8
0.235, -1.393e-8
0.236, -1.369e-8
0.237, -1.387e-8
0.238, -1.379e-8
0.239, -1.372e-8
0.240, -1.388e-8
0.241, -1.366e-8
0.242, -1.382e-8
0.243, -1.375e-8
0.244, -1.368e-8
0.245, -1.385e-8
0.246, -1.362e-8
0.247, -1.380e-8
0.248, -1.370e-8
0.249, -1.365e-8
0.250, -1.382e-8
0.251, -1.358e-8
0.252, -1.377e-8
0.253, -1.369e-8
0.254, -1.361e-8
0.255, -1.380e-8
0.256, -1.356e-8
0.257, -1.374e-8
0.258, -1.367e-8
0.259, -1.360e-8
0.260, -1.378e-8
0.261, -1.355e-8
0.262, -1.373e-8
0.263, -1.367e-8
0.264, -1.359e-8
0.265, -1.377e-8
0.266, -1.355e-8
0.267, -1.373e-8
0.268, -1.366e-8
0.269, -1.360e-8
0.270, -1.377e-8
0.271, -1.356e-8
0.272, -1.372e-8
0.273, -1.365e-8
0.274, -1.361e-8
0.275, -1.377e-8
0.276, -1.356e-8
0.277, -1.375e-8
0.278, -1.366e-8
0.279, -1.363e-8
0.280, -1.379e-8
0.281, -1.358e-8
0.282, -1.378e-8
0.283, -1.369e-8
0.284, -1.364e-8
0.285, -1.383e-8
0.286, -1.361e-8
0.287, -1.380e-8
0.288, -1.373e-8
0.289, -1.368e-8
0.290, -1.387e-8
0.291, -1.365e-8
0.292, -1.383e-8
0.293, -1.377e-8
0.294, -1.373e-8
0.295, -1.391e-8
0.296, -1.369e-8
0.297, -1.390e-8
0.298, -1.383e-8
0.299, -1.378e-8
0.300, -1.236e-8
0.299, -1.115e-8
0.298, -1.108e-8
0.297, -1.082e-8
0.296, -1.061e-8
0.295, -1.065e-8
0.294, -1.032e-8
0.293, -1.039e-8
0.292, -1.021e-8
0.291, -1.008e-8
0.290, -1.015e-8
0.289, -9.855e-9
0.288, -9.971e-9
0.287, -9.804e-9
0.286, -9.702e-9
0.285, -9.812e-9
0.284, -9.513e-9
0.283, -9.658e-9
0.282, -9.514e-9
0.281, -9.398e-9
0.280, -9.531e-9
0.279, -9.259e-9
0.278, -9.386e-9
0.277, -9.272e-9
0.276, -9.162e-9
0.275, -9.295e-9
0.274, -9.048e-9
0.273, -9.177e-9
0.272, -9.061e-9
0.271, -8.978e-9
0.270, -9.105e-9
0.269, -8.847e-9
0.268, -8.986e-9
0.267, -8.888e-9
0.266, -8.797e-9
0.265, -8.924e-9
0.264, -8.681e-9
0.263, -8.833e-9
0.262, -8.720e-9
0.261, -8.645e-9
0.260, -8.771e-9
0.259, -8.538e-9
0.258, -8.688e-9
0.257, -8.572e-9
0.256, -8.501e-9
0.255, -8.644e-9
0.254, -8.393e-9
0.253, -8.556e-9
0.252, -8.440e-9
0.251, -8.376e-9
0.250, -8.517e-9
0.249, -8.273e-9
0.248, -8.434e-9
0.247, -8.330e-9
0.246, -8.256e-9
0.245, -8.397e-9
0.244, -8.158e-9
0.243, -8.318e-9
0.242, -8.220e-9
0.241, -8.141e-9
0.240, -8.298e-9
0.239, -8.046e-9
0.238, -8.217e-9
0.237, -8.117e-9
0.236, -8.028e-9
0.235, -8.195e-9
0.234, -7.944e-9
0.233, -8.105e-9
0.232, -8.022e-9
0.231, -7.930e-9
0.230, -8.082e-9
0.229, -7.861e-9
0.228, -7.997e-9
0.227, -7.918e-9
0.226, -7.848e-9
0.225, -7.980e-9
0.224, -7.753e-9
0.223, -7.922e-9
0.222, -7.806e-9
0.221, -7.757e-9
0.220, -7.897e-9
0.219, -7.656e-9
0.218, -7.829e-9
0.217, -7.724e-9
0.216, -7.657e-9
0.215, -7.809e-9
0.214, -7.568e-9
0.213, -7.729e-9
0.212, -7.629e-9
0.211, -7.576e-9
0.210, -7.712e-9
0.209, -7.477e-9
0.208, -7.651e-9
0.207, -7.534e-9
0.206, -7.482e-9
0.205, -7.621e-9
0.204, -7.372e-9
0.203, -7.562e-9
0.202, -7.453e-9
0.201, -7.374e-9
0.200, -7.539e-9
0.199, -7.298e-9
0.198, -7.454e-9
0.197, -7.361e-9
0.196, -7.288e-9
0.195, -7.444e-9
0.194, -7.201e-9
0.193, -7.363e-9
0.192, -7.262e-9
0.191, -7.197e-9
0.190, -7.347e-9
0.189, -7.102e-9
0.188, -7.270e-9
0.187, -7.166e-9
0.186, -7.102e-9
0.185, -7.240e-9
0.184, -7.011e-9
0.183, -7.171e-9
0.182, -7.060e-9
0.181, -7.004e-9
0.180, -7.131e-9
0.179, -6.905e-9
0.178, -7.069e-9
0.177, -6.947e-9
0.176, -6.895e-9
0.175, -7.037e-9
0.174, -6.786e-9
0.173, -6.957e-9
0.172, -6.840e-9
0.171, -6.779e-9
0.170, -6.924e-9
0.169, -6.661e-9
0.168, -6.837e-9
0.167, -6.718e-9
0.166, -6.648e-9
0.165, -6.788e-9
0.164, -6.537e-9
0.163, -6.709e-9
0.162, -6.582e-9
0.161, -6.516e-9
0.160, -6.650e-9
0.159, -6.404e-9
0.158, -6.562e-9
0.157, -6.438e-9
0.156, -6.358e-9
0.155, -6.505e-9
0.154, -6.241e-9
0.153, -6.397e-9
0.152, -6.286e-9
0.151, -6.194e-9
0.150, -6.321e-9
0.149, -6.086e-9
0.148, -6.203e-9
0.147, -6.101e-9
0.146, -6.023e-9
0.145, -6.118e-9
0.144, -5.882e-9
0.143, -6.022e-9
0.142, -5.873e-9
0.141, -5.804e-9
0.140, -5.910e-9
0.139, -5.642e-9
0.138, -5.795e-9
0.137, -5.644e-9
0.136, -5.552e-9
0.135, -5.663e-9
0.134, -5.392e-9
0.133, -5.521e-9
0.132, -5.368e-9
0.131, -5.287e-9
0.130, -5.369e-9
0.129, -5.093e-9
0.128, -5.216e-9
0.127, -5.050e-9
0.126, -4.949e-9
0.125, -5.042e-9
0.124, -4.739e-9
0.123, -4.873e-9
0.122, -4.705e-9
0.121, -4.571e-9
0.120, -4.658e-9
0.119, -4.359e-9
0.118, -4.454e-9
0.117, -4.278e-9
0.116, -4.142e-9
0.115, -4.209e-9
0.114, -3.898e-9
0.113, -3.971e-9
0.112, -3.792e-9
0.111, -3.647e-9
0.110, -3.690e-9
0.109, -3.376e-9
0.108, -3.435e-9
0.107, -3.243e-9
0.106, -3.076e-9
0.105, -3.094e-9
0.104, -2.759e-9
0.103, -2.795e-9
0.102, -2.565e-9
0.101, -2.407e-9
0.100, -2.402e-9
0.099, -2.055e-9
0.098, -2.085e-9
0.097, -1.823e-9
0.096, -1.650e-9
0.095, -1.622e-9
0.094, -1.228e-9
0.093, -1.266e-9
0.092, -9.686e-10
0.091, -7.777e-10
0.090, -7.377e-10
0.089, -3.065e-10
0.088, -3.157e-10
0.087, -2.201e-11
0.086, 2.293e-10
0.085, 2.755e-10
0.084, 7.210e-10
0.083, 7.441e-10
0.082, 1.064e-9
0.081, 1.324e-9
0.080, 1.413e-9
0.079, 1.867e-9
0.078, 1.916e-9
0.077, 2.276e-9
0.076, 2.554e-9
0.075, 2.635e-9
0.074, 3.123e-9
0.073, 3.200e-9
0.072, 3.549e-9
0.071, 3.870e-9
0.070, 3.968e-9
0.069, 4.449e-9
0.068, 4.582e-9
0.067, 4.925e-9
0.066, 5.240e-9
0.065, 5.404e-9
0.064, 5.884e-9
0.063, 5.991e-9
0.062, 6.387e-9
0.061, 6.679e-9
0.060, 6.857e-9
0.059, 7.346e-9
0.058, 7.449e-9
0.057, 7.863e-9
0.056, 8.167e-9
0.055, 8.324e-9
0.054, 8.815e-9
0.053, 8.935e-9
0.052, 9.333e-9
0.051, 9.631e-9
0.050, 9.769e-9
0.049, 1.027e-8
0.048, 1.034e-8
0.047, 1.073e-8
0.046, 1.102e-8
0.045, 1.112e-8
0.044, 1.162e-8
0.043, 1.167e-8
0.042, 1.201e-8
0.041, 1.230e-8
0.040, 1.238e-8
0.039, 1.283e-8
0.038, 1.288e-8
0.037, 1.317e-8
0.036, 1.343e-8
0.035, 1.347e-8
0.034, 1.388e-8
0.033, 1.391e-8
0.032, 1.416e-8
0.031, 1.437e-8
0.030, 1.440e-8
0.029, 1.474e-8
0.028, 1.474e-8
0.027, 1.496e-8
0.026, 1.513e-8
0.025, 1.511e-8
0.024, 1.545e-8
0.023, 1.536e-8
0.022, 1.555e-8
0.021, 1.567e-8
0.020, 1.564e-8
0.019, 1.588e-8
0.018, 1.579e-8
0.017, 1.595e-8
0.016, 1.600e-8
0.015, 1.595e-8
0.014, 1.618e-8
0.013, 1.602e-8
0.012, 1.618e-8
0.011, 1.618e-8
0.010, 1.605e-8
0.009, 1.630e-8
0.008, 1.608e-8
0.007, 1.618e-8
0.006, 1.620e-8
0.005, 1.602e-8
0.004, 1.623e-8
0.003, 1.600e-8
0.002, 1.606e-8
0.001, 1.608e-8
0.000, 1.598e-8
-0.001, 1.607e-8
-0.002, 1.583e-8
-0.003, 1.587e-8
-0.004, 1.584e-8
-0.005, 1.563e-8
-0.006, 1.578e-8
-0.007, 1.553e-8
-0.008, 1.555e-8
-0.009, 1.552e-8
-0.010, 1.528e-8
-0.011, 1.542e-8
-0.012, 1.518e-8
-0.013, 1.518e-8
-0.014, 1.512e-8
-0.015, 1.491e-8
-0.016, 1.502e-8
-0.017, 1.476e-8
-0.018, 1.478e-8
-0.019, 1.470e-8
-0.020, 1.449e-8
-0.021, 1.460e-8
-0.022, 1.432e-8
-0.023, 1.435e-8
-0.024, 1.427e-8
-0.025, 1.405e-8
-0.026, 1.417e-8
-0.027, 1.389e-8
-0.028, 1.391e-8
-0.029, 1.383e-8
-0.030, 1.360e-8
-0.031, 1.373e-8
-0.032, 1.344e-8
-0.033, 1.346e-8
-0.034, 1.340e-8
-0.035, 1.317e-8
-0.036, 1.331e-8
-0.037, 1.300e-8
-0.038, 1.304e-8
-0.039, 1.299e-8
-0.040, 1.273e-8
-0.041, 1.289e-8
-0.042, 1.261e-8
-0.043, 1.262e-8
-0.044, 1.259e-8
-0.045, 1.234e-8
-0.046, 1.247e-8
-0.047, 1.223e-8
-0.048, 1.223e-8
-0.049, 1.219e-8
-0.050, 1.198e-8
-0.051, 1.210e-8
-0.052, 1.185e-8
-0.053, 1.187e-8
-0.054, 1.183e-8
-0.055, 1.161e-8
-0.056, 1.176e-8
-0.057, 1.149e-8
-0.058, 1.153e-8
-0.059, 1.150e-8
-0.060, 1.128e-8
-0.061, 1.142e-8
-0.062, 1.117e-8
-0.063, 1.121e-8
-0.064, 1.117e-8
-0.065, 1.097e-8
-0.066, 1.112e-8
-0.067, 1.086e-8
-0.068, 1.092e-8
-0.069, 1.087e-8
-0.070, 1.067e-8
-0.071, 1.084e-8
-0.072, 1.058e-8
-0.073, 1.064e-8
-0.074, 1.061e-8
-0.075, 1.040e-8
-0.076, 1.058e-8
-0.077, 1.033e-8
-0.078, 1.038e-8
-0.079, 1.036e-8
-0.080, 1.016e-8
-0.081, 1.034e-8
-0.082, 1.009e-8
-0.083, 1.014e-8
-0.084, 1.014e-8
-0.085, 9.929e-9
-0.086, 1.011e-8
-0.087, 9.870e-9
-0.088, 9.925e-9
-0.089, 9.917e-9
-0.090, 9.725e-9
-0.091, 9.898e-9
-0.092, 9.675e-9
-0.093, 9.720e-9
-0.094, 9.716e-9
-0.095, 9.540e-9
-0.096, 9.693e-9
-0.097, 9.482e-9
-0.098, 9.549e-9
-0.099, 9.529e-9
-0.100, 9.364e-9
-0.101, 9.531e-9
-0.102, 9.305e-9
-0.103, 9.388e-9
-0.104, 9.368e-9
-0.105, 9.183e-9
-0.106, 9.380e-9
-0.107, 9.143e-9
-0.108, 9.217e-9
-0.109, 9.213e-9
-0.110, 9.032e-9
-0.111, 9.220e-9
-0.112, 9.004e-9
-0.113, 9.070e-9
-0.114, 9.066e-9
-0.115, 8.904e-9
-0.116, 9.090e-9
-0.117, 8.854e-9
-0.118, 8.942e-9
-0.119, 8.938e-9
-0.120, 8.759e-9
-0.121, 8.963e-9
-0.122, 8.734e-9
-0.123, 8.809e-9
-0.124, 8.824e-9
-0.125, 8.637e-9
-0.126, 8.832e-9
-0.127, 8.628e-9
-0.128, 8.702e-9
-0.129, 8.702e-9
-0.130, 8.539e-9
-0.131, 8.721e-9
-0.132, 8.511e-9
-0.133, 8.594e-9
-0.134, 8.592e-9
-0.135, 8.428e-9
-0.136, 8.626e-9
-0.137, 8.397e-9
-0.138, 8.499e-9
-0.139, 8.495e-9
-0.140, 8.332e-9
-0.141, 8.532e-9
-0.142, 8.308e-9
-0.143, 8.408e-9
-0.144, 8.400e-9
-0.145, 8.246e-9
-0.146, 8.443e-9
-0.147, 8.218e-9
-0.148, 8.332e-9
-0.149, 8.312e-9
-0.150, 8.159e-9
-0.151, 8.369e-9
-0.152, 8.140e-9
-0.153, 8.249e-9
-0.154, 8.255e-9
-0.155, 8.082e-9
-0.156, 8.295e-9
-0.157, 8.076e-9
-0.158, 8.164e-9
-0.159, 8.194e-9
-0.160, 8.018e-9
-0.161, 8.212e-9
-0.162, 8.024e-9
-0.163, 8.102e-9
-0.164, 8.120e-9
-0.165, 7.963e-9
-0.166, 8.159e-9
-0.167, 7.954e-9
-0.168, 8.055e-9
-0.169, 8.056e-9
-0.170, 7.897e-9
-0.171, 8.111e-9
-0.172, 7.900e-9
-0.173, 7.987e-9
-0.174, 8.016e-9
-0.175, 7.852e-9
-0.176, 8.047e-9
-0.177, 7.855e-9
-0.178, 7.943e-9
-0.179, 7.955e-9
-0.180, 7.819e-9
-0.181, 7.998e-9
-0.182, 7.800e-9
-0.183, 7.917e-9
-0.184, 7.906e-9
-0.185, 7.762e-9
-0.186, 7.974e-9
-0.187, 7.758e-9
-0.188, 7.873e-9
-0.189, 7.876e-9
-0.190, 7.720e-9
-0.191, 7.939e-9
-0.192, 7.735e-9
-0.193, 7.831e-9
-0.194, 7.851e-9
-0.195, 7.692e-9
-0.196, 7.907e-9
-0.197, 7.698e-9
-0.198, 7.803e-9
-0.199, 7.824e-9
