Mar. 16, 2023   08:57:45
Cyclic Voltammetry
File: c:/users/oliverrz/desktop/electrolab/data/2023_03_16\fcmeoh_macros_250_um\electrode4_cv_250mvs_250_um.bin
Data Source:  Experiment
Instrument Model:  CHI760E
Header: CV
Note: 

Init E (V) = -0.2
High E (V) = 0.3
Low E (V) = -0.2
Final E (V) = -0.2
Init P/N = P
Scan Rate (V/s) = 0.25
Segment = 3
Sample Interval (V) = 0.001
Quiet Time (sec) = 2
Sensitivity (A/V) = 1e-7

Results:

Channel 1:
Segment 1:
Ep = 0.087V
ip = -2.744e-8A
Ah = -6.562e-9C

Segment 2:
Ep = 0.028V
ip = 2.526e-8A
Ah = 6.191e-9C

Segment 3:

Potential/V, Current/A

-0.200, 2.683e-9
-0.199, 1.914e-9
-0.198, 1.914e-9
-0.197, 1.699e-9
-0.196, 1.514e-9
-0.195, 1.699e-9
-0.194, 1.760e-9
-0.193, 1.576e-9
-0.192, 1.391e-9
-0.191, 1.514e-9
-0.190, 1.668e-9
-0.189, 1.484e-9
-0.188, 1.330e-9
-0.187, 1.391e-9
-0.186, 1.576e-9
-0.185, 1.453e-9
-0.184, 1.207e-9
-0.183, 1.268e-9
-0.182, 1.453e-9
-0.181, 1.422e-9
-0.180, 1.176e-9
-0.179, 1.145e-9
-0.178, 1.391e-9
-0.177, 1.330e-9
-0.176, 1.176e-9
-0.175, 1.084e-9
-0.174, 1.237e-9
-0.173, 1.330e-9
-0.172, 1.114e-9
-0.171, 9.913e-10
-0.170, 1.176e-9
-0.169, 1.237e-9
-0.168, 1.114e-9
-0.167, 9.298e-10
-0.166, 1.053e-9
-0.165, 1.207e-9
-0.164, 1.053e-9
-0.163, 8.990e-10
-0.162, 9.605e-10
-0.161, 1.145e-9
-0.160, 1.053e-9
-0.159, 8.067e-10
-0.158, 8.990e-10
-0.157, 1.084e-9
-0.156, 1.022e-9
-0.155, 8.375e-10
-0.154, 7.759e-10
-0.153, 1.022e-9
-0.152, 1.022e-9
-0.151, 7.759e-10
-0.150, 7.452e-10
-0.149, 9.298e-10
-0.148, 9.605e-10
-0.147, 8.067e-10
-0.146, 6.529e-10
-0.145, 8.375e-10
-0.144, 9.605e-10
-0.143, 7.759e-10
-0.142, 6.221e-10
-0.141, 7.759e-10
-0.140, 8.990e-10
-0.139, 7.759e-10
-0.138, 5.913e-10
-0.137, 6.529e-10
-0.136, 8.682e-10
-0.135, 7.452e-10
-0.134, 5.606e-10
-0.133, 5.913e-10
-0.132, 8.067e-10
-0.131, 7.452e-10
-0.130, 5.606e-10
-0.129, 5.298e-10
-0.128, 7.452e-10
-0.127, 7.452e-10
-0.126, 4.991e-10
-0.125, 4.683e-10
-0.124, 6.529e-10
-0.123, 7.144e-10
-0.122, 5.298e-10
-0.121, 3.760e-10
-0.120, 5.913e-10
-0.119, 6.836e-10
-0.118, 5.298e-10
-0.117, 3.760e-10
-0.116, 4.683e-10
-0.115, 6.529e-10
-0.114, 4.991e-10
-0.113, 3.145e-10
-0.112, 4.068e-10
-0.111, 5.913e-10
-0.110, 4.991e-10
-0.109, 3.145e-10
-0.108, 3.145e-10
-0.107, 5.298e-10
-0.106, 4.683e-10
-0.105, 2.529e-10
-0.104, 2.529e-10
-0.103, 4.683e-10
-0.102, 4.683e-10
-0.101, 2.529e-10
-0.100, 1.914e-10
-0.099, 3.760e-10
-0.098, 4.375e-10
-0.097, 2.529e-10
-0.096, 1.299e-10
-0.095, 2.837e-10
-0.094, 3.760e-10
-0.093, 2.222e-10
-0.092, 6.834e-11
-0.091, 1.914e-10
-0.090, 3.760e-10
-0.089, 1.914e-10
-0.088, 3.758e-11
-0.087, 9.911e-11
-0.086, 2.529e-10
-0.085, 2.222e-10
-0.084, -5.472e-11
-0.083, 6.813e-12
-0.082, 2.222e-10
-0.081, 1.299e-10
-0.080, -5.472e-11
-0.079, -8.548e-11
-0.078, 1.299e-10
-0.077, 9.911e-11
-0.076, -1.162e-10
-0.075, -1.470e-10
-0.074, 3.758e-11
-0.073, 3.758e-11
-0.072, -1.470e-10
-0.071, -3.008e-10
-0.070, -8.548e-11
-0.069, -2.395e-11
-0.068, -2.085e-10
-0.067, -3.316e-10
-0.066, -2.393e-10
-0.065, -8.548e-11
-0.064, -2.393e-10
-0.063, -4.547e-10
-0.062, -3.624e-10
-0.061, -2.085e-10
-0.060, -3.316e-10
-0.059, -5.470e-10
-0.058, -5.162e-10
-0.057, -3.624e-10
-0.056, -4.239e-10
-0.055, -6.393e-10
-0.054, -6.700e-10
-0.053, -4.854e-10
-0.052, -5.470e-10
-0.051, -7.931e-10
-0.050, -8.546e-10
-0.049, -7.008e-10
-0.048, -6.393e-10
-0.047, -8.854e-10
-0.046, -1.039e-9
-0.045, -8.546e-10
-0.044, -8.238e-10
-0.043, -1.008e-9
-0.042, -1.193e-9
-0.041, -1.131e-9
-0.040, -1.008e-9
-0.039, -1.193e-9
-0.038, -1.439e-9
-0.037, -1.378e-9
-0.036, -1.285e-9
-0.035, -1.378e-9
-0.034, -1.655e-9
-0.033, -1.685e-9
-0.032, -1.501e-9
-0.031, -1.655e-9
-0.030, -1.901e-9
-0.029, -1.962e-9
-0.028, -1.839e-9
-0.027, -1.901e-9
-0.026, -2.208e-9
-0.025, -2.331e-9
-0.024, -2.178e-9
-0.023, -2.239e-9
-0.022, -2.516e-9
-0.021, -2.701e-9
-0.020, -2.608e-9
-0.019, -2.577e-9
-0.018, -2.885e-9
-0.017, -3.131e-9
-0.016, -3.100e-9
-0.015, -3.070e-9
-0.014, -3.316e-9
-0.013, -3.593e-9
-0.012, -3.623e-9
-0.011, -3.562e-9
-0.010, -3.777e-9
-0.009, -4.116e-9
-0.008, -4.208e-9
-0.007, -4.146e-9
-0.006, -4.393e-9
-0.005, -4.700e-9
-0.004, -4.885e-9
-0.003, -4.823e-9
-0.002, -4.977e-9
-0.001, -5.377e-9
-0.000, -5.715e-9
0.001, -5.592e-9
0.002, -5.777e-9
0.003, -6.115e-9
0.004, -6.454e-9
0.005, -6.454e-9
0.006, -6.577e-9
0.007, -7.008e-9
0.008, -7.254e-9
0.009, -7.438e-9
0.010, -7.500e-9
0.011, -7.869e-9
0.012, -8.331e-9
0.013, -8.454e-9
0.014, -8.546e-9
0.015, -8.915e-9
0.016, -9.346e-9
0.017, -9.623e-9
0.018, -9.653e-9
0.019, -1.002e-8
0.020, -1.051e-8
0.021, -1.079e-8
0.022, -1.095e-8
0.023, -1.125e-8
0.024, -1.175e-8
0.025, -1.215e-8
0.026, -1.230e-8
0.027, -1.258e-8
0.028, -1.307e-8
0.029, -1.350e-8
0.030, -1.368e-8
0.031, -1.396e-8
0.032, -1.445e-8
0.033, -1.495e-8
0.034, -1.519e-8
0.035, -1.541e-8
0.036, -1.593e-8
0.037, -1.645e-8
0.038, -1.673e-8
0.039, -1.694e-8
0.040, -1.738e-8
0.041, -1.796e-8
0.042, -1.827e-8
0.043, -1.842e-8
0.044, -1.891e-8
0.045, -1.941e-8
0.046, -1.981e-8
0.047, -1.999e-8
0.048, -2.033e-8
0.049, -2.091e-8
0.050, -2.131e-8
0.051, -2.144e-8
0.052, -2.181e-8
0.053, -2.227e-8
0.054, -2.270e-8
0.055, -2.288e-8
0.056, -2.310e-8
0.057, -2.362e-8
0.058, -2.402e-8
0.059, -2.417e-8
0.060, -2.439e-8
0.061, -2.476e-8
0.062, -2.522e-8
0.063, -2.541e-8
0.064, -2.547e-8
0.065, -2.590e-8
0.066, -2.624e-8
0.067, -2.639e-8
0.068, -2.645e-8
0.069, -2.670e-8
0.070, -2.710e-8
0.071, -2.725e-8
0.072, -2.722e-8
0.073, -2.747e-8
0.074, -2.774e-8
0.075, -2.796e-8
0.076, -2.790e-8
0.077, -2.799e-8
0.078, -2.827e-8
0.079, -2.845e-8
0.080, -2.833e-8
0.081, -2.836e-8
0.082, -2.857e-8
0.083, -2.873e-8
0.084, -2.867e-8
0.085, -2.857e-8
0.086, -2.873e-8
0.087, -2.891e-8
0.088, -2.879e-8
0.089, -2.867e-8
0.090, -2.876e-8
0.091, -2.888e-8
0.092, -2.885e-8
0.093, -2.857e-8
0.094, -2.864e-8
0.095, -2.882e-8
0.096, -2.870e-8
0.097, -2.845e-8
0.098, -2.839e-8
0.099, -2.848e-8
0.100, -2.851e-8
0.101, -2.820e-8
0.102, -2.811e-8
0.103, -2.817e-8
0.104, -2.817e-8
0.105, -2.793e-8
0.106, -2.768e-8
0.107, -2.777e-8
0.108, -2.780e-8
0.109, -2.750e-8
0.110, -2.728e-8
0.111, -2.731e-8
0.112, -2.731e-8
0.113, -2.713e-8
0.114, -2.682e-8
0.115, -2.682e-8
0.116, -2.685e-8
0.117, -2.667e-8
0.118, -2.633e-8
0.119, -2.630e-8
0.120, -2.636e-8
0.121, -2.621e-8
0.122, -2.587e-8
0.123, -2.574e-8
0.124, -2.584e-8
0.125, -2.571e-8
0.126, -2.534e-8
0.127, -2.522e-8
0.128, -2.528e-8
0.129, -2.525e-8
0.130, -2.491e-8
0.131, -2.467e-8
0.132, -2.476e-8
0.133, -2.473e-8
0.134, -2.445e-8
0.135, -2.421e-8
0.136, -2.421e-8
0.137, -2.427e-8
0.138, -2.402e-8
0.139, -2.371e-8
0.140, -2.374e-8
0.141, -2.377e-8
0.142, -2.359e-8
0.143, -2.331e-8
0.144, -2.322e-8
0.145, -2.331e-8
0.146, -2.316e-8
0.147, -2.282e-8
0.148, -2.279e-8
0.149, -2.285e-8
0.150, -2.276e-8
0.151, -2.248e-8
0.152, -2.230e-8
0.153, -2.242e-8
0.154, -2.239e-8
0.155, -2.208e-8
0.156, -2.193e-8
0.157, -2.196e-8
0.158, -2.202e-8
0.159, -2.177e-8
0.160, -2.153e-8
0.161, -2.159e-8
0.162, -2.165e-8
0.163, -2.147e-8
0.164, -2.119e-8
0.165, -2.122e-8
0.166, -2.131e-8
0.167, -2.116e-8
0.168, -2.088e-8
0.169, -2.085e-8
0.170, -2.097e-8
0.171, -2.085e-8
0.172, -2.061e-8
0.173, -2.054e-8
0.174, -2.064e-8
0.175, -2.064e-8
0.176, -2.033e-8
0.177, -2.024e-8
0.178, -2.036e-8
0.179, -2.036e-8
0.180, -2.011e-8
0.181, -1.996e-8
0.182, -2.005e-8
0.183, -2.018e-8
0.184, -1.987e-8
0.185, -1.971e-8
0.186, -1.978e-8
0.187, -1.987e-8
0.188, -1.974e-8
0.189, -1.947e-8
0.190, -1.953e-8
0.191, -1.965e-8
0.192, -1.953e-8
0.193, -1.928e-8
0.194, -1.928e-8
0.195, -1.944e-8
0.196, -1.938e-8
0.197, -1.910e-8
0.198, -1.910e-8
0.199, -1.922e-8
0.200, -1.919e-8
0.201, -1.894e-8
0.202, -1.888e-8
0.203, -1.904e-8
0.204, -1.904e-8
0.205, -1.882e-8
0.206, -1.867e-8
0.207, -1.882e-8
0.208, -1.888e-8
0.209, -1.870e-8
0.210, -1.854e-8
0.211, -1.864e-8
0.212, -1.876e-8
0.213, -1.861e-8
0.214, -1.836e-8
0.215, -1.845e-8
0.216, -1.861e-8
0.217, -1.851e-8
0.218, -1.827e-8
0.219, -1.830e-8
0.220, -1.845e-8
0.221, -1.839e-8
0.222, -1.814e-8
0.223, -1.818e-8
0.224, -1.830e-8
0.225, -1.830e-8
0.226, -1.808e-8
0.227, -1.799e-8
0.228, -1.821e-8
0.229, -1.821e-8
0.230, -1.799e-8
0.231, -1.793e-8
0.232, -1.802e-8
0.233, -1.814e-8
0.234, -1.796e-8
0.235, -1.778e-8
0.236, -1.796e-8
0.237, -1.805e-8
0.238, -1.790e-8
0.239, -1.774e-8
0.240, -1.778e-8
0.241, -1.799e-8
0.242, -1.787e-8
0.243, -1.765e-8
0.244, -1.771e-8
0.245, -1.787e-8
0.246, -1.784e-8
0.247, -1.759e-8
0.248, -1.762e-8
0.249, -1.781e-8
0.250, -1.781e-8
0.251, -1.759e-8
0.252, -1.753e-8
0.253, -1.768e-8
0.254, -1.778e-8
0.255, -1.756e-8
0.256, -1.747e-8
0.257, -1.762e-8
0.258, -1.774e-8
0.259, -1.753e-8
0.260, -1.741e-8
0.261, -1.756e-8
0.262, -1.768e-8
0.263, -1.756e-8
0.264, -1.738e-8
0.265, -1.750e-8
0.266, -1.768e-8
0.267, -1.756e-8
0.268, -1.738e-8
0.269, -1.744e-8
0.270, -1.762e-8
0.271, -1.762e-8
0.272, -1.734e-8
0.273, -1.741e-8
0.274, -1.759e-8
0.275, -1.759e-8
0.276, -1.741e-8
0.277, -1.734e-8
0.278, -1.753e-8
0.279, -1.762e-8
0.280, -1.741e-8
0.281, -1.738e-8
0.282, -1.750e-8
0.283, -1.762e-8
0.284, -1.747e-8
0.285, -1.734e-8
0.286, -1.750e-8
0.287, -1.765e-8
0.288, -1.750e-8
0.289, -1.734e-8
0.290, -1.747e-8
0.291, -1.765e-8
0.292, -1.759e-8
0.293, -1.738e-8
0.294, -1.747e-8
0.295, -1.768e-8
0.296, -1.765e-8
0.297, -1.744e-8
0.298, -1.747e-8
0.299, -1.768e-8
0.300, -1.587e-8
0.299, -1.331e-8
0.298, -1.285e-8
0.297, -1.279e-8
0.296, -1.264e-8
0.295, -1.221e-8
0.294, -1.202e-8
0.293, -1.199e-8
0.292, -1.199e-8
0.291, -1.171e-8
0.290, -1.147e-8
0.289, -1.150e-8
0.288, -1.156e-8
0.287, -1.131e-8
0.286, -1.107e-8
0.285, -1.110e-8
0.284, -1.119e-8
0.283, -1.101e-8
0.282, -1.073e-8
0.281, -1.076e-8
0.280, -1.088e-8
0.279, -1.076e-8
0.278, -1.048e-8
0.277, -1.045e-8
0.276, -1.058e-8
0.275, -1.055e-8
0.274, -1.027e-8
0.273, -1.018e-8
0.272, -1.036e-8
0.271, -1.033e-8
0.270, -1.011e-8
0.269, -9.961e-9
0.268, -1.008e-8
0.267, -1.018e-8
0.266, -9.930e-9
0.265, -9.776e-9
0.264, -9.900e-9
0.263, -9.961e-9
0.262, -9.807e-9
0.261, -9.623e-9
0.260, -9.653e-9
0.259, -9.838e-9
0.258, -9.684e-9
0.257, -9.438e-9
0.256, -9.500e-9
0.255, -9.623e-9
0.254, -9.592e-9
0.253, -9.315e-9
0.252, -9.315e-9
0.251, -9.530e-9
0.250, -9.438e-9
0.249, -9.192e-9
0.248, -9.192e-9
0.247, -9.284e-9
0.246, -9.377e-9
0.245, -9.100e-9
0.244, -9.007e-9
0.243, -9.161e-9
0.242, -9.223e-9
0.241, -9.038e-9
0.240, -8.854e-9
0.239, -8.977e-9
0.238, -9.130e-9
0.237, -8.946e-9
0.236, -8.761e-9
0.235, -8.823e-9
0.234, -9.007e-9
0.233, -8.854e-9
0.232, -8.669e-9
0.231, -8.700e-9
0.230, -8.823e-9
0.229, -8.792e-9
0.228, -8.515e-9
0.227, -8.577e-9
0.226, -8.730e-9
0.225, -8.669e-9
0.224, -8.484e-9
0.223, -8.392e-9
0.222, -8.577e-9
0.221, -8.638e-9
0.220, -8.361e-9
0.219, -8.300e-9
0.218, -8.423e-9
0.217, -8.484e-9
0.216, -8.331e-9
0.215, -8.146e-9
0.214, -8.300e-9
0.213, -8.392e-9
0.212, -8.238e-9
0.211, -8.084e-9
0.210, -8.115e-9
0.209, -8.300e-9
0.208, -8.177e-9
0.207, -7.931e-9
0.206, -8.023e-9
0.205, -8.146e-9
0.204, -8.084e-9
0.203, -7.838e-9
0.202, -7.838e-9
0.201, -8.023e-9
0.200, -7.992e-9
0.199, -7.746e-9
0.198, -7.715e-9
0.197, -7.869e-9
0.196, -7.900e-9
0.195, -7.654e-9
0.194, -7.561e-9
0.193, -7.715e-9
0.192, -7.777e-9
0.191, -7.561e-9
0.190, -7.408e-9
0.189, -7.561e-9
0.188, -7.654e-9
0.187, -7.500e-9
0.186, -7.285e-9
0.185, -7.377e-9
0.184, -7.531e-9
0.183, -7.377e-9
0.182, -7.161e-9
0.181, -7.223e-9
0.180, -7.346e-9
0.179, -7.254e-9
0.178, -7.008e-9
0.177, -7.008e-9
0.176, -7.192e-9
0.175, -7.100e-9
0.174, -6.885e-9
0.173, -6.823e-9
0.172, -6.946e-9
0.171, -6.977e-9
0.170, -6.731e-9
0.169, -6.608e-9
0.168, -6.762e-9
0.167, -6.762e-9
0.166, -6.577e-9
0.165, -6.392e-9
0.164, -6.485e-9
0.163, -6.608e-9
0.162, -6.362e-9
0.161, -6.177e-9
0.160, -6.239e-9
0.159, -6.331e-9
0.158, -6.208e-9
0.157, -5.931e-9
0.156, -5.962e-9
0.155, -6.085e-9
0.154, -5.962e-9
0.153, -5.685e-9
0.152, -5.654e-9
0.151, -5.777e-9
0.150, -5.715e-9
0.149, -5.408e-9
0.148, -5.316e-9
0.147, -5.439e-9
0.146, -5.408e-9
0.145, -5.069e-9
0.144, -4.946e-9
0.143, -5.039e-9
0.142, -5.039e-9
0.141, -4.762e-9
0.140, -4.516e-9
0.139, -4.608e-9
0.138, -4.639e-9
0.137, -4.362e-9
0.136, -4.116e-9
0.135, -4.085e-9
0.134, -4.177e-9
0.133, -3.962e-9
0.132, -3.593e-9
0.131, -3.593e-9
0.130, -3.623e-9
0.129, -3.439e-9
0.128, -3.100e-9
0.127, -2.947e-9
0.126, -3.039e-9
0.125, -2.854e-9
0.124, -2.485e-9
0.123, -2.362e-9
0.122, -2.301e-9
0.121, -2.208e-9
0.120, -1.839e-9
0.119, -1.562e-9
0.118, -1.593e-9
0.117, -1.470e-9
0.116, -1.070e-9
0.115, -7.623e-10
0.114, -7.008e-10
0.113, -6.700e-10
0.112, -2.701e-10
0.111, 9.911e-11
0.110, 2.222e-10
0.109, 2.837e-10
0.108, 6.529e-10
0.107, 1.084e-9
0.106, 1.268e-9
0.105, 1.299e-9
0.104, 1.668e-9
0.103, 2.160e-9
0.102, 2.376e-9
0.101, 2.468e-9
0.100, 2.776e-9
0.099, 3.268e-9
0.098, 3.576e-9
0.097, 3.729e-9
0.096, 3.976e-9
0.095, 4.499e-9
0.094, 4.868e-9
0.093, 5.022e-9
0.092, 5.298e-9
0.091, 5.791e-9
0.090, 6.252e-9
0.089, 6.437e-9
0.088, 6.621e-9
0.087, 7.175e-9
0.086, 7.667e-9
0.085, 7.883e-9
0.084, 8.129e-9
0.083, 8.560e-9
0.082, 9.144e-9
0.081, 9.421e-9
0.080, 9.575e-9
0.079, 1.010e-8
0.078, 1.062e-8
0.077, 1.096e-8
0.076, 1.117e-8
0.075, 1.151e-8
0.074, 1.216e-8
0.073, 1.247e-8
0.072, 1.268e-8
0.071, 1.305e-8
0.070, 1.354e-8
0.069, 1.397e-8
0.068, 1.419e-8
0.067, 1.447e-8
0.066, 1.499e-8
0.065, 1.542e-8
0.064, 1.560e-8
0.063, 1.585e-8
0.062, 1.631e-8
0.061, 1.677e-8
0.060, 1.696e-8
0.059, 1.714e-8
0.058, 1.754e-8
0.057, 1.800e-8
0.056, 1.819e-8
0.055, 1.828e-8
0.054, 1.859e-8
0.053, 1.908e-8
0.052, 1.927e-8
0.051, 1.933e-8
0.050, 1.954e-8
0.049, 1.997e-8
0.048, 2.016e-8
0.047, 2.019e-8
0.046, 2.031e-8
0.045, 2.068e-8
0.044, 2.090e-8
0.043, 2.087e-8
0.042, 2.093e-8
0.041, 2.127e-8
0.040, 2.145e-8
0.039, 2.145e-8
0.038, 2.139e-8
0.037, 2.160e-8
0.036, 2.185e-8
0.035, 2.176e-8
0.034, 2.170e-8
0.033, 2.185e-8
0.032, 2.200e-8
0.031, 2.200e-8
0.030, 2.182e-8
0.029, 2.191e-8
0.028, 2.213e-8
0.027, 2.200e-8
0.026, 2.188e-8
0.025, 2.185e-8
0.024, 2.203e-8
0.023, 2.200e-8
0.022, 2.173e-8
0.021, 2.170e-8
0.020, 2.185e-8
0.019, 2.179e-8
0.018, 2.160e-8
0.017, 2.142e-8
0.016, 2.154e-8
0.015, 2.154e-8
0.014, 2.130e-8
0.013, 2.111e-8
0.012, 2.114e-8
0.011, 2.120e-8
0.010, 2.099e-8
0.009, 2.071e-8
0.008, 2.071e-8
0.007, 2.077e-8
0.006, 2.059e-8
0.005, 2.028e-8
0.004, 2.028e-8
0.003, 2.031e-8
0.002, 2.016e-8
0.001, 1.988e-8
0.000, 1.988e-8
-0.001, 1.991e-8
-0.002, 1.976e-8
-0.003, 1.942e-8
-0.004, 1.930e-8
-0.005, 1.933e-8
-0.006, 1.927e-8
-0.007, 1.896e-8
-0.008, 1.874e-8
-0.009, 1.884e-8
-0.010, 1.880e-8
-0.011, 1.850e-8
-0.012, 1.828e-8
-0.013, 1.828e-8
-0.014, 1.831e-8
-0.015, 1.807e-8
-0.016, 1.776e-8
-0.017, 1.779e-8
-0.018, 1.782e-8
-0.019, 1.764e-8
-0.020, 1.736e-8
-0.021, 1.724e-8
-0.022, 1.739e-8
-0.023, 1.720e-8
-0.024, 1.687e-8
-0.025, 1.684e-8
-0.026, 1.690e-8
-0.027, 1.677e-8
-0.028, 1.650e-8
-0.029, 1.631e-8
-0.030, 1.647e-8
-0.031, 1.637e-8
-0.032, 1.610e-8
-0.033, 1.591e-8
-0.034, 1.600e-8
-0.035, 1.600e-8
-0.036, 1.573e-8
-0.037, 1.551e-8
-0.038, 1.557e-8
-0.039, 1.564e-8
-0.040, 1.539e-8
-0.041, 1.514e-8
-0.042, 1.517e-8
-0.043, 1.527e-8
-0.044, 1.508e-8
-0.045, 1.480e-8
-0.046, 1.477e-8
-0.047, 1.493e-8
-0.048, 1.477e-8
-0.049, 1.450e-8
-0.050, 1.444e-8
-0.051, 1.456e-8
-0.052, 1.453e-8
-0.053, 1.419e-8
-0.054, 1.413e-8
-0.055, 1.425e-8
-0.056, 1.419e-8
-0.057, 1.397e-8
-0.058, 1.382e-8
-0.059, 1.391e-8
-0.060, 1.394e-8
-0.061, 1.373e-8
-0.062, 1.354e-8
-0.063, 1.364e-8
-0.064, 1.370e-8
-0.065, 1.351e-8
-0.066, 1.327e-8
-0.067, 1.333e-8
-0.068, 1.345e-8
-0.069, 1.327e-8
-0.070, 1.305e-8
-0.071, 1.308e-8
-0.072, 1.321e-8
-0.073, 1.314e-8
-0.074, 1.281e-8
-0.075, 1.281e-8
-0.076, 1.299e-8
-0.077, 1.293e-8
-0.078, 1.268e-8
-0.079, 1.259e-8
-0.080, 1.274e-8
-0.081, 1.274e-8
-0.082, 1.250e-8
-0.083, 1.237e-8
-0.084, 1.253e-8
-0.085, 1.256e-8
-0.086, 1.234e-8
-0.087, 1.219e-8
-0.088, 1.231e-8
-0.089, 1.241e-8
-0.090, 1.225e-8
-0.091, 1.204e-8
-0.092, 1.210e-8
-0.093, 1.222e-8
-0.094, 1.210e-8
-0.095, 1.188e-8
-0.096, 1.191e-8
-0.097, 1.210e-8
-0.098, 1.197e-8
-0.099, 1.173e-8
-0.100, 1.176e-8
-0.101, 1.191e-8
-0.102, 1.188e-8
-0.103, 1.164e-8
-0.104, 1.157e-8
-0.105, 1.179e-8
-0.106, 1.173e-8
-0.107, 1.154e-8
-0.108, 1.145e-8
-0.109, 1.157e-8
-0.110, 1.164e-8
-0.111, 1.145e-8
-0.112, 1.130e-8
-0.113, 1.145e-8
-0.114, 1.154e-8
-0.115, 1.136e-8
-0.116, 1.121e-8
-0.117, 1.127e-8
-0.118, 1.142e-8
-0.119, 1.130e-8
-0.120, 1.108e-8
-0.121, 1.117e-8
-0.122, 1.127e-8
-0.123, 1.124e-8
-0.124, 1.099e-8
-0.125, 1.099e-8
-0.126, 1.121e-8
-0.127, 1.114e-8
-0.128, 1.093e-8
-0.129, 1.090e-8
-0.130, 1.105e-8
-0.131, 1.108e-8
-0.132, 1.087e-8
-0.133, 1.081e-8
-0.134, 1.096e-8
-0.135, 1.102e-8
-0.136, 1.084e-8
-0.137, 1.068e-8
-0.138, 1.084e-8
-0.139, 1.093e-8
-0.140, 1.081e-8
-0.141, 1.062e-8
-0.142, 1.071e-8
-0.143, 1.090e-8
-0.144, 1.074e-8
-0.145, 1.059e-8
-0.146, 1.062e-8
-0.147, 1.077e-8
-0.148, 1.074e-8
-0.149, 1.047e-8
-0.150, 1.053e-8
-0.151, 1.071e-8
-0.152, 1.065e-8
-0.153, 1.050e-8
-0.154, 1.044e-8
-0.155, 1.062e-8
-0.156, 1.065e-8
-0.157, 1.044e-8
-0.158, 1.037e-8
-0.159, 1.056e-8
-0.160, 1.059e-8
-0.161, 1.044e-8
-0.162, 1.028e-8
-0.163, 1.047e-8
-0.164, 1.059e-8
-0.165, 1.041e-8
-0.166, 1.025e-8
-0.167, 1.037e-8
-0.168, 1.053e-8
-0.169, 1.044e-8
-0.170, 1.019e-8
-0.171, 1.028e-8
-0.172, 1.050e-8
-0.173, 1.037e-8
-0.174, 1.019e-8
-0.175, 1.019e-8
-0.176, 1.044e-8
-0.177, 1.041e-8
-0.178, 1.016e-8
-0.179, 1.016e-8
-0.180, 1.034e-8
-0.181, 1.037e-8
-0.182, 1.019e-8
-0.183, 1.013e-8
-0.184, 1.031e-8
-0.185, 1.037e-8
-0.186, 1.019e-8
-0.187, 1.007e-8
-0.188, 1.025e-8
-0.189, 1.034e-8
-0.190, 1.019e-8
-0.191, 1.007e-8
-0.192, 1.016e-8
-0.193, 1.034e-8
-0.194, 1.022e-8
-0.195, 1.001e-8
-0.196, 1.013e-8
-0.197, 1.031e-8
-0.198, 1.022e-8
-0.199, 1.004e-8
