Mar. 16, 2023   08:54:57
Cyclic Voltammetry
File: c:/users/oliverrz/desktop/electrolab/data/2023_03_16\fcmeoh_macros_250_um\electrode2_cv_200mvs_250_um.bin
Data Source:  Experiment
Instrument Model:  CHI760E
Header: CV
Note: 

Init E (V) = -0.2
High E (V) = 0.3
Low E (V) = -0.2
Final E (V) = -0.2
Init P/N = P
Scan Rate (V/s) = 0.2
Segment = 3
Sample Interval (V) = 0.001
Quiet Time (sec) = 2
Sensitivity (A/V) = 1e-7

Results:

Channel 1:
Segment 1:

Segment 2:
Ep = 0.083V
ip = 8.828e-7A
Ah = 8.439e-8C

Segment 3:

Potential/V, Current/A

-0.200, 1.009e-6
-0.199, 1.009e-6
-0.198, 1.009e-6
-0.197, 1.009e-6
-0.196, 1.009e-6
-0.195, 1.009e-6
-0.194, 1.009e-6
-0.193, 1.009e-6
-0.192, 1.009e-6
-0.191, 1.009e-6
-0.190, 1.009e-6
-0.189, 1.009e-6
-0.188, 1.009e-6
-0.187, 1.009e-6
-0.186, 1.009e-6
-0.185, 1.009e-6
-0.184, 1.009e-6
-0.183, 1.009e-6
-0.182, 1.009e-6
-0.181, 1.009e-6
-0.180, 1.009e-6
-0.179, 1.009e-6
-0.178, 1.009e-6
-0.177, 1.009e-6
-0.176, 1.009e-6
-0.175, 1.009e-6
-0.174, 1.009e-6
-0.173, 1.009e-6
-0.172, 1.009e-6
-0.171, 1.009e-6
-0.170, 1.009e-6
-0.169, 1.009e-6
-0.168, 1.009e-6
-0.167, 1.009e-6
-0.166, 1.009e-6
-0.165, 1.009e-6
-0.164, 1.009e-6
-0.163, 1.009e-6
-0.162, 1.009e-6
-0.161, 1.009e-6
-0.160, 1.009e-6
-0.159, 1.009e-6
-0.158, 1.009e-6
-0.157, 1.009e-6
-0.156, 1.009e-6
-0.155, 1.009e-6
-0.154, 1.009e-6
-0.153, 1.009e-6
-0.152, 1.009e-6
-0.151, 1.009e-6
-0.150, 1.009e-6
-0.149, 1.009e-6
-0.148, 1.009e-6
-0.147, 1.009e-6
-0.146, 1.009e-6
-0.145, 1.009e-6
-0.144, 1.009e-6
-0.143, 1.009e-6
-0.142, 1.009e-6
-0.141, 1.009e-6
-0.140, 1.009e-6
-0.139, 1.009e-6
-0.138, 1.009e-6
-0.137, 1.009e-6
-0.136, 1.009e-6
-0.135, 1.009e-6
-0.134, 1.009e-6
-0.133, 1.009e-6
-0.132, 1.009e-6
-0.131, 1.009e-6
-0.130, 1.009e-6
-0.129, 1.009e-6
-0.128, 1.009e-6
-0.127, 1.009e-6
-0.126, 1.009e-6
-0.125, 1.009e-6
-0.124, 1.009e-6
-0.123, 1.009e-6
-0.122, 1.009e-6
-0.121, 1.009e-6
-0.120, 1.009e-6
-0.119, 1.009e-6
-0.118, 1.009e-6
-0.117, 1.009e-6
-0.116, 1.009e-6
-0.115, 1.009e-6
-0.114, 1.009e-6
-0.113, 1.009e-6
-0.112, 1.009e-6
-0.111, 1.009e-6
-0.110, 1.009e-6
-0.109, 1.009e-6
-0.108, 1.009e-6
-0.107, 1.009e-6
-0.106, 1.009e-6
-0.105, 1.009e-6
-0.104, 1.009e-6
-0.103, 1.009e-6
-0.102, 1.009e-6
-0.101, 1.009e-6
-0.100, 1.009e-6
-0.099, 1.009e-6
-0.098, 1.009e-6
-0.097, 1.009e-6
-0.096, 1.009e-6
-0.095, 1.009e-6
-0.094, 1.009e-6
-0.093, 1.009e-6
-0.092, 1.009e-6
-0.091, 1.009e-6
-0.090, 1.009e-6
-0.089, 1.009e-6
-0.088, 1.009e-6
-0.087, 1.009e-6
-0.086, 1.009e-6
-0.085, 1.009e-6
-0.084, 1.009e-6
-0.083, 1.009e-6
-0.082, 1.009e-6
-0.081, 1.009e-6
-0.080, 1.009e-6
-0.079, 1.009e-6
-0.078, 1.009e-6
-0.077, 1.009e-6
-0.076, 1.009e-6
-0.075, 1.009e-6
-0.074, 1.009e-6
-0.073, 1.009e-6
-0.072, 1.009e-6
-0.071, 1.009e-6
-0.070, 1.009e-6
-0.069, 1.009e-6
-0.068, 1.009e-6
-0.067, 1.009e-6
-0.066, 1.009e-6
-0.065, 1.009e-6
-0.064, 1.009e-6
-0.063, 1.009e-6
-0.062, 1.009e-6
-0.061, 1.009e-6
-0.060, 1.009e-6
-0.059, 1.009e-6
-0.058, 1.009e-6
-0.057, 1.009e-6
-0.056, 1.009e-6
-0.055, 1.009e-6
-0.054, 1.009e-6
-0.053, 1.009e-6
-0.052, 1.009e-6
-0.051, 1.009e-6
-0.050, 1.009e-6
-0.049, 1.009e-6
-0.048, 1.009e-6
-0.047, 1.009e-6
-0.046, 1.009e-6
-0.045, 1.009e-6
-0.044, 1.009e-6
-0.043, 1.009e-6
-0.042, 1.009e-6
-0.041, 1.009e-6
-0.040, 1.009e-6
-0.039, 1.009e-6
-0.038, 1.009e-6
-0.037, 1.009e-6
-0.036, 1.009e-6
-0.035, 1.009e-6
-0.034, 1.009e-6
-0.033, 1.009e-6
-0.032, 1.009e-6
-0.031, 1.009e-6
-0.030, 1.009e-6
-0.029, 1.009e-6
-0.028, 1.009e-6
-0.027, 1.009e-6
-0.026, 1.009e-6
-0.025, 1.009e-6
-0.024, 1.009e-6
-0.023, 1.009e-6
-0.022, 1.009e-6
-0.021, 1.009e-6
-0.020, 1.009e-6
-0.019, 1.009e-6
-0.018, 1.009e-6
-0.017, 1.009e-6
-0.016, 1.009e-6
-0.015, 1.009e-6
-0.014, 1.009e-6
-0.013, 1.009e-6
-0.012, 1.009e-6
-0.011, 1.009e-6
-0.010, 1.009e-6
-0.009, 1.009e-6
-0.008, 1.009e-6
-0.007, 1.009e-6
-0.006, 1.009e-6
-0.005, 1.009e-6
-0.004, 1.009e-6
-0.003, 1.009e-6
-0.002, 1.009e-6
-0.001, 1.009e-6
-0.000, 1.009e-6
0.001, 1.009e-6
0.002, 1.009e-6
0.003, 1.009e-6
0.004, 1.009e-6
0.005, 1.009e-6
0.006, 1.009e-6
0.007, 1.009e-6
0.008, 1.009e-6
0.009, 1.009e-6
0.010, 1.009e-6
0.011, 1.009e-6
0.012, 1.009e-6
0.013, 1.009e-6
0.014, 1.009e-6
0.015, 1.009e-6
0.016, 1.009e-6
0.017, 1.009e-6
0.018, 1.009e-6
0.019, 1.009e-6
0.020, 1.009e-6
0.021, 1.009e-6
0.022, 1.009e-6
0.023, 1.009e-6
0.024, 1.009e-6
0.025, 1.009e-6
0.026, 1.009e-6
0.027, 1.009e-6
0.028, 1.009e-6
0.029, 1.009e-6
0.030, 1.009e-6
0.031, 1.009e-6
0.032, 1.009e-6
0.033, 1.009e-6
0.034, 1.009e-6
0.035, 1.009e-6
0.036, 1.009e-6
0.037, 1.009e-6
0.038, 1.009e-6
0.039, 1.009e-6
0.040, 1.009e-6
0.041, 1.009e-6
0.042, 1.009e-6
0.043, 1.009e-6
0.044, 1.009e-6
0.045, 1.009e-6
0.046, 1.009e-6
0.047, 1.009e-6
0.048, 1.009e-6
0.049, 1.009e-6
0.050, 1.009e-6
0.051, 1.009e-6
0.052, 1.009e-6
0.053, 1.009e-6
0.054, 1.009e-6
0.055, 1.009e-6
0.056, 1.009e-6
0.057, 1.009e-6
0.058, 1.009e-6
0.059, 1.009e-6
0.060, 1.009e-6
0.061, 1.009e-6
0.062, 1.007e-6
0.063, 8.525e-7
0.064, 6.406e-7
0.065, 4.563e-7
0.066, 2.952e-7
0.067, 1.492e-7
0.068, 1.553e-8
0.069, -1.042e-7
0.070, -2.126e-7
0.071, -3.113e-7
0.072, -3.996e-7
0.073, -4.809e-7
0.074, -5.522e-7
0.075, -6.168e-7
0.076, -6.739e-7
0.077, -7.235e-7
0.078, -7.681e-7
0.079, -8.046e-7
0.080, -8.357e-7
0.081, -8.620e-7
0.082, -8.822e-7
0.083, -8.979e-7
0.084, -9.094e-7
0.085, -9.166e-7
0.086, -9.206e-7
0.087, -9.212e-7
0.088, -9.188e-7
0.089, -9.137e-7
0.090, -9.062e-7
0.091, -8.971e-7
0.092, -8.855e-7
0.093, -8.720e-7
0.094, -8.587e-7
0.095, -8.438e-7
0.096, -8.271e-7
0.097, -8.111e-7
0.098, -7.942e-7
0.099, -7.764e-7
0.100, -7.595e-7
0.101, -7.415e-7
0.102, -7.243e-7
0.103, -7.070e-7
0.104, -6.890e-7
0.105, -6.721e-7
0.106, -6.549e-7
0.107, -6.381e-7
0.108, -6.225e-7
0.109, -6.059e-7
0.110, -5.905e-7
0.111, -5.757e-7
0.112, -5.603e-7
0.113, -5.465e-7
0.114, -5.325e-7
0.115, -5.190e-7
0.116, -5.063e-7
0.117, -4.932e-7
0.118, -4.813e-7
0.119, -4.695e-7
0.120, -4.578e-7
0.121, -4.473e-7
0.122, -4.364e-7
0.123, -4.260e-7
0.124, -4.166e-7
0.125, -4.066e-7
0.126, -3.976e-7
0.127, -3.889e-7
0.128, -3.805e-7
0.129, -3.723e-7
0.130, -3.645e-7
0.131, -3.568e-7
0.132, -3.495e-7
0.133, -3.426e-7
0.134, -3.356e-7
0.135, -3.294e-7
0.136, -3.228e-7
0.137, -3.168e-7
0.138, -3.111e-7
0.139, -3.054e-7
0.140, -3.001e-7
0.141, -2.949e-7
0.142, -2.896e-7
0.143, -2.852e-7
0.144, -2.800e-7
0.145, -2.756e-7
0.146, -2.715e-7
0.147, -2.667e-7
0.148, -2.632e-7
0.149, -2.589e-7
0.150, -2.549e-7
0.151, -2.516e-7
0.152, -2.475e-7
0.153, -2.446e-7
0.154, -2.409e-7
0.155, -2.374e-7
0.156, -2.345e-7
0.157, -2.309e-7
0.158, -2.279e-7
0.159, -2.254e-7
0.160, -2.220e-7
0.161, -2.193e-7
0.162, -2.166e-7
0.163, -2.136e-7
0.164, -2.112e-7
0.165, -2.083e-7
0.166, -2.059e-7
0.167, -2.034e-7
0.168, -2.006e-7
0.169, -1.984e-7
0.170, -1.960e-7
0.171, -1.936e-7
0.172, -1.913e-7
0.173, -1.890e-7
0.174, -1.865e-7
0.175, -1.847e-7
0.176, -1.823e-7
0.177, -1.799e-7
0.178, -1.781e-7
0.179, -1.761e-7
0.180, -1.739e-7
0.181, -1.718e-7
0.182, -1.695e-7
0.183, -1.680e-7
0.184, -1.656e-7
0.185, -1.638e-7
0.186, -1.621e-7
0.187, -1.598e-7
0.188, -1.582e-7
0.189, -1.562e-7
0.190, -1.543e-7
0.191, -1.527e-7
0.192, -1.508e-7
0.193, -1.490e-7
0.194, -1.474e-7
0.195, -1.452e-7
0.196, -1.441e-7
0.197, -1.419e-7
0.198, -1.403e-7
0.199, -1.389e-7
0.200, -1.369e-7
0.201, -1.355e-7
0.202, -1.338e-7
0.203, -1.321e-7
0.204, -1.308e-7
0.205, -1.292e-7
0.206, -1.276e-7
0.207, -1.262e-7
0.208, -1.244e-7
0.209, -1.231e-7
0.210, -1.216e-7
0.211, -1.200e-7
0.212, -1.189e-7
0.213, -1.172e-7
0.214, -1.156e-7
0.215, -1.145e-7
0.216, -1.131e-7
0.217, -1.115e-7
0.218, -1.105e-7
0.219, -1.091e-7
0.220, -1.077e-7
0.221, -1.064e-7
0.222, -1.049e-7
0.223, -1.040e-7
0.224, -1.024e-7
0.225, -1.013e-7
0.226, -1.002e-7
0.227, -9.857e-8
0.228, -9.763e-8
0.229, -9.633e-8
0.230, -9.521e-8
0.231, -9.417e-8
0.232, -9.262e-8
0.233, -9.158e-8
0.234, -9.058e-8
0.235, -8.911e-8
0.236, -8.837e-8
0.237, -8.670e-8
0.238, -8.565e-8
0.239, -8.486e-8
0.240, -8.329e-8
0.241, -8.236e-8
0.242, -8.131e-8
0.243, -8.010e-8
0.244, -7.910e-8
0.245, -7.777e-8
0.246, -7.673e-8
0.247, -7.562e-8
0.248, -7.441e-8
0.249, -7.344e-8
0.250, -7.235e-8
0.251, -7.111e-8
0.252, -7.005e-8
0.253, -6.893e-8
0.254, -6.772e-8
0.255, -6.693e-8
0.256, -6.580e-8
0.257, -6.453e-8
0.258, -6.362e-8
0.259, -6.245e-8
0.260, -6.154e-8
0.261, -6.026e-8
0.262, -5.927e-8
0.263, -5.843e-8
0.264, -5.722e-8
0.265, -5.614e-8
0.266, -5.537e-8
0.267, -5.400e-8
0.268, -5.332e-8
0.269, -5.228e-8
0.270, -5.113e-8
0.271, -5.039e-8
0.272, -4.915e-8
0.273, -4.840e-8
0.274, -4.744e-8
0.275, -4.632e-8
0.276, -4.572e-8
0.277, -4.441e-8
0.278, -4.364e-8
0.279, -4.290e-8
0.280, -4.175e-8
0.281, -4.100e-8
0.282, -4.021e-8
0.283, -3.925e-8
0.284, -3.842e-8
0.285, -3.743e-8
0.286, -3.668e-8
0.287, -3.578e-8
0.288, -3.488e-8
0.289, -3.422e-8
0.290, -3.338e-8
0.291, -3.244e-8
0.292, -3.185e-8
0.293, -3.091e-8
0.294, -3.012e-8
0.295, -2.948e-8
0.296, -2.866e-8
0.297, -2.780e-8
0.298, -2.711e-8
0.299, -2.644e-8
0.300, -5.654e-9
0.299, 1.420e-8
0.298, 1.729e-8
0.297, 1.951e-8
0.296, 2.138e-8
0.295, 2.307e-8
0.294, 2.433e-8
0.293, 2.587e-8
0.292, 2.710e-8
0.291, 2.787e-8
0.290, 2.917e-8
0.289, 3.018e-8
0.288, 3.092e-8
0.287, 3.196e-8
0.286, 3.275e-8
0.285, 3.350e-8
0.284, 3.434e-8
0.283, 3.511e-8
0.282, 3.589e-8
0.281, 3.652e-8
0.280, 3.714e-8
0.279, 3.795e-8
0.278, 3.851e-8
0.277, 3.893e-8
0.276, 3.994e-8
0.275, 4.023e-8
0.274, 4.076e-8
0.273, 4.166e-8
0.272, 4.199e-8
0.271, 4.259e-8
0.270, 4.319e-8
0.269, 4.366e-8
0.268, 4.432e-8
0.267, 4.456e-8
0.266, 4.529e-8
0.265, 4.582e-8
0.264, 4.608e-8
0.263, 4.688e-8
0.262, 4.722e-8
0.261, 4.755e-8
0.260, 4.837e-8
0.259, 4.858e-8
0.258, 4.920e-8
0.257, 4.969e-8
0.256, 5.014e-8
0.255, 5.062e-8
0.254, 5.097e-8
0.253, 5.146e-8
0.252, 5.209e-8
0.251, 5.220e-8
0.250, 5.291e-8
0.249, 5.341e-8
0.248, 5.356e-8
0.247, 5.430e-8
0.246, 5.465e-8
0.245, 5.509e-8
0.244, 5.556e-8
0.243, 5.601e-8
0.242, 5.642e-8
0.241, 5.678e-8
0.240, 5.720e-8
0.239, 5.781e-8
0.238, 5.810e-8
0.237, 5.848e-8
0.236, 5.915e-8
0.235, 5.936e-8
0.234, 5.977e-8
0.233, 6.053e-8
0.232, 6.065e-8
0.231, 6.132e-8
0.230, 6.166e-8
0.229, 6.190e-8
0.228, 6.273e-8
0.227, 6.273e-8
0.226, 6.345e-8
0.225, 6.387e-8
0.224, 6.400e-8
0.223, 6.488e-8
0.222, 6.511e-8
0.221, 6.542e-8
0.220, 6.621e-8
0.219, 6.632e-8
0.218, 6.695e-8
0.217, 6.741e-8
0.216, 6.770e-8
0.215, 6.836e-8
0.214, 6.856e-8
0.213, 6.924e-8
0.212, 6.982e-8
0.211, 6.996e-8
0.210, 7.051e-8
0.209, 7.112e-8
0.208, 7.130e-8
0.207, 7.212e-8
0.206, 7.250e-8
0.205, 7.309e-8
0.204, 7.351e-8
0.203, 7.396e-8
0.202, 7.445e-8
0.201, 7.500e-8
0.200, 7.540e-8
0.199, 7.599e-8
0.198, 7.637e-8
0.197, 7.690e-8
0.196, 7.774e-8
0.195, 7.794e-8
0.194, 7.856e-8
0.193, 7.938e-8
0.192, 7.969e-8
0.191, 8.032e-8
0.190, 8.089e-8
0.189, 8.133e-8
0.188, 8.223e-8
0.187, 8.250e-8
0.186, 8.325e-8
0.185, 8.396e-8
0.184, 8.431e-8
0.183, 8.530e-8
0.182, 8.567e-8
0.181, 8.628e-8
0.180, 8.734e-8
0.179, 8.772e-8
0.178, 8.842e-8
0.177, 8.910e-8
0.176, 8.981e-8
0.175, 9.074e-8
0.174, 9.120e-8
0.173, 9.198e-8
0.172, 9.301e-8
0.171, 9.350e-8
0.170, 9.442e-8
0.169, 9.534e-8
0.168, 9.601e-8
0.167, 9.709e-8
0.166, 9.786e-8
0.165, 9.882e-8
0.164, 9.974e-8
0.163, 1.007e-7
0.162, 1.017e-7
0.161, 1.027e-7
0.160, 1.037e-7
0.159, 1.049e-7
0.158, 1.057e-7
0.157, 1.070e-7
0.156, 1.083e-7
0.155, 1.094e-7
0.154, 1.106e-7
0.153, 1.122e-7
0.152, 1.131e-7
0.151, 1.148e-7
0.150, 1.161e-7
0.149, 1.174e-7
0.148, 1.194e-7
0.147, 1.206e-7
0.146, 1.225e-7
0.145, 1.244e-7
0.144, 1.258e-7
0.143, 1.282e-7
0.142, 1.299e-7
0.141, 1.320e-7
0.140, 1.346e-7
0.139, 1.365e-7
0.138, 1.391e-7
0.137, 1.416e-7
0.136, 1.443e-7
0.135, 1.473e-7
0.134, 1.499e-7
0.133, 1.534e-7
0.132, 1.569e-7
0.131, 1.601e-7
0.130, 1.640e-7
0.129, 1.681e-7
0.128, 1.722e-7
0.127, 1.769e-7
0.126, 1.814e-7
0.125, 1.865e-7
0.124, 1.918e-7
0.123, 1.975e-7
0.122, 2.035e-7
0.121, 2.100e-7
0.120, 2.167e-7
0.119, 2.242e-7
0.118, 2.317e-7
0.117, 2.400e-7
0.116, 2.489e-7
0.115, 2.581e-7
0.114, 2.678e-7
0.113, 2.786e-7
0.112, 2.893e-7
0.111, 3.015e-7
0.110, 3.137e-7
0.109, 3.270e-7
0.108, 3.413e-7
0.107, 3.559e-7
0.106, 3.720e-7
0.105, 3.884e-7
0.104, 4.062e-7
0.103, 4.252e-7
0.102, 4.449e-7
0.101, 4.655e-7
0.100, 4.874e-7
0.099, 5.100e-7
0.098, 5.342e-7
0.097, 5.593e-7
0.096, 5.854e-7
0.095, 6.134e-7
0.094, 6.416e-7
0.093, 6.720e-7
0.092, 7.030e-7
0.091, 7.354e-7
0.090, 7.696e-7
0.089, 8.042e-7
0.088, 8.401e-7
0.087, 8.775e-7
0.086, 9.151e-7
0.085, 9.547e-7
0.084, 9.947e-7
0.083, 1.009e-6
0.082, 1.009e-6
0.081, 1.009e-6
0.080, 1.009e-6
0.079, 1.009e-6
0.078, 1.009e-6
0.077, 1.009e-6
0.076, 1.009e-6
0.075, 1.009e-6
0.074, 1.009e-6
0.073, 1.009e-6
0.072, 1.009e-6
0.071, 1.009e-6
0.070, 1.009e-6
0.069, 1.009e-6
0.068, 1.009e-6
0.067, 1.009e-6
0.066, 1.009e-6
0.065, 1.009e-6
0.064, 1.009e-6
0.063, 1.009e-6
0.062, 1.009e-6
0.061, 1.009e-6
0.060, 1.009e-6
0.059, 1.009e-6
0.058, 1.009e-6
0.057, 1.009e-6
0.056, 1.009e-6
0.055, 1.009e-6
0.054, 1.009e-6
0.053, 1.009e-6
0.052, 1.009e-6
0.051, 1.009e-6
0.050, 1.009e-6
0.049, 1.009e-6
0.048, 1.009e-6
0.047, 1.009e-6
0.046, 1.009e-6
0.045, 1.009e-6
0.044, 1.009e-6
0.043, 1.009e-6
0.042, 1.009e-6
0.041, 1.009e-6
0.040, 1.009e-6
0.039, 1.009e-6
0.038, 1.009e-6
0.037, 1.009e-6
0.036, 1.009e-6
0.035, 1.009e-6
0.034, 1.009e-6
0.033, 1.009e-6
0.032, 1.009e-6
0.031, 1.009e-6
0.030, 1.009e-6
0.029, 1.009e-6
0.028, 1.009e-6
0.027, 1.009e-6
0.026, 1.009e-6
0.025, 1.009e-6
0.024, 1.009e-6
0.023, 1.009e-6
0.022, 1.009e-6
0.021, 1.009e-6
0.020, 1.009e-6
0.019, 1.009e-6
0.018, 1.009e-6
0.017, 1.009e-6
0.016, 1.009e-6
0.015, 1.009e-6
0.014, 1.009e-6
0.013, 1.009e-6
0.012, 1.009e-6
0.011, 1.009e-6
0.010, 1.009e-6
0.009, 1.009e-6
0.008, 1.009e-6
0.007, 1.009e-6
0.006, 1.009e-6
0.005, 1.009e-6
0.004, 1.009e-6
0.003, 1.009e-6
0.002, 1.009e-6
0.001, 1.009e-6
0.000, 1.009e-6
-0.001, 1.009e-6
-0.002, 1.009e-6
-0.003, 1.009e-6
-0.004, 1.009e-6
-0.005, 1.009e-6
-0.006, 1.009e-6
-0.007, 1.009e-6
-0.008, 1.009e-6
-0.009, 1.009e-6
-0.010, 1.009e-6
-0.011, 1.009e-6
-0.012, 1.009e-6
-0.013, 1.009e-6
-0.014, 1.009e-6
-0.015, 1.009e-6
-0.016, 1.009e-6
-0.017, 1.009e-6
-0.018, 1.009e-6
-0.019, 1.009e-6
-0.020, 1.009e-6
-0.021, 1.009e-6
-0.022, 1.009e-6
-0.023, 1.009e-6
-0.024, 1.009e-6
-0.025, 1.009e-6
-0.026, 1.009e-6
-0.027, 1.009e-6
-0.028, 1.009e-6
-0.029, 1.009e-6
-0.030, 1.009e-6
-0.031, 1.009e-6
-0.032, 1.009e-6
-0.033, 1.009e-6
-0.034, 1.009e-6
-0.035, 1.009e-6
-0.036, 1.009e-6
-0.037, 1.009e-6
-0.038, 1.009e-6
-0.039, 1.009e-6
-0.040, 1.009e-6
-0.041, 1.009e-6
-0.042, 1.009e-6
-0.043, 1.009e-6
-0.044, 1.009e-6
-0.045, 1.009e-6
-0.046, 1.009e-6
-0.047, 1.009e-6
-0.048, 1.009e-6
-0.049, 1.009e-6
-0.050, 1.009e-6
-0.051, 1.009e-6
-0.052, 1.009e-6
-0.053, 1.009e-6
-0.054, 1.009e-6
-0.055, 1.009e-6
-0.056, 1.009e-6
-0.057, 1.009e-6
-0.058, 1.009e-6
-0.059, 1.009e-6
-0.060, 1.009e-6
-0.061, 1.009e-6
-0.062, 1.009e-6
-0.063, 1.009e-6
-0.064, 1.009e-6
-0.065, 1.009e-6
-0.066, 1.009e-6
-0.067, 1.009e-6
-0.068, 1.009e-6
-0.069, 1.009e-6
-0.070, 1.009e-6
-0.071, 1.009e-6
-0.072, 1.009e-6
-0.073, 1.009e-6
-0.074, 1.009e-6
-0.075, 1.009e-6
-0.076, 1.009e-6
-0.077, 1.009e-6
-0.078, 1.009e-6
-0.079, 1.009e-6
-0.080, 1.009e-6
-0.081, 1.009e-6
-0.082, 1.009e-6
-0.083, 1.009e-6
-0.084, 1.009e-6
-0.085, 1.009e-6
-0.086, 1.009e-6
-0.087, 1.009e-6
-0.088, 1.009e-6
-0.089, 1.009e-6
-0.090, 1.009e-6
-0.091, 1.009e-6
-0.092, 1.009e-6
-0.093, 1.009e-6
-0.094, 1.009e-6
-0.095, 1.009e-6
-0.096, 1.009e-6
-0.097, 1.009e-6
-0.098, 1.009e-6
-0.099, 1.009e-6
-0.100, 1.009e-6
-0.101, 1.009e-6
-0.102, 1.009e-6
-0.103, 1.009e-6
-0.104, 1.009e-6
-0.105, 1.009e-6
-0.106, 1.009e-6
-0.107, 1.009e-6
-0.108, 1.009e-6
-0.109, 1.009e-6
-0.110, 1.009e-6
-0.111, 1.009e-6
-0.112, 1.009e-6
-0.113, 1.009e-6
-0.114, 1.009e-6
-0.115, 1.009e-6
-0.116, 1.009e-6
-0.117, 1.009e-6
-0.118, 1.009e-6
-0.119, 1.009e-6
-0.120, 1.009e-6
-0.121, 1.009e-6
-0.122, 1.009e-6
-0.123, 1.009e-6
-0.124, 1.009e-6
-0.125, 1.009e-6
-0.126, 1.009e-6
-0.127, 1.009e-6
-0.128, 1.009e-6
-0.129, 1.009e-6
-0.130, 1.009e-6
-0.131, 1.009e-6
-0.132, 1.009e-6
-0.133, 1.009e-6
-0.134, 1.009e-6
-0.135, 1.009e-6
-0.136, 1.009e-6
-0.137, 1.009e-6
-0.138, 1.009e-6
-0.139, 1.009e-6
-0.140, 1.009e-6
-0.141, 1.009e-6
-0.142, 1.009e-6
-0.143, 1.009e-6
-0.144, 1.009e-6
-0.145, 1.009e-6
-0.146, 1.009e-6
-0.147, 1.009e-6
-0.148, 1.009e-6
-0.149, 1.009e-6
-0.150, 1.009e-6
-0.151, 1.009e-6
-0.152, 1.009e-6
-0.153, 1.009e-6
-0.154, 1.009e-6
-0.155, 1.009e-6
-0.156, 1.009e-6
-0.157, 1.009e-6
-0.158, 1.009e-6
-0.159, 1.009e-6
-0.160, 1.009e-6
-0.161, 1.009e-6
-0.162, 1.009e-6
-0.163, 1.009e-6
-0.164, 1.009e-6
-0.165, 1.009e-6
-0.166, 1.009e-6
-0.167, 1.009e-6
-0.168, 1.009e-6
-0.169, 1.009e-6
-0.170, 1.009e-6
-0.171, 1.009e-6
-0.172, 1.009e-6
-0.173, 1.009e-6
-0.174, 1.009e-6
-0.175, 1.009e-6
-0.176, 1.009e-6
-0.177, 1.009e-6
-0.178, 1.009e-6
-0.179, 1.009e-6
-0.180, 1.009e-6
-0.181, 1.009e-6
-0.182, 1.009e-6
-0.183, 1.009e-6
-0.184, 1.009e-6
-0.185, 1.009e-6
-0.186, 1.009e-6
-0.187, 1.009e-6
-0.188, 1.009e-6
-0.189, 1.009e-6
-0.190, 1.009e-6
-0.191, 1.009e-6
-0.192, 1.009e-6
-0.193, 1.009e-6
-0.194, 1.009e-6
-0.195, 1.009e-6
-0.196, 1.009e-6
-0.197, 1.009e-6
-0.198, 1.009e-6
-0.199, 1.009e-6
