Mar. 16, 2023   09:01:09
Cyclic Voltammetry
File: c:/users/oliverrz/desktop/electrolab/data/2023_03_16\fcmeoh_macros_250_um\electrode7_cv_100mvs_250_um.bin
Data Source:  Experiment
Instrument Model:  CHI760E
Header: CV
Note: 

Init E (V) = -0.2
High E (V) = 0.3
Low E (V) = -0.2
Final E (V) = -0.2
Init P/N = P
Scan Rate (V/s) = 0.1
Segment = 3
Sample Interval (V) = 0.001
Quiet Time (sec) = 2
Sensitivity (A/V) = 1e-7

Results:

Channel 1:
Segment 1:
Ep = 0.066V
ip = -1.740e-8A
Ah = -1.073e-8C

Segment 2:
Ep = 0.000V
ip = 1.678e-8A
Ah = 1.087e-8C

Segment 3:

Potential/V, Current/A

-0.200, 3.012e-9
-0.199, 2.543e-9
-0.198, 2.512e-9
-0.197, 2.457e-9
-0.196, 2.394e-9
-0.195, 2.443e-9
-0.194, 2.343e-9
-0.193, 2.380e-9
-0.192, 2.345e-9
-0.191, 2.291e-9
-0.190, 2.342e-9
-0.189, 2.251e-9
-0.188, 2.288e-9
-0.187, 2.260e-9
-0.186, 2.209e-9
-0.185, 2.261e-9
-0.184, 2.171e-9
-0.183, 2.213e-9
-0.182, 2.180e-9
-0.181, 2.134e-9
-0.180, 2.188e-9
-0.179, 2.092e-9
-0.178, 2.139e-9
-0.177, 2.108e-9
-0.176, 2.065e-9
-0.175, 2.119e-9
-0.174, 2.024e-9
-0.173, 2.076e-9
-0.172, 2.041e-9
-0.171, 2.001e-9
-0.170, 2.056e-9
-0.169, 1.960e-9
-0.168, 2.015e-9
-0.167, 1.979e-9
-0.166, 1.934e-9
-0.165, 1.996e-9
-0.164, 1.898e-9
-0.163, 1.953e-9
-0.162, 1.923e-9
-0.161, 1.878e-9
-0.160, 1.937e-9
-0.159, 1.843e-9
-0.158, 1.895e-9
-0.157, 1.864e-9
-0.156, 1.819e-9
-0.155, 1.879e-9
-0.154, 1.786e-9
-0.153, 1.833e-9
-0.152, 1.806e-9
-0.151, 1.767e-9
-0.150, 1.822e-9
-0.149, 1.733e-9
-0.148, 1.781e-9
-0.147, 1.752e-9
-0.146, 1.712e-9
-0.145, 1.767e-9
-0.144, 1.681e-9
-0.143, 1.729e-9
-0.142, 1.700e-9
-0.141, 1.659e-9
-0.140, 1.714e-9
-0.139, 1.624e-9
-0.138, 1.674e-9
-0.137, 1.641e-9
-0.136, 1.605e-9
-0.135, 1.659e-9
-0.134, 1.568e-9
-0.133, 1.623e-9
-0.132, 1.584e-9
-0.131, 1.550e-9
-0.130, 1.607e-9
-0.129, 1.510e-9
-0.128, 1.565e-9
-0.127, 1.528e-9
-0.126, 1.491e-9
-0.125, 1.548e-9
-0.124, 1.452e-9
-0.123, 1.509e-9
-0.122, 1.473e-9
-0.121, 1.434e-9
-0.120, 1.491e-9
-0.119, 1.394e-9
-0.118, 1.447e-9
-0.117, 1.414e-9
-0.116, 1.370e-9
-0.115, 1.428e-9
-0.114, 1.334e-9
-0.113, 1.384e-9
-0.112, 1.353e-9
-0.111, 1.309e-9
-0.110, 1.362e-9
-0.109, 1.270e-9
-0.108, 1.320e-9
-0.107, 1.285e-9
-0.106, 1.245e-9
-0.105, 1.291e-9
-0.104, 1.203e-9
-0.103, 1.249e-9
-0.102, 1.206e-9
-0.101, 1.171e-9
-0.100, 1.219e-9
-0.099, 1.125e-9
-0.098, 1.176e-9
-0.097, 1.132e-9
-0.096, 1.094e-9
-0.095, 1.141e-9
-0.094, 1.043e-9
-0.093, 1.092e-9
-0.092, 1.046e-9
-0.091, 1.003e-9
-0.090, 1.048e-9
-0.089, 9.469e-10
-0.088, 9.995e-10
-0.087, 9.504e-10
-0.086, 9.070e-10
-0.085, 9.527e-10
-0.084, 8.425e-10
-0.083, 8.940e-10
-0.082, 8.403e-10
-0.081, 7.906e-10
-0.080, 8.357e-10
-0.079, 7.281e-10
-0.078, 7.702e-10
-0.077, 7.166e-10
-0.076, 6.650e-10
-0.075, 7.052e-10
-0.074, 5.914e-10
-0.073, 6.320e-10
-0.072, 5.764e-10
-0.071, 5.195e-10
-0.070, 5.529e-10
-0.069, 4.428e-10
-0.068, 4.723e-10
-0.067, 4.152e-10
-0.066, 3.554e-10
-0.065, 3.843e-10
-0.064, 2.686e-10
-0.063, 2.947e-10
-0.062, 2.292e-10
-0.061, 1.694e-10
-0.060, 1.878e-10
-0.059, 6.893e-11
-0.058, 8.882e-11
-0.057, 1.636e-11
-0.056, -5.078e-11
-0.055, -3.621e-11
-0.054, -1.666e-10
-0.053, -1.499e-10
-0.052, -2.346e-10
-0.051, -3.099e-10
-0.050, -3.006e-10
-0.049, -4.411e-10
-0.048, -4.285e-10
-0.047, -5.222e-10
-0.046, -6.036e-10
-0.045, -6.088e-10
-0.044, -7.594e-10
-0.043, -7.555e-10
-0.042, -8.592e-10
-0.041, -9.557e-10
-0.040, -9.642e-10
-0.039, -1.128e-9
-0.038, -1.136e-9
-0.037, -1.248e-9
-0.036, -1.358e-9
-0.035, -1.378e-9
-0.034, -1.553e-9
-0.033, -1.580e-9
-0.032, -1.703e-9
-0.031, -1.827e-9
-0.030, -1.866e-9
-0.029, -2.049e-9
-0.028, -2.097e-9
-0.027, -2.233e-9
-0.026, -2.372e-9
-0.025, -2.432e-9
-0.024, -2.626e-9
-0.023, -2.686e-9
-0.022, -2.843e-9
-0.021, -2.992e-9
-0.020, -3.077e-9
-0.019, -3.288e-9
-0.018, -3.363e-9
-0.017, -3.536e-9
-0.016, -3.701e-9
-0.015, -3.800e-9
-0.014, -4.030e-9
-0.013, -4.127e-9
-0.012, -4.331e-9
-0.011, -4.511e-9
-0.010, -4.628e-9
-0.009, -4.884e-9
-0.008, -4.995e-9
-0.007, -5.210e-9
-0.006, -5.416e-9
-0.005, -5.548e-9
-0.004, -5.829e-9
-0.003, -5.951e-9
-0.002, -6.188e-9
-0.001, -6.418e-9
-0.000, -6.627e-9
0.001, -6.906e-9
0.002, -7.039e-9
0.003, -7.292e-9
0.004, -7.533e-9
0.005, -7.694e-9
0.006, -7.999e-9
0.007, -8.169e-9
0.008, -8.428e-9
0.009, -8.690e-9
0.010, -8.860e-9
0.011, -9.175e-9
0.012, -9.355e-9
0.013, -9.626e-9
0.014, -9.891e-9
0.015, -1.008e-8
0.016, -1.040e-8
0.017, -1.058e-8
0.018, -1.085e-8
0.019, -1.111e-8
0.020, -1.131e-8
0.021, -1.162e-8
0.022, -1.180e-8
0.023, -1.207e-8
0.024, -1.232e-8
0.025, -1.251e-8
0.026, -1.282e-8
0.027, -1.299e-8
0.028, -1.326e-8
0.029, -1.349e-8
0.030, -1.366e-8
0.031, -1.396e-8
0.032, -1.409e-8
0.033, -1.435e-8
0.034, -1.456e-8
0.035, -1.471e-8
0.036, -1.499e-8
0.037, -1.510e-8
0.038, -1.534e-8
0.039, -1.553e-8
0.040, -1.564e-8
0.041, -1.589e-8
0.042, -1.598e-8
0.043, -1.617e-8
0.044, -1.634e-8
0.045, -1.642e-8
0.046, -1.663e-8
0.047, -1.670e-8
0.048, -1.684e-8
0.049, -1.698e-8
0.050, -1.704e-8
0.051, -1.721e-8
0.052, -1.725e-8
0.053, -1.737e-8
0.054, -1.746e-8
0.055, -1.748e-8
0.056, -1.762e-8
0.057, -1.762e-8
0.058, -1.770e-8
0.059, -1.777e-8
0.060, -1.777e-8
0.061, -1.786e-8
0.062, -1.783e-8
0.063, -1.790e-8
0.064, -1.793e-8
0.065, -1.790e-8
0.066, -1.798e-8
0.067, -1.791e-8
0.068, -1.795e-8
0.069, -1.794e-8
0.070, -1.789e-8
0.071, -1.795e-8
0.072, -1.786e-8
0.073, -1.788e-8
0.074, -1.786e-8
0.075, -1.778e-8
0.076, -1.783e-8
0.077, -1.772e-8
0.078, -1.772e-8
0.079, -1.769e-8
0.080, -1.758e-8
0.081, -1.762e-8
0.082, -1.750e-8
0.083, -1.748e-8
0.084, -1.744e-8
0.085, -1.732e-8
0.086, -1.735e-8
0.087, -1.722e-8
0.088, -1.719e-8
0.089, -1.714e-8
0.090, -1.703e-8
0.091, -1.704e-8
0.092, -1.690e-8
0.093, -1.687e-8
0.094, -1.681e-8
0.095, -1.670e-8
0.096, -1.671e-8
0.097, -1.657e-8
0.098, -1.654e-8
0.099, -1.647e-8
0.100, -1.636e-8
0.101, -1.636e-8
0.102, -1.622e-8
0.103, -1.620e-8
0.104, -1.613e-8
0.105, -1.601e-8
0.106, -1.602e-8
0.107, -1.587e-8
0.108, -1.585e-8
0.109, -1.579e-8
0.110, -1.567e-8
0.111, -1.568e-8
0.112, -1.553e-8
0.113, -1.551e-8
0.114, -1.545e-8
0.115, -1.534e-8
0.116, -1.535e-8
0.117, -1.521e-8
0.118, -1.519e-8
0.119, -1.513e-8
0.120, -1.501e-8
0.121, -1.503e-8
0.122, -1.489e-8
0.123, -1.488e-8
0.124, -1.483e-8
0.125, -1.471e-8
0.126, -1.474e-8
0.127, -1.460e-8
0.128, -1.459e-8
0.129, -1.454e-8
0.130, -1.444e-8
0.131, -1.446e-8
0.132, -1.433e-8
0.133, -1.432e-8
0.134, -1.427e-8
0.135, -1.418e-8
0.136, -1.420e-8
0.137, -1.408e-8
0.138, -1.407e-8
0.139, -1.403e-8
0.140, -1.394e-8
0.141, -1.397e-8
0.142, -1.384e-8
0.143, -1.385e-8
0.144, -1.380e-8
0.145, -1.371e-8
0.146, -1.375e-8
0.147, -1.363e-8
0.148, -1.364e-8
0.149, -1.359e-8
0.150, -1.350e-8
0.151, -1.355e-8
0.152, -1.343e-8
0.153, -1.344e-8
0.154, -1.341e-8
0.155, -1.332e-8
0.156, -1.337e-8
0.157, -1.325e-8
0.158, -1.326e-8
0.159, -1.323e-8
0.160, -1.315e-8
0.161, -1.319e-8
0.162, -1.309e-8
0.163, -1.310e-8
0.164, -1.307e-8
0.165, -1.299e-8
0.166, -1.304e-8
0.167, -1.294e-8
0.168, -1.295e-8
0.169, -1.292e-8
0.170, -1.285e-8
0.171, -1.290e-8
0.172, -1.280e-8
0.173, -1.281e-8
0.174, -1.279e-8
0.175, -1.272e-8
0.176, -1.277e-8
0.177, -1.267e-8
0.178, -1.269e-8
0.179, -1.267e-8
0.180, -1.260e-8
0.181, -1.265e-8
0.182, -1.255e-8
0.183, -1.258e-8
0.184, -1.256e-8
0.185, -1.249e-8
0.186, -1.255e-8
0.187, -1.245e-8
0.188, -1.248e-8
0.189, -1.245e-8
0.190, -1.239e-8
0.191, -1.245e-8
0.192, -1.235e-8
0.193, -1.239e-8
0.194, -1.237e-8
0.195, -1.230e-8
0.196, -1.237e-8
0.197, -1.227e-8
0.198, -1.230e-8
0.199, -1.228e-8
0.200, -1.222e-8
0.201, -1.228e-8
0.202, -1.219e-8
0.203, -1.222e-8
0.204, -1.221e-8
0.205, -1.215e-8
0.206, -1.222e-8
0.207, -1.213e-8
0.208, -1.216e-8
0.209, -1.214e-8
0.210, -1.209e-8
0.211, -1.215e-8
0.212, -1.206e-8
0.213, -1.210e-8
0.214, -1.208e-8
0.215, -1.203e-8
0.216, -1.209e-8
0.217, -1.201e-8
0.218, -1.205e-8
0.219, -1.203e-8
0.220, -1.198e-8
0.221, -1.204e-8
0.222, -1.196e-8
0.223, -1.200e-8
0.224, -1.199e-8
0.225, -1.194e-8
0.226, -1.200e-8
0.227, -1.192e-8
0.228, -1.196e-8
0.229, -1.195e-8
0.230, -1.190e-8
0.231, -1.197e-8
0.232, -1.189e-8
0.233, -1.193e-8
0.234, -1.192e-8
0.235, -1.187e-8
0.236, -1.194e-8
0.237, -1.185e-8
0.238, -1.190e-8
0.239, -1.189e-8
0.240, -1.184e-8
0.241, -1.191e-8
0.242, -1.183e-8
0.243, -1.188e-8
0.244, -1.187e-8
0.245, -1.182e-8
0.246, -1.189e-8
0.247, -1.181e-8
0.248, -1.186e-8
0.249, -1.185e-8
0.250, -1.181e-8
0.251, -1.188e-8
0.252, -1.180e-8
0.253, -1.185e-8
0.254, -1.184e-8
0.255, -1.180e-8
0.256, -1.187e-8
0.257, -1.180e-8
0.258, -1.184e-8
0.259, -1.184e-8
0.260, -1.180e-8
0.261, -1.187e-8
0.262, -1.179e-8
0.263, -1.185e-8
0.264, -1.184e-8
0.265, -1.180e-8
0.266, -1.188e-8
0.267, -1.179e-8
0.268, -1.186e-8
0.269, -1.185e-8
0.270, -1.181e-8
0.271, -1.189e-8
0.272, -1.181e-8
0.273, -1.187e-8
0.274, -1.186e-8
0.275, -1.182e-8
0.276, -1.191e-8
0.277, -1.183e-8
0.278, -1.189e-8
0.279, -1.189e-8
0.280, -1.185e-8
0.281, -1.193e-8
0.282, -1.185e-8
0.283, -1.191e-8
0.284, -1.191e-8
0.285, -1.187e-8
0.286, -1.196e-8
0.287, -1.189e-8
0.288, -1.195e-8
0.289, -1.195e-8
0.290, -1.192e-8
0.291, -1.199e-8
0.292, -1.193e-8
0.293, -1.198e-8
0.294, -1.199e-8
0.295, -1.196e-8
0.296, -1.204e-8
0.297, -1.197e-8
0.298, -1.204e-8
0.299, -1.204e-8
0.300, -1.144e-8
0.299, -1.052e-8
0.298, -1.010e-8
0.297, -9.985e-9
0.296, -9.845e-9
0.295, -9.693e-9
0.294, -9.669e-9
0.293, -9.503e-9
0.292, -9.478e-9
0.291, -9.395e-9
0.290, -9.288e-9
0.289, -9.295e-9
0.288, -9.158e-9
0.287, -9.155e-9
0.286, -9.089e-9
0.285, -9.001e-9
0.284, -9.020e-9
0.283, -8.895e-9
0.282, -8.905e-9
0.281, -8.844e-9
0.280, -8.772e-9
0.279, -8.798e-9
0.278, -8.684e-9
0.277, -8.702e-9
0.276, -8.645e-9
0.275, -8.581e-9
0.274, -8.617e-9
0.273, -8.502e-9
0.272, -8.531e-9
0.271, -8.480e-9
0.270, -8.418e-9
0.269, -8.457e-9
0.268, -8.347e-9
0.267, -8.385e-9
0.266, -8.338e-9
0.265, -8.275e-9
0.264, -8.321e-9
0.263, -8.211e-9
0.262, -8.249e-9
0.261, -8.209e-9
0.260, -8.147e-9
0.259, -8.198e-9
0.258, -8.090e-9
0.257, -8.124e-9
0.256, -8.088e-9
0.255, -8.028e-9
0.254, -8.082e-9
0.253, -7.979e-9
0.252, -8.015e-9
0.251, -7.983e-9
0.250, -7.927e-9
0.249, -7.977e-9
0.248, -7.878e-9
0.247, -7.915e-9
0.246, -7.883e-9
0.245, -7.832e-9
0.244, -7.879e-9
0.243, -7.783e-9
0.242, -7.823e-9
0.241, -7.786e-9
0.240, -7.736e-9
0.239, -7.791e-9
0.238, -7.695e-9
0.237, -7.735e-9
0.236, -7.698e-9
0.235, -7.651e-9
0.234, -7.704e-9
0.233, -7.604e-9
0.232, -7.651e-9
0.231, -7.611e-9
0.230, -7.566e-9
0.229, -7.620e-9
0.228, -7.518e-9
0.227, -7.572e-9
0.226, -7.532e-9
0.225, -7.486e-9
0.224, -7.540e-9
0.223, -7.444e-9
0.222, -7.493e-9
0.221, -7.458e-9
0.220, -7.409e-9
0.219, -7.467e-9
0.218, -7.369e-9
0.217, -7.413e-9
0.216, -7.381e-9
0.215, -7.335e-9
0.214, -7.392e-9
0.213, -7.293e-9
0.212, -7.340e-9
0.211, -7.309e-9
0.210, -7.258e-9
0.209, -7.314e-9
0.208, -7.216e-9
0.207, -7.261e-9
0.206, -7.229e-9
0.205, -7.182e-9
0.204, -7.228e-9
0.203, -7.138e-9
0.202, -7.185e-9
0.201, -7.148e-9
0.200, -7.108e-9
0.199, -7.158e-9
0.198, -7.062e-9
0.197, -7.110e-9
0.196, -7.072e-9
0.195, -7.028e-9
0.194, -7.078e-9
0.193, -6.984e-9
0.192, -7.031e-9
0.191, -6.991e-9
0.190, -6.950e-9
0.189, -7.005e-9
0.188, -6.904e-9
0.187, -6.953e-9
0.186, -6.914e-9
0.185, -6.871e-9
0.184, -6.928e-9
0.183, -6.825e-9
0.182, -6.877e-9
0.181, -6.835e-9
0.180, -6.788e-9
0.179, -6.841e-9
0.178, -6.744e-9
0.177, -6.788e-9
0.176, -6.750e-9
0.175, -6.702e-9
0.174, -6.756e-9
0.173, -6.657e-9
0.172, -6.698e-9
0.171, -6.661e-9
0.170, -6.617e-9
0.169, -6.663e-9
0.168, -6.563e-9
0.167, -6.603e-9
0.166, -6.564e-9
0.165, -6.516e-9
0.164, -6.562e-9
0.163, -6.464e-9
0.162, -6.506e-9
0.161, -6.460e-9
0.160, -6.415e-9
0.159, -6.456e-9
0.158, -6.354e-9
0.157, -6.396e-9
0.156, -6.346e-9
0.155, -6.296e-9
0.154, -6.338e-9
0.153, -6.231e-9
0.152, -6.275e-9
0.151, -6.220e-9
0.150, -6.173e-9
0.149, -6.213e-9
0.148, -6.099e-9
0.147, -6.143e-9
0.146, -6.084e-9
0.145, -6.035e-9
0.144, -6.073e-9
0.143, -5.956e-9
0.142, -5.996e-9
0.141, -5.932e-9
0.140, -5.872e-9
0.139, -5.909e-9
0.138, -5.790e-9
0.137, -5.822e-9
0.136, -5.758e-9
0.135, -5.692e-9
0.134, -5.723e-9
0.133, -5.604e-9
0.132, -5.623e-9
0.131, -5.560e-9
0.130, -5.490e-9
0.129, -5.512e-9
0.128, -5.381e-9
0.127, -5.401e-9
0.126, -5.329e-9
0.125, -5.260e-9
0.124, -5.270e-9
0.123, -5.140e-9
0.122, -5.149e-9
0.121, -5.068e-9
0.120, -4.991e-9
0.119, -4.989e-9
0.118, -4.855e-9
0.117, -4.855e-9
0.116, -4.762e-9
0.115, -4.676e-9
0.114, -4.672e-9
0.113, -4.521e-9
0.112, -4.516e-9
0.111, -4.412e-9
0.110, -4.322e-9
0.109, -4.303e-9
0.108, -4.139e-9
0.107, -4.124e-9
0.106, -4.008e-9
0.105, -3.900e-9
0.104, -3.868e-9
0.103, -3.693e-9
0.102, -3.664e-9
0.101, -3.536e-9
0.100, -3.418e-9
0.099, -3.387e-9
0.098, -3.191e-9
0.097, -3.146e-9
0.096, -3.004e-9
0.095, -2.863e-9
0.094, -2.810e-9
0.093, -2.605e-9
0.092, -2.540e-9
0.091, -2.388e-9
0.090, -2.230e-9
0.089, -2.153e-9
0.088, -1.934e-9
0.087, -1.850e-9
0.086, -1.679e-9
0.085, -1.505e-9
0.084, -1.408e-9
0.083, -1.177e-9
0.082, -1.072e-9
0.081, -8.831e-10
0.080, -6.949e-10
0.079, -5.753e-10
0.078, -3.199e-10
0.077, -1.957e-10
0.076, 1.912e-11
0.075, 2.220e-10
0.074, 3.609e-10
0.073, 6.348e-10
0.072, 7.728e-10
0.071, 1.011e-9
0.070, 1.233e-9
0.069, 1.383e-9
0.068, 1.688e-9
0.067, 1.828e-9
0.066, 2.085e-9
0.065, 2.324e-9
0.064, 2.493e-9
0.063, 2.798e-9
0.062, 2.957e-9
0.061, 3.218e-9
0.060, 3.478e-9
0.059, 3.649e-9
0.058, 3.973e-9
0.057, 4.148e-9
0.056, 4.410e-9
0.055, 4.675e-9
0.054, 4.849e-9
0.053, 5.178e-9
0.052, 5.358e-9
0.051, 5.636e-9
0.050, 5.903e-9
0.049, 6.080e-9
0.048, 6.391e-9
0.047, 6.575e-9
0.046, 6.833e-9
0.045, 7.091e-9
0.044, 7.276e-9
0.043, 7.577e-9
0.042, 7.745e-9
0.041, 7.998e-9
0.040, 8.236e-9
0.039, 8.412e-9
0.038, 8.702e-9
0.037, 8.857e-9
0.036, 9.098e-9
0.035, 9.308e-9
0.034, 9.457e-9
0.033, 9.722e-9
0.032, 9.843e-9
0.031, 1.006e-8
0.030, 1.025e-8
0.029, 1.036e-8
0.028, 1.061e-8
0.027, 1.070e-8
0.026, 1.089e-8
0.025, 1.106e-8
0.024, 1.113e-8
0.023, 1.135e-8
0.022, 1.140e-8
0.021, 1.155e-8
0.020, 1.169e-8
0.019, 1.173e-8
0.018, 1.191e-8
0.017, 1.194e-8
0.016, 1.206e-8
0.015, 1.216e-8
0.014, 1.216e-8
0.013, 1.231e-8
0.012, 1.231e-8
0.011, 1.238e-8
0.010, 1.246e-8
0.009, 1.243e-8
0.008, 1.255e-8
0.007, 1.253e-8
0.006, 1.257e-8
0.005, 1.261e-8
0.004, 1.257e-8
0.003, 1.265e-8
0.002, 1.260e-8
0.001, 1.263e-8
0.000, 1.270e-8
-0.001, 1.263e-8
-0.002, 1.267e-8
-0.003, 1.258e-8
-0.004, 1.259e-8
-0.005, 1.257e-8
-0.006, 1.249e-8
-0.007, 1.253e-8
-0.008, 1.243e-8
-0.009, 1.243e-8
-0.010, 1.239e-8
-0.011, 1.230e-8
-0.012, 1.234e-8
-0.013, 1.223e-8
-0.014, 1.221e-8
-0.015, 1.217e-8
-0.016, 1.206e-8
-0.017, 1.209e-8
-0.018, 1.196e-8
-0.019, 1.194e-8
-0.020, 1.189e-8
-0.021, 1.177e-8
-0.022, 1.179e-8
-0.023, 1.166e-8
-0.024, 1.163e-8
-0.025, 1.158e-8
-0.026, 1.146e-8
-0.027, 1.147e-8
-0.028, 1.134e-8
-0.029, 1.130e-8
-0.030, 1.125e-8
-0.031, 1.113e-8
-0.032, 1.114e-8
-0.033, 1.100e-8
-0.034, 1.097e-8
-0.035, 1.092e-8
-0.036, 1.080e-8
-0.037, 1.081e-8
-0.038, 1.068e-8
-0.039, 1.065e-8
-0.040, 1.059e-8
-0.041, 1.047e-8
-0.042, 1.049e-8
-0.043, 1.035e-8
-0.044, 1.033e-8
-0.045, 1.027e-8
-0.046, 1.015e-8
-0.047, 1.017e-8
-0.048, 1.003e-8
-0.049, 1.002e-8
-0.050, 9.965e-9
-0.051, 9.853e-9
-0.052, 9.876e-9
-0.053, 9.740e-9
-0.054, 9.724e-9
-0.055, 9.675e-9
-0.056, 9.564e-9
-0.057, 9.590e-9
-0.058, 9.462e-9
-0.059, 9.447e-9
-0.060, 9.402e-9
-0.061, 9.294e-9
-0.062, 9.322e-9
-0.063, 9.199e-9
-0.064, 9.186e-9
-0.065, 9.148e-9
-0.066, 9.039e-9
-0.067, 9.073e-9
-0.068, 8.954e-9
-0.069, 8.942e-9
-0.070, 8.909e-9
-0.071, 8.807e-9
-0.072, 8.839e-9
-0.073, 8.723e-9
-0.074, 8.716e-9
-0.075, 8.685e-9
-0.076, 8.590e-9
-0.077, 8.626e-9
-0.078, 8.508e-9
-0.079, 8.510e-9
-0.080, 8.471e-9
-0.081, 8.380e-9
-0.082, 8.422e-9
-0.083, 8.308e-9
-0.084, 8.316e-9
-0.085, 8.283e-9
-0.086, 8.197e-9
-0.087, 8.240e-9
-0.088, 8.132e-9
-0.089, 8.144e-9
-0.090, 8.115e-9
-0.091, 8.026e-9
-0.092, 8.075e-9
-0.093, 7.964e-9
-0.094, 7.975e-9
-0.095, 7.953e-9
-0.096, 7.869e-9
-0.097, 7.921e-9
-0.098, 7.814e-9
-0.099, 7.826e-9
-0.100, 7.806e-9
-0.101, 7.725e-9
-0.102, 7.781e-9
-0.103, 7.678e-9
-0.104, 7.691e-9
-0.105, 7.676e-9
-0.106, 7.589e-9
-0.107, 7.646e-9
-0.108, 7.550e-9
-0.109, 7.563e-9
-0.110, 7.550e-9
-0.111, 7.470e-9
-0.112, 7.527e-9
-0.113, 7.432e-9
-0.114, 7.447e-9
-0.115, 7.432e-9
-0.116, 7.359e-9
-0.117, 7.415e-9
-0.118, 7.321e-9
-0.119, 7.342e-9
-0.120, 7.326e-9
-0.121, 7.257e-9
-0.122, 7.313e-9
-0.123, 7.220e-9
-0.124, 7.245e-9
-0.125, 7.227e-9
-0.126, 7.160e-9
-0.127, 7.223e-9
-0.128, 7.130e-9
-0.129, 7.159e-9
-0.130, 7.144e-9
-0.131, 7.073e-9
-0.132, 7.139e-9
-0.133, 7.044e-9
-0.134, 7.072e-9
-0.135, 7.063e-9
-0.136, 6.993e-9
-0.137, 7.060e-9
-0.138, 6.965e-9
-0.139, 6.993e-9
-0.140, 6.987e-9
-0.141, 6.918e-9
-0.142, 6.985e-9
-0.143, 6.893e-9
-0.144, 6.923e-9
-0.145, 6.915e-9
-0.146, 6.847e-9
-0.147, 6.914e-9
-0.148, 6.830e-9
-0.149, 6.857e-9
-0.150, 6.852e-9
-0.151, 6.787e-9
-0.152, 6.853e-9
-0.153, 6.771e-9
-0.154, 6.801e-9
-0.155, 6.793e-9
-0.156, 6.734e-9
-0.157, 6.795e-9
-0.158, 6.712e-9
-0.159, 6.748e-9
-0.160, 6.738e-9
-0.161, 6.681e-9
-0.162, 6.743e-9
-0.163, 6.662e-9
-0.164, 6.697e-9
-0.165, 6.689e-9
-0.166, 6.629e-9
-0.167, 6.702e-9
-0.168, 6.615e-9
-0.169, 6.653e-9
-0.170, 6.644e-9
-0.171, 6.585e-9
-0.172, 6.656e-9
-0.173, 6.567e-9
-0.174, 6.608e-9
-0.175, 6.604e-9
-0.176, 6.543e-9
-0.177, 6.618e-9
-0.178, 6.531e-9
-0.179, 6.573e-9
-0.180, 6.570e-9
-0.181, 6.506e-9
-0.182, 6.582e-9
-0.183, 6.499e-9
-0.184, 6.538e-9
-0.185, 6.539e-9
-0.186, 6.477e-9
-0.187, 6.549e-9
-0.188, 6.472e-9
-0.189, 6.506e-9
-0.190, 6.504e-9
-0.191, 6.450e-9
-0.192, 6.522e-9
-0.193, 6.446e-9
-0.194, 6.483e-9
-0.195, 6.479e-9
-0.196, 6.426e-9
-0.197, 6.496e-9
-0.198, 6.420e-9
-0.199, 6.459e-9
