Mar. 16, 2023   08:53:38
Cyclic Voltammetry
File: c:/users/oliverrz/desktop/electrolab/data/2023_03_16\fcmeoh_macros_250_um\electrode1_cv_200mvs_250_um.bin
Data Source:  Experiment
Instrument Model:  CHI760E
Header: CV
Note: 

Init E (V) = -0.2
High E (V) = 0.3
Low E (V) = -0.2
Final E (V) = -0.2
Init P/N = P
Scan Rate (V/s) = 0.2
Segment = 3
Sample Interval (V) = 0.001
Quiet Time (sec) = 2
Sensitivity (A/V) = 1e-7

Results:

Channel 1:
Segment 1:
Ep = 0.111V
ip = -2.363e-8A
Ah = -7.240e-9C

Segment 2:
Ep = 0.051V
ip = 2.132e-8A
Ah = 6.253e-9C

Segment 3:

Potential/V, Current/A

-0.200, 3.395e-9
-0.199, 2.430e-9
-0.198, 2.522e-9
-0.197, 2.381e-9
-0.196, 2.135e-9
-0.195, 2.231e-9
-0.194, 2.274e-9
-0.193, 1.983e-9
-0.192, 2.012e-9
-0.191, 2.126e-9
-0.190, 1.937e-9
-0.189, 1.810e-9
-0.188, 1.993e-9
-0.187, 1.892e-9
-0.186, 1.696e-9
-0.185, 1.797e-9
-0.184, 1.858e-9
-0.183, 1.610e-9
-0.182, 1.631e-9
-0.181, 1.781e-9
-0.180, 1.573e-9
-0.179, 1.471e-9
-0.178, 1.666e-9
-0.177, 1.549e-9
-0.176, 1.378e-9
-0.175, 1.501e-9
-0.174, 1.544e-9
-0.173, 1.313e-9
-0.172, 1.342e-9
-0.171, 1.476e-9
-0.170, 1.319e-9
-0.169, 1.174e-9
-0.168, 1.398e-9
-0.167, 1.300e-9
-0.166, 1.100e-9
-0.165, 1.240e-9
-0.164, 1.285e-9
-0.163, 1.065e-9
-0.162, 1.100e-9
-0.161, 1.226e-9
-0.160, 1.076e-9
-0.159, 9.573e-10
-0.158, 1.151e-9
-0.157, 1.075e-9
-0.156, 8.674e-10
-0.155, 1.027e-9
-0.154, 1.064e-9
-0.153, 8.337e-10
-0.152, 8.766e-10
-0.151, 1.034e-9
-0.150, 8.302e-10
-0.149, 7.601e-10
-0.148, 9.350e-10
-0.147, 8.706e-10
-0.146, 6.771e-10
-0.145, 8.189e-10
-0.144, 8.741e-10
-0.143, 6.414e-10
-0.142, 6.668e-10
-0.141, 8.507e-10
-0.140, 6.418e-10
-0.139, 5.650e-10
-0.138, 7.591e-10
-0.137, 6.759e-10
-0.136, 4.853e-10
-0.135, 6.462e-10
-0.134, 6.818e-10
-0.133, 4.810e-10
-0.132, 4.987e-10
-0.131, 6.783e-10
-0.130, 4.825e-10
-0.129, 3.856e-10
-0.128, 5.882e-10
-0.127, 5.219e-10
-0.126, 3.085e-10
-0.125, 4.956e-10
-0.124, 5.135e-10
-0.123, 3.123e-10
-0.122, 3.629e-10
-0.121, 5.097e-10
-0.120, 3.361e-10
-0.119, 2.537e-10
-0.118, 4.294e-10
-0.117, 3.811e-10
-0.116, 1.664e-10
-0.115, 3.472e-10
-0.114, 3.888e-10
-0.113, 1.680e-10
-0.112, 2.201e-10
-0.111, 3.839e-10
-0.110, 1.804e-10
-0.109, 1.291e-10
-0.108, 3.097e-10
-0.107, 2.397e-10
-0.106, 5.515e-11
-0.105, 2.039e-10
-0.104, 2.628e-10
-0.103, 4.344e-11
-0.102, 7.031e-11
-0.101, 2.628e-10
-0.100, 6.194e-11
-0.099, 2.165e-13
-0.098, 1.912e-10
-0.097, 1.157e-10
-0.096, -5.777e-11
-0.095, 1.027e-10
-0.094, 1.202e-10
-0.093, -6.043e-11
-0.092, -3.828e-11
-0.091, 1.366e-10
-0.090, -5.206e-11
-0.089, -1.325e-10
-0.088, 7.740e-11
-0.087, 1.055e-11
-0.086, -2.035e-10
-0.085, -2.048e-12
-0.084, 1.006e-11
-0.083, -1.786e-10
-0.082, -1.389e-10
-0.081, 2.973e-12
-0.080, -1.627e-10
-0.079, -2.382e-10
-0.078, -5.560e-11
-0.077, -1.130e-10
-0.076, -3.201e-10
-0.075, -1.360e-10
-0.074, -9.981e-11
-0.073, -3.137e-10
-0.072, -2.666e-10
-0.071, -9.961e-11
-0.070, -3.047e-10
-0.069, -3.586e-10
-0.068, -1.825e-10
-0.067, -2.410e-10
-0.066, -4.371e-10
-0.065, -2.800e-10
-0.064, -2.374e-10
-0.063, -4.417e-10
-0.062, -4.121e-10
-0.061, -2.373e-10
-0.060, -4.389e-10
-0.059, -5.077e-10
-0.058, -3.093e-10
-0.057, -4.091e-10
-0.056, -5.755e-10
-0.055, -4.207e-10
-0.054, -3.981e-10
-0.053, -5.909e-10
-0.052, -5.695e-10
-0.051, -4.217e-10
-0.050, -5.860e-10
-0.049, -6.959e-10
-0.048, -4.754e-10
-0.047, -5.732e-10
-0.046, -7.782e-10
-0.045, -6.050e-10
-0.044, -5.828e-10
-0.043, -7.993e-10
-0.042, -7.546e-10
-0.041, -6.324e-10
-0.040, -7.972e-10
-0.039, -9.037e-10
-0.038, -7.138e-10
-0.037, -8.058e-10
-0.036, -1.003e-9
-0.035, -8.585e-10
-0.034, -8.167e-10
-0.033, -1.067e-9
-0.032, -1.011e-9
-0.031, -8.952e-10
-0.030, -1.090e-9
-0.029, -1.180e-9
-0.028, -1.004e-9
-0.027, -1.122e-9
-0.026, -1.307e-9
-0.025, -1.199e-9
-0.024, -1.152e-9
-0.023, -1.407e-9
-0.022, -1.379e-9
-0.021, -1.258e-9
-0.020, -1.463e-9
-0.019, -1.579e-9
-0.018, -1.400e-9
-0.017, -1.548e-9
-0.016, -1.731e-9
-0.015, -1.626e-9
-0.014, -1.631e-9
-0.013, -1.894e-9
-0.012, -1.864e-9
-0.011, -1.780e-9
-0.010, -1.986e-9
-0.009, -2.136e-9
-0.008, -1.961e-9
-0.007, -2.116e-9
-0.006, -2.350e-9
-0.005, -2.248e-9
-0.004, -2.279e-9
-0.003, -2.550e-9
-0.002, -2.535e-9
-0.001, -2.498e-9
-0.000, -2.825e-9
0.001, -2.902e-9
0.002, -2.770e-9
0.003, -2.935e-9
0.004, -3.203e-9
0.005, -3.128e-9
0.006, -3.169e-9
0.007, -3.493e-9
0.008, -3.509e-9
0.009, -3.476e-9
0.010, -3.763e-9
0.011, -3.932e-9
0.012, -3.844e-9
0.013, -4.061e-9
0.014, -4.344e-9
0.015, -4.336e-9
0.016, -4.394e-9
0.017, -4.754e-9
0.018, -4.827e-9
0.019, -4.827e-9
0.020, -5.160e-9
0.021, -5.373e-9
0.022, -5.317e-9
0.023, -5.599e-9
0.024, -5.903e-9
0.025, -5.934e-9
0.026, -6.089e-9
0.027, -6.464e-9
0.028, -6.592e-9
0.029, -6.646e-9
0.030, -6.996e-9
0.031, -7.325e-9
0.032, -7.277e-9
0.033, -7.618e-9
0.034, -7.991e-9
0.035, -8.046e-9
0.036, -8.267e-9
0.037, -8.692e-9
0.038, -8.872e-9
0.039, -9.021e-9
0.040, -9.382e-9
0.041, -9.732e-9
0.042, -9.807e-9
0.043, -1.015e-8
0.044, -1.058e-8
0.045, -1.070e-8
0.046, -1.093e-8
0.047, -1.146e-8
0.048, -1.166e-8
0.049, -1.182e-8
0.050, -1.229e-8
0.051, -1.267e-8
0.052, -1.279e-8
0.053, -1.319e-8
0.054, -1.363e-8
0.055, -1.381e-8
0.056, -1.408e-8
0.057, -1.461e-8
0.058, -1.486e-8
0.059, -1.506e-8
0.060, -1.555e-8
0.061, -1.593e-8
0.062, -1.605e-8
0.063, -1.651e-8
0.064, -1.695e-8
0.065, -1.713e-8
0.066, -1.743e-8
0.067, -1.793e-8
0.068, -1.819e-8
0.069, -1.838e-8
0.070, -1.884e-8
0.071, -1.924e-8
0.072, -1.932e-8
0.073, -1.974e-8
0.074, -2.018e-8
0.075, -2.030e-8
0.076, -2.058e-8
0.077, -2.108e-8
0.078, -2.123e-8
0.079, -2.142e-8
0.080, -2.182e-8
0.081, -2.214e-8
0.082, -2.220e-8
0.083, -2.252e-8
0.084, -2.292e-8
0.085, -2.297e-8
0.086, -2.316e-8
0.087, -2.359e-8
0.088, -2.367e-8
0.089, -2.378e-8
0.090, -2.411e-8
0.091, -2.433e-8
0.092, -2.431e-8
0.093, -2.454e-8
0.094, -2.482e-8
0.095, -2.482e-8
0.096, -2.489e-8
0.097, -2.522e-8
0.098, -2.525e-8
0.099, -2.520e-8
0.100, -2.547e-8
0.101, -2.559e-8
0.102, -2.548e-8
0.103, -2.566e-8
0.104, -2.582e-8
0.105, -2.572e-8
0.106, -2.572e-8
0.107, -2.593e-8
0.108, -2.590e-8
0.109, -2.576e-8
0.110, -2.593e-8
0.111, -2.601e-8
0.112, -2.576e-8
0.113, -2.586e-8
0.114, -2.599e-8
0.115, -2.579e-8
0.116, -2.574e-8
0.117, -2.588e-8
0.118, -2.574e-8
0.119, -2.560e-8
0.120, -2.568e-8
0.121, -2.568e-8
0.122, -2.542e-8
0.123, -2.544e-8
0.124, -2.553e-8
0.125, -2.527e-8
0.126, -2.517e-8
0.127, -2.529e-8
0.128, -2.513e-8
0.129, -2.490e-8
0.130, -2.500e-8
0.131, -2.493e-8
0.132, -2.465e-8
0.133, -2.465e-8
0.134, -2.470e-8
0.135, -2.444e-8
0.136, -2.429e-8
0.137, -2.439e-8
0.138, -2.422e-8
0.139, -2.397e-8
0.140, -2.406e-8
0.141, -2.399e-8
0.142, -2.366e-8
0.143, -2.369e-8
0.144, -2.371e-8
0.145, -2.343e-8
0.146, -2.331e-8
0.147, -2.338e-8
0.148, -2.322e-8
0.149, -2.296e-8
0.150, -2.303e-8
0.151, -2.300e-8
0.152, -2.267e-8
0.153, -2.267e-8
0.154, -2.273e-8
0.155, -2.244e-8
0.156, -2.232e-8
0.157, -2.241e-8
0.158, -2.222e-8
0.159, -2.202e-8
0.160, -2.206e-8
0.161, -2.202e-8
0.162, -2.175e-8
0.163, -2.173e-8
0.164, -2.181e-8
0.165, -2.152e-8
0.166, -2.141e-8
0.167, -2.154e-8
0.168, -2.135e-8
0.169, -2.112e-8
0.170, -2.124e-8
0.171, -2.117e-8
0.172, -2.092e-8
0.173, -2.091e-8
0.174, -2.099e-8
0.175, -2.074e-8
0.176, -2.063e-8
0.177, -2.074e-8
0.178, -2.061e-8
0.179, -2.038e-8
0.180, -2.050e-8
0.181, -2.047e-8
0.182, -2.018e-8
0.183, -2.023e-8
0.184, -2.030e-8
0.185, -2.006e-8
0.186, -1.999e-8
0.187, -2.010e-8
0.188, -1.997e-8
0.189, -1.975e-8
0.190, -1.988e-8
0.191, -1.988e-8
0.192, -1.961e-8
0.193, -1.963e-8
0.194, -1.976e-8
0.195, -1.949e-8
0.196, -1.944e-8
0.197, -1.957e-8
0.198, -1.944e-8
0.199, -1.926e-8
0.200, -1.938e-8
0.201, -1.937e-8
0.202, -1.915e-8
0.203, -1.916e-8
0.204, -1.930e-8
0.205, -1.907e-8
0.206, -1.901e-8
0.207, -1.916e-8
0.208, -1.903e-8
0.209, -1.885e-8
0.210, -1.901e-8
0.211, -1.898e-8
0.212, -1.877e-8
0.213, -1.882e-8
0.214, -1.893e-8
0.215, -1.873e-8
0.216, -1.867e-8
0.217, -1.883e-8
0.218, -1.872e-8
0.219, -1.854e-8
0.220, -1.870e-8
0.221, -1.869e-8
0.222, -1.847e-8
0.223, -1.855e-8
0.224, -1.866e-8
0.225, -1.845e-8
0.226, -1.842e-8
0.227, -1.857e-8
0.228, -1.848e-8
0.229, -1.832e-8
0.230, -1.848e-8
0.231, -1.850e-8
0.232, -1.826e-8
0.233, -1.834e-8
0.234, -1.849e-8
0.235, -1.826e-8
0.236, -1.825e-8
0.237, -1.841e-8
0.238, -1.830e-8
0.239, -1.817e-8
0.240, -1.831e-8
0.241, -1.835e-8
0.242, -1.813e-8
0.243, -1.821e-8
0.244, -1.836e-8
0.245, -1.815e-8
0.246, -1.812e-8
0.247, -1.832e-8
0.248, -1.820e-8
0.249, -1.805e-8
0.250, -1.825e-8
0.251, -1.825e-8
0.252, -1.805e-8
0.253, -1.814e-8
0.254, -1.829e-8
0.255, -1.810e-8
0.256, -1.807e-8
0.257, -1.827e-8
0.258, -1.818e-8
0.259, -1.802e-8
0.260, -1.822e-8
0.261, -1.823e-8
0.262, -1.802e-8
0.263, -1.815e-8
0.264, -1.829e-8
0.265, -1.808e-8
0.266, -1.809e-8
0.267, -1.826e-8
0.268, -1.819e-8
0.269, -1.805e-8
0.270, -1.824e-8
0.271, -1.827e-8
0.272, -1.806e-8
0.273, -1.818e-8
0.274, -1.835e-8
0.275, -1.814e-8
0.276, -1.816e-8
0.277, -1.834e-8
0.278, -1.825e-8
0.279, -1.814e-8
0.280, -1.831e-8
0.281, -1.836e-8
0.282, -1.819e-8
0.283, -1.827e-8
0.284, -1.845e-8
0.285, -1.825e-8
0.286, -1.826e-8
0.287, -1.848e-8
0.288, -1.838e-8
0.289, -1.826e-8
0.290, -1.849e-8
0.291, -1.849e-8
0.292, -1.834e-8
0.293, -1.844e-8
0.294, -1.860e-8
0.295, -1.844e-8
0.296, -1.843e-8
0.297, -1.864e-8
0.298, -1.859e-8
0.299, -1.844e-8
0.300, -1.567e-8
0.299, -1.326e-8
0.298, -1.253e-8
0.297, -1.222e-8
0.296, -1.207e-8
0.295, -1.159e-8
0.294, -1.137e-8
0.293, -1.136e-8
0.292, -1.106e-8
0.291, -1.078e-8
0.290, -1.080e-8
0.289, -1.065e-8
0.288, -1.034e-8
0.287, -1.029e-8
0.286, -1.033e-8
0.285, -1.001e-8
0.284, -9.889e-9
0.283, -9.987e-9
0.282, -9.787e-9
0.281, -9.534e-9
0.280, -9.665e-9
0.279, -9.569e-9
0.278, -9.295e-9
0.277, -9.335e-9
0.276, -9.369e-9
0.275, -9.126e-9
0.274, -9.036e-9
0.273, -9.147e-9
0.272, -9.005e-9
0.271, -8.779e-9
0.270, -8.916e-9
0.269, -8.869e-9
0.268, -8.588e-9
0.267, -8.664e-9
0.266, -8.755e-9
0.265, -8.468e-9
0.264, -8.438e-9
0.263, -8.550e-9
0.262, -8.418e-9
0.261, -8.243e-9
0.260, -8.349e-9
0.259, -8.347e-9
0.258, -8.090e-9
0.257, -8.132e-9
0.256, -8.250e-9
0.255, -7.985e-9
0.254, -7.948e-9
0.253, -8.106e-9
0.252, -7.937e-9
0.251, -7.791e-9
0.250, -7.933e-9
0.249, -7.889e-9
0.248, -7.672e-9
0.247, -7.722e-9
0.246, -7.829e-9
0.245, -7.600e-9
0.244, -7.534e-9
0.243, -7.713e-9
0.242, -7.574e-9
0.241, -7.385e-9
0.240, -7.563e-9
0.239, -7.527e-9
0.238, -7.293e-9
0.237, -7.378e-9
0.236, -7.451e-9
0.235, -7.251e-9
0.234, -7.194e-9
0.233, -7.353e-9
0.232, -7.221e-9
0.231, -7.036e-9
0.230, -7.192e-9
0.229, -7.201e-9
0.228, -6.936e-9
0.227, -7.032e-9
0.226, -7.135e-9
0.225, -6.886e-9
0.224, -6.868e-9
0.223, -7.013e-9
0.222, -6.881e-9
0.221, -6.730e-9
0.220, -6.850e-9
0.219, -6.865e-9
0.218, -6.612e-9
0.217, -6.689e-9
0.216, -6.797e-9
0.215, -6.564e-9
0.214, -6.521e-9
0.213, -6.702e-9
0.212, -6.529e-9
0.211, -6.393e-9
0.210, -6.537e-9
0.209, -6.504e-9
0.208, -6.276e-9
0.207, -6.358e-9
0.206, -6.439e-9
0.205, -6.210e-9
0.204, -6.148e-9
0.203, -6.345e-9
0.202, -6.179e-9
0.201, -6.015e-9
0.200, -6.165e-9
0.199, -6.142e-9
0.198, -5.898e-9
0.197, -5.985e-9
0.196, -6.044e-9
0.195, -5.837e-9
0.194, -5.770e-9
0.193, -5.929e-9
0.192, -5.763e-9
0.191, -5.603e-9
0.190, -5.727e-9
0.189, -5.726e-9
0.188, -5.431e-9
0.187, -5.538e-9
0.186, -5.595e-9
0.185, -5.359e-9
0.184, -5.298e-9
0.183, -5.445e-9
0.182, -5.262e-9
0.181, -5.110e-9
0.180, -5.202e-9
0.179, -5.184e-9
0.178, -4.911e-9
0.177, -4.971e-9
0.176, -5.033e-9
0.175, -4.774e-9
0.174, -4.708e-9
0.173, -4.843e-9
0.172, -4.628e-9
0.171, -4.471e-9
0.170, -4.563e-9
0.169, -4.516e-9
0.168, -4.222e-9
0.167, -4.267e-9
0.166, -4.297e-9
0.165, -4.038e-9
0.164, -3.922e-9
0.163, -4.058e-9
0.162, -3.831e-9
0.161, -3.620e-9
0.160, -3.718e-9
0.159, -3.629e-9
0.158, -3.316e-9
0.157, -3.361e-9
0.156, -3.339e-9
0.155, -3.063e-9
0.154, -2.925e-9
0.153, -3.007e-9
0.152, -2.773e-9
0.151, -2.525e-9
0.150, -2.578e-9
0.149, -2.473e-9
0.148, -2.106e-9
0.147, -2.129e-9
0.146, -2.081e-9
0.145, -1.742e-9
0.144, -1.602e-9
0.143, -1.632e-9
0.142, -1.342e-9
0.141, -1.090e-9
0.140, -1.062e-9
0.139, -9.462e-10
0.138, -5.365e-10
0.137, -4.821e-10
0.136, -4.246e-10
0.135, -2.518e-11
0.134, 1.710e-10
0.133, 1.584e-10
0.132, 5.348e-10
0.131, 8.120e-10
0.130, 8.739e-10
0.129, 1.092e-9
0.128, 1.530e-9
0.127, 1.619e-9
0.126, 1.767e-9
0.125, 2.162e-9
0.124, 2.455e-9
0.123, 2.479e-9
0.122, 2.878e-9
0.121, 3.250e-9
0.120, 3.337e-9
0.119, 3.606e-9
0.118, 4.086e-9
0.117, 4.228e-9
0.116, 4.430e-9
0.115, 4.882e-9
0.114, 5.189e-9
0.113, 5.309e-9
0.112, 5.730e-9
0.111, 6.153e-9
0.110, 6.294e-9
0.109, 6.574e-9
0.108, 7.127e-9
0.107, 7.285e-9
0.106, 7.523e-9
0.105, 8.053e-9
0.104, 8.347e-9
0.103, 8.544e-9
0.102, 9.001e-9
0.101, 9.414e-9
0.100, 9.614e-9
0.099, 9.888e-9
0.098, 1.045e-8
0.097, 1.068e-8
0.096, 1.086e-8
0.095, 1.142e-8
0.094, 1.172e-8
0.093, 1.187e-8
0.092, 1.236e-8
0.091, 1.273e-8
0.090, 1.291e-8
0.089, 1.324e-8
0.088, 1.372e-8
0.087, 1.392e-8
0.086, 1.412e-8
0.085, 1.460e-8
0.084, 1.493e-8
0.083, 1.498e-8
0.082, 1.541e-8
0.081, 1.579e-8
0.080, 1.588e-8
0.079, 1.617e-8
0.078, 1.661e-8
0.077, 1.673e-8
0.076, 1.689e-8
0.075, 1.727e-8
0.074, 1.750e-8
0.073, 1.755e-8
0.072, 1.784e-8
0.071, 1.818e-8
0.070, 1.816e-8
0.069, 1.835e-8
0.068, 1.873e-8
0.067, 1.871e-8
0.066, 1.881e-8
0.065, 1.913e-8
0.064, 1.924e-8
0.063, 1.921e-8
0.062, 1.941e-8
0.061, 1.962e-8
0.060, 1.956e-8
0.059, 1.962e-8
0.058, 1.990e-8
0.057, 1.984e-8
0.056, 1.978e-8
0.055, 2.005e-8
0.054, 2.005e-8
0.053, 1.991e-8
0.052, 2.006e-8
0.051, 2.018e-8
0.050, 2.001e-8
0.049, 2.004e-8
0.048, 2.018e-8
0.047, 2.008e-8
0.046, 1.994e-8
0.045, 2.011e-8
0.044, 2.009e-8
0.043, 1.985e-8
0.042, 1.994e-8
0.041, 2.001e-8
0.040, 1.975e-8
0.039, 1.974e-8
0.038, 1.985e-8
0.037, 1.966e-8
0.036, 1.950e-8
0.035, 1.962e-8
0.034, 1.951e-8
0.033, 1.928e-8
0.032, 1.930e-8
0.031, 1.934e-8
0.030, 1.905e-8
0.029, 1.897e-8
0.028, 1.909e-8
0.027, 1.885e-8
0.026, 1.867e-8
0.025, 1.878e-8
0.024, 1.864e-8
0.023, 1.838e-8
0.022, 1.838e-8
0.021, 1.839e-8
0.020, 1.813e-8
0.019, 1.801e-8
0.018, 1.810e-8
0.017, 1.789e-8
0.016, 1.765e-8
0.015, 1.779e-8
0.014, 1.763e-8
0.013, 1.735e-8
0.012, 1.740e-8
0.011, 1.738e-8
0.010, 1.708e-8
0.009, 1.702e-8
0.008, 1.708e-8
0.007, 1.687e-8
0.006, 1.665e-8
0.005, 1.675e-8
0.004, 1.665e-8
0.003, 1.634e-8
0.002, 1.638e-8
0.001, 1.641e-8
0.000, 1.620e-8
-0.001, 1.604e-8
-0.002, 1.612e-8
-0.003, 1.590e-8
-0.004, 1.570e-8
-0.005, 1.580e-8
-0.006, 1.569e-8
-0.007, 1.544e-8
-0.008, 1.546e-8
-0.009, 1.549e-8
-0.010, 1.520e-8
-0.011, 1.513e-8
-0.012, 1.524e-8
-0.013, 1.503e-8
-0.014, 1.482e-8
-0.015, 1.498e-8
-0.016, 1.485e-8
-0.017, 1.460e-8
-0.018, 1.465e-8
-0.019, 1.467e-8
-0.020, 1.442e-8
-0.021, 1.435e-8
-0.022, 1.447e-8
-0.023, 1.428e-8
-0.024, 1.408e-8
-0.025, 1.424e-8
-0.026, 1.414e-8
-0.027, 1.387e-8
-0.028, 1.396e-8
-0.029, 1.398e-8
-0.030, 1.373e-8
-0.031, 1.369e-8
-0.032, 1.380e-8
-0.033, 1.362e-8
-0.034, 1.344e-8
-0.035, 1.359e-8
-0.036, 1.353e-8
-0.037, 1.327e-8
-0.038, 1.336e-8
-0.039, 1.341e-8
-0.040, 1.314e-8
-0.041, 1.312e-8
-0.042, 1.326e-8
-0.043, 1.306e-8
-0.044, 1.293e-8
-0.045, 1.306e-8
-0.046, 1.299e-8
-0.047, 1.277e-8
-0.048, 1.284e-8
-0.049, 1.291e-8
-0.050, 1.267e-8
-0.051, 1.264e-8
-0.052, 1.281e-8
-0.053, 1.259e-8
-0.054, 1.245e-8
-0.055, 1.263e-8
-0.056, 1.256e-8
-0.057, 1.234e-8
-0.058, 1.242e-8
-0.059, 1.247e-8
-0.060, 1.228e-8
-0.061, 1.223e-8
-0.062, 1.240e-8
-0.063, 1.222e-8
-0.064, 1.209e-8
-0.065, 1.226e-8
-0.066, 1.221e-8
-0.067, 1.197e-8
-0.068, 1.210e-8
-0.069, 1.214e-8
-0.070, 1.192e-8
-0.071, 1.191e-8
-0.072, 1.207e-8
-0.073, 1.190e-8
-0.074, 1.178e-8
-0.075, 1.193e-8
-0.076, 1.192e-8
-0.077, 1.166e-8
-0.078, 1.180e-8
-0.079, 1.186e-8
-0.080, 1.164e-8
-0.081, 1.164e-8
-0.082, 1.181e-8
-0.083, 1.162e-8
-0.084, 1.153e-8
-0.085, 1.168e-8
-0.086, 1.165e-8
-0.087, 1.142e-8
-0.088, 1.155e-8
-0.089, 1.162e-8
-0.090, 1.141e-8
-0.091, 1.139e-8
-0.092, 1.161e-8
-0.093, 1.139e-8
-0.094, 1.130e-8
-0.095, 1.148e-8
-0.096, 1.143e-8
-0.097, 1.122e-8
-0.098, 1.136e-8
-0.099, 1.141e-8
-0.100, 1.124e-8
-0.101, 1.121e-8
-0.102, 1.140e-8
-0.103, 1.123e-8
-0.104, 1.112e-8
-0.105, 1.131e-8
-0.106, 1.127e-8
-0.107, 1.105e-8
-0.108, 1.121e-8
-0.109, 1.125e-8
-0.110, 1.107e-8
-0.111, 1.108e-8
-0.112, 1.125e-8
-0.113, 1.109e-8
-0.114, 1.099e-8
-0.115, 1.116e-8
-0.116, 1.115e-8
-0.117, 1.092e-8
-0.118, 1.107e-8
-0.119, 1.115e-8
-0.120, 1.094e-8
-0.121, 1.095e-8
-0.122, 1.114e-8
-0.123, 1.097e-8
-0.124, 1.090e-8
-0.125, 1.106e-8
-0.126, 1.103e-8
-0.127, 1.085e-8
-0.128, 1.099e-8
-0.129, 1.106e-8
-0.130, 1.086e-8
-0.131, 1.087e-8
-0.132, 1.108e-8
-0.133, 1.088e-8
-0.134, 1.081e-8
-0.135, 1.101e-8
-0.136, 1.097e-8
-0.137, 1.076e-8
-0.138, 1.093e-8
-0.139, 1.099e-8
-0.140, 1.082e-8
-0.141, 1.081e-8
-0.142, 1.101e-8
-0.143, 1.086e-8
-0.144, 1.076e-8
-0.145, 1.096e-8
-0.146, 1.093e-8
-0.147, 1.073e-8
-0.148, 1.090e-8
-0.149, 1.096e-8
-0.150, 1.077e-8
-0.151, 1.080e-8
-0.152, 1.098e-8
-0.153, 1.084e-8
-0.154, 1.075e-8
-0.155, 1.094e-8
-0.156, 1.093e-8
-0.157, 1.072e-8
-0.158, 1.088e-8
-0.159, 1.098e-8
-0.160, 1.077e-8
-0.161, 1.081e-8
-0.162, 1.100e-8
-0.163, 1.084e-8
-0.164, 1.077e-8
-0.165, 1.096e-8
-0.166, 1.094e-8
-0.167, 1.076e-8
-0.168, 1.091e-8
-0.169, 1.100e-8
-0.170, 1.080e-8
-0.171, 1.084e-8
-0.172, 1.105e-8
-0.173, 1.088e-8
-0.174, 1.080e-8
-0.175, 1.103e-8
-0.176, 1.098e-8
-0.177, 1.082e-8
-0.178, 1.097e-8
-0.179, 1.107e-8
-0.180, 1.088e-8
-0.181, 1.091e-8
-0.182, 1.110e-8
-0.183, 1.098e-8
-0.184, 1.088e-8
-0.185, 1.112e-8
-0.186, 1.106e-8
-0.187, 1.090e-8
-0.188, 1.109e-8
-0.189, 1.116e-8
-0.190, 1.097e-8
-0.191, 1.104e-8
-0.192, 1.122e-8
-0.193, 1.109e-8
-0.194, 1.099e-8
-0.195, 1.123e-8
-0.196, 1.121e-8
-0.197, 1.104e-8
-0.198, 1.119e-8
-0.199, 1.131e-8
