Mar. 16, 2023   08:59:04
Cyclic Voltammetry
File: c:/users/oliverrz/desktop/electrolab/data/2023_03_16\fcmeoh_macros_250_um\electrode5_cv_250mvs_250_um.bin
Data Source:  Experiment
Instrument Model:  CHI760E
Header: CV
Note: 

Init E (V) = -0.2
High E (V) = 0.3
Low E (V) = -0.2
Final E (V) = -0.2
Init P/N = P
Scan Rate (V/s) = 0.25
Segment = 3
Sample Interval (V) = 0.001
Quiet Time (sec) = 2
Sensitivity (A/V) = 1e-7

Results:

Channel 1:
Segment 1:
Ep = 0.079V
ip = -2.702e-8A
Ah = -6.928e-9C

Segment 2:
Ep = 0.015V
ip = 2.562e-8A
Ah = 6.309e-9C

Segment 3:

Potential/V, Current/A

-0.200, 2.591e-9
-0.199, 1.883e-9
-0.198, 1.883e-9
-0.197, 1.699e-9
-0.196, 1.514e-9
-0.195, 1.637e-9
-0.194, 1.730e-9
-0.193, 1.576e-9
-0.192, 1.422e-9
-0.191, 1.484e-9
-0.190, 1.607e-9
-0.189, 1.514e-9
-0.188, 1.299e-9
-0.187, 1.360e-9
-0.186, 1.545e-9
-0.185, 1.453e-9
-0.184, 1.237e-9
-0.183, 1.237e-9
-0.182, 1.422e-9
-0.181, 1.422e-9
-0.180, 1.176e-9
-0.179, 1.145e-9
-0.178, 1.330e-9
-0.177, 1.330e-9
-0.176, 1.176e-9
-0.175, 1.053e-9
-0.174, 1.237e-9
-0.173, 1.299e-9
-0.172, 1.114e-9
-0.171, 1.022e-9
-0.170, 1.145e-9
-0.169, 1.268e-9
-0.168, 1.114e-9
-0.167, 9.298e-10
-0.166, 1.053e-9
-0.165, 1.176e-9
-0.164, 1.084e-9
-0.163, 8.990e-10
-0.162, 9.605e-10
-0.161, 1.145e-9
-0.160, 1.053e-9
-0.159, 8.682e-10
-0.158, 8.682e-10
-0.157, 1.084e-9
-0.156, 1.022e-9
-0.155, 8.375e-10
-0.154, 8.067e-10
-0.153, 9.605e-10
-0.152, 1.022e-9
-0.151, 8.067e-10
-0.150, 7.144e-10
-0.149, 9.298e-10
-0.148, 9.605e-10
-0.147, 8.067e-10
-0.146, 6.836e-10
-0.145, 8.067e-10
-0.144, 9.605e-10
-0.143, 7.759e-10
-0.142, 6.221e-10
-0.141, 7.452e-10
-0.140, 8.682e-10
-0.139, 8.067e-10
-0.138, 5.913e-10
-0.137, 6.529e-10
-0.136, 8.375e-10
-0.135, 7.452e-10
-0.134, 5.606e-10
-0.133, 5.913e-10
-0.132, 7.452e-10
-0.131, 7.452e-10
-0.130, 5.298e-10
-0.129, 4.991e-10
-0.128, 6.836e-10
-0.127, 7.144e-10
-0.126, 5.298e-10
-0.125, 4.375e-10
-0.124, 6.221e-10
-0.123, 6.836e-10
-0.122, 5.298e-10
-0.121, 3.760e-10
-0.120, 5.298e-10
-0.119, 6.221e-10
-0.118, 4.991e-10
-0.117, 3.452e-10
-0.116, 4.375e-10
-0.115, 5.913e-10
-0.114, 4.991e-10
-0.113, 2.837e-10
-0.112, 3.452e-10
-0.111, 5.298e-10
-0.110, 4.375e-10
-0.109, 2.837e-10
-0.108, 2.837e-10
-0.107, 4.375e-10
-0.106, 4.375e-10
-0.105, 2.222e-10
-0.104, 1.914e-10
-0.103, 3.760e-10
-0.102, 3.760e-10
-0.101, 2.222e-10
-0.100, 9.911e-11
-0.099, 3.145e-10
-0.098, 3.760e-10
-0.097, 1.606e-10
-0.096, 6.834e-11
-0.095, 1.606e-10
-0.094, 2.837e-10
-0.093, 1.606e-10
-0.092, -5.472e-11
-0.091, 6.834e-11
-0.090, 1.914e-10
-0.089, 9.911e-11
-0.088, -5.472e-11
-0.087, -5.472e-11
-0.086, 1.299e-10
-0.085, 3.758e-11
-0.084, -1.470e-10
-0.083, -1.162e-10
-0.082, 6.813e-12
-0.081, 6.813e-12
-0.080, -2.085e-10
-0.079, -2.701e-10
-0.078, -8.548e-11
-0.077, -1.162e-10
-0.076, -3.008e-10
-0.075, -3.931e-10
-0.074, -2.085e-10
-0.073, -2.085e-10
-0.072, -3.624e-10
-0.071, -5.162e-10
-0.070, -3.931e-10
-0.069, -3.008e-10
-0.068, -4.854e-10
-0.067, -6.393e-10
-0.066, -5.162e-10
-0.065, -4.547e-10
-0.064, -5.777e-10
-0.063, -7.931e-10
-0.062, -7.623e-10
-0.061, -5.777e-10
-0.060, -7.008e-10
-0.059, -9.161e-10
-0.058, -9.469e-10
-0.057, -7.931e-10
-0.056, -8.546e-10
-0.055, -1.101e-9
-0.054, -1.162e-9
-0.053, -1.008e-9
-0.052, -1.070e-9
-0.051, -1.255e-9
-0.050, -1.408e-9
-0.049, -1.285e-9
-0.048, -1.255e-9
-0.047, -1.501e-9
-0.046, -1.655e-9
-0.045, -1.562e-9
-0.044, -1.531e-9
-0.043, -1.716e-9
-0.042, -1.931e-9
-0.041, -1.901e-9
-0.040, -1.808e-9
-0.039, -2.024e-9
-0.038, -2.270e-9
-0.037, -2.270e-9
-0.036, -2.208e-9
-0.035, -2.331e-9
-0.034, -2.639e-9
-0.033, -2.701e-9
-0.032, -2.577e-9
-0.031, -2.731e-9
-0.030, -3.039e-9
-0.029, -3.162e-9
-0.028, -3.100e-9
-0.027, -3.162e-9
-0.026, -3.470e-9
-0.025, -3.654e-9
-0.024, -3.593e-9
-0.023, -3.685e-9
-0.022, -3.993e-9
-0.021, -4.208e-9
-0.020, -4.239e-9
-0.019, -4.270e-9
-0.018, -4.546e-9
-0.017, -4.885e-9
-0.016, -4.885e-9
-0.015, -4.946e-9
-0.014, -5.254e-9
-0.013, -5.562e-9
-0.012, -5.715e-9
-0.011, -5.685e-9
-0.010, -5.962e-9
-0.009, -6.392e-9
-0.008, -6.515e-9
-0.007, -6.577e-9
-0.006, -6.823e-9
-0.005, -7.223e-9
-0.004, -7.500e-9
-0.003, -7.500e-9
-0.002, -7.777e-9
-0.001, -8.207e-9
-0.000, -8.669e-9
0.001, -8.669e-9
0.002, -8.854e-9
0.003, -9.284e-9
0.004, -9.653e-9
0.005, -9.776e-9
0.006, -9.992e-9
0.007, -1.042e-8
0.008, -1.085e-8
0.009, -1.107e-8
0.010, -1.122e-8
0.011, -1.165e-8
0.012, -1.215e-8
0.013, -1.239e-8
0.014, -1.258e-8
0.015, -1.301e-8
0.016, -1.350e-8
0.017, -1.381e-8
0.018, -1.396e-8
0.019, -1.436e-8
0.020, -1.491e-8
0.021, -1.528e-8
0.022, -1.547e-8
0.023, -1.587e-8
0.024, -1.636e-8
0.025, -1.682e-8
0.026, -1.704e-8
0.027, -1.731e-8
0.028, -1.790e-8
0.029, -1.830e-8
0.030, -1.854e-8
0.031, -1.885e-8
0.032, -1.931e-8
0.033, -1.984e-8
0.034, -2.011e-8
0.035, -2.030e-8
0.036, -2.079e-8
0.037, -2.128e-8
0.038, -2.156e-8
0.039, -2.177e-8
0.040, -2.214e-8
0.041, -2.270e-8
0.042, -2.297e-8
0.043, -2.310e-8
0.044, -2.353e-8
0.045, -2.396e-8
0.046, -2.430e-8
0.047, -2.439e-8
0.048, -2.464e-8
0.049, -2.513e-8
0.050, -2.544e-8
0.051, -2.553e-8
0.052, -2.574e-8
0.053, -2.605e-8
0.054, -2.645e-8
0.055, -2.648e-8
0.056, -2.657e-8
0.057, -2.697e-8
0.058, -2.722e-8
0.059, -2.731e-8
0.060, -2.734e-8
0.061, -2.759e-8
0.062, -2.790e-8
0.063, -2.796e-8
0.064, -2.790e-8
0.065, -2.811e-8
0.066, -2.836e-8
0.067, -2.839e-8
0.068, -2.830e-8
0.069, -2.842e-8
0.070, -2.860e-8
0.071, -2.873e-8
0.072, -2.851e-8
0.073, -2.857e-8
0.074, -2.876e-8
0.075, -2.879e-8
0.076, -2.867e-8
0.077, -2.857e-8
0.078, -2.873e-8
0.079, -2.882e-8
0.080, -2.860e-8
0.081, -2.851e-8
0.082, -2.857e-8
0.083, -2.864e-8
0.084, -2.851e-8
0.085, -2.827e-8
0.086, -2.830e-8
0.087, -2.839e-8
0.088, -2.824e-8
0.089, -2.802e-8
0.090, -2.796e-8
0.091, -2.802e-8
0.092, -2.793e-8
0.093, -2.762e-8
0.094, -2.759e-8
0.095, -2.765e-8
0.096, -2.753e-8
0.097, -2.725e-8
0.098, -2.713e-8
0.099, -2.716e-8
0.100, -2.710e-8
0.101, -2.679e-8
0.102, -2.664e-8
0.103, -2.667e-8
0.104, -2.664e-8
0.105, -2.636e-8
0.106, -2.611e-8
0.107, -2.614e-8
0.108, -2.614e-8
0.109, -2.587e-8
0.110, -2.559e-8
0.111, -2.559e-8
0.112, -2.562e-8
0.113, -2.544e-8
0.114, -2.513e-8
0.115, -2.507e-8
0.116, -2.513e-8
0.117, -2.494e-8
0.118, -2.464e-8
0.119, -2.454e-8
0.120, -2.457e-8
0.121, -2.448e-8
0.122, -2.417e-8
0.123, -2.399e-8
0.124, -2.408e-8
0.125, -2.399e-8
0.126, -2.368e-8
0.127, -2.353e-8
0.128, -2.356e-8
0.129, -2.356e-8
0.130, -2.328e-8
0.131, -2.304e-8
0.132, -2.310e-8
0.133, -2.310e-8
0.134, -2.288e-8
0.135, -2.261e-8
0.136, -2.261e-8
0.137, -2.270e-8
0.138, -2.245e-8
0.139, -2.221e-8
0.140, -2.217e-8
0.141, -2.224e-8
0.142, -2.211e-8
0.143, -2.184e-8
0.144, -2.174e-8
0.145, -2.184e-8
0.146, -2.177e-8
0.147, -2.147e-8
0.148, -2.137e-8
0.149, -2.147e-8
0.150, -2.141e-8
0.151, -2.116e-8
0.152, -2.101e-8
0.153, -2.110e-8
0.154, -2.113e-8
0.155, -2.085e-8
0.156, -2.067e-8
0.157, -2.073e-8
0.158, -2.079e-8
0.159, -2.061e-8
0.160, -2.036e-8
0.161, -2.039e-8
0.162, -2.051e-8
0.163, -2.033e-8
0.164, -2.011e-8
0.165, -2.008e-8
0.166, -2.021e-8
0.167, -2.011e-8
0.168, -1.981e-8
0.169, -1.981e-8
0.170, -1.993e-8
0.171, -1.987e-8
0.172, -1.962e-8
0.173, -1.953e-8
0.174, -1.965e-8
0.175, -1.965e-8
0.176, -1.941e-8
0.177, -1.931e-8
0.178, -1.941e-8
0.179, -1.944e-8
0.180, -1.925e-8
0.181, -1.907e-8
0.182, -1.916e-8
0.183, -1.925e-8
0.184, -1.907e-8
0.185, -1.888e-8
0.186, -1.894e-8
0.187, -1.907e-8
0.188, -1.891e-8
0.189, -1.867e-8
0.190, -1.873e-8
0.191, -1.885e-8
0.192, -1.876e-8
0.193, -1.854e-8
0.194, -1.851e-8
0.195, -1.867e-8
0.196, -1.864e-8
0.197, -1.839e-8
0.198, -1.833e-8
0.199, -1.848e-8
0.200, -1.851e-8
0.201, -1.827e-8
0.202, -1.821e-8
0.203, -1.830e-8
0.204, -1.836e-8
0.205, -1.821e-8
0.206, -1.802e-8
0.207, -1.818e-8
0.208, -1.824e-8
0.209, -1.808e-8
0.210, -1.793e-8
0.211, -1.796e-8
0.212, -1.814e-8
0.213, -1.799e-8
0.214, -1.778e-8
0.215, -1.787e-8
0.216, -1.796e-8
0.217, -1.793e-8
0.218, -1.771e-8
0.219, -1.771e-8
0.220, -1.790e-8
0.221, -1.781e-8
0.222, -1.762e-8
0.223, -1.759e-8
0.224, -1.771e-8
0.225, -1.781e-8
0.226, -1.753e-8
0.227, -1.747e-8
0.228, -1.762e-8
0.229, -1.768e-8
0.230, -1.753e-8
0.231, -1.738e-8
0.232, -1.750e-8
0.233, -1.762e-8
0.234, -1.747e-8
0.235, -1.731e-8
0.236, -1.741e-8
0.237, -1.753e-8
0.238, -1.744e-8
0.239, -1.725e-8
0.240, -1.731e-8
0.241, -1.747e-8
0.242, -1.741e-8
0.243, -1.719e-8
0.244, -1.722e-8
0.245, -1.741e-8
0.246, -1.734e-8
0.247, -1.719e-8
0.248, -1.713e-8
0.249, -1.731e-8
0.250, -1.734e-8
0.251, -1.713e-8
0.252, -1.710e-8
0.253, -1.722e-8
0.254, -1.731e-8
0.255, -1.716e-8
0.256, -1.701e-8
0.257, -1.716e-8
0.258, -1.728e-8
0.259, -1.713e-8
0.260, -1.701e-8
0.261, -1.710e-8
0.262, -1.725e-8
0.263, -1.716e-8
0.264, -1.698e-8
0.265, -1.704e-8
0.266, -1.722e-8
0.267, -1.713e-8
0.268, -1.698e-8
0.269, -1.698e-8
0.270, -1.719e-8
0.271, -1.719e-8
0.272, -1.694e-8
0.273, -1.698e-8
0.274, -1.713e-8
0.275, -1.716e-8
0.276, -1.701e-8
0.277, -1.691e-8
0.278, -1.713e-8
0.279, -1.719e-8
0.280, -1.704e-8
0.281, -1.691e-8
0.282, -1.707e-8
0.283, -1.722e-8
0.284, -1.710e-8
0.285, -1.691e-8
0.286, -1.707e-8
0.287, -1.722e-8
0.288, -1.713e-8
0.289, -1.694e-8
0.290, -1.707e-8
0.291, -1.722e-8
0.292, -1.719e-8
0.293, -1.701e-8
0.294, -1.704e-8
0.295, -1.725e-8
0.296, -1.722e-8
0.297, -1.707e-8
0.298, -1.710e-8
0.299, -1.722e-8
0.300, -1.553e-8
0.299, -1.310e-8
0.298, -1.264e-8
0.297, -1.258e-8
0.296, -1.245e-8
0.295, -1.208e-8
0.294, -1.181e-8
0.293, -1.181e-8
0.292, -1.181e-8
0.291, -1.156e-8
0.290, -1.131e-8
0.289, -1.128e-8
0.288, -1.138e-8
0.287, -1.119e-8
0.286, -1.091e-8
0.285, -1.091e-8
0.284, -1.098e-8
0.283, -1.088e-8
0.282, -1.061e-8
0.281, -1.058e-8
0.280, -1.070e-8
0.279, -1.061e-8
0.278, -1.036e-8
0.277, -1.030e-8
0.276, -1.039e-8
0.275, -1.042e-8
0.274, -1.015e-8
0.273, -1.005e-8
0.272, -1.018e-8
0.271, -1.021e-8
0.270, -9.992e-9
0.269, -9.838e-9
0.268, -9.930e-9
0.267, -1.005e-8
0.266, -9.807e-9
0.265, -9.653e-9
0.264, -9.746e-9
0.263, -9.838e-9
0.262, -9.715e-9
0.261, -9.500e-9
0.260, -9.530e-9
0.259, -9.715e-9
0.258, -9.592e-9
0.257, -9.377e-9
0.256, -9.346e-9
0.255, -9.500e-9
0.254, -9.500e-9
0.253, -9.253e-9
0.252, -9.192e-9
0.251, -9.346e-9
0.250, -9.346e-9
0.249, -9.161e-9
0.248, -9.069e-9
0.247, -9.192e-9
0.246, -9.253e-9
0.245, -9.038e-9
0.244, -8.915e-9
0.243, -9.038e-9
0.242, -9.130e-9
0.241, -8.977e-9
0.240, -8.792e-9
0.239, -8.915e-9
0.238, -9.007e-9
0.237, -8.915e-9
0.236, -8.669e-9
0.235, -8.761e-9
0.234, -8.915e-9
0.233, -8.792e-9
0.232, -8.607e-9
0.231, -8.607e-9
0.230, -8.792e-9
0.229, -8.761e-9
0.228, -8.515e-9
0.227, -8.515e-9
0.226, -8.638e-9
0.225, -8.669e-9
0.224, -8.484e-9
0.223, -8.331e-9
0.222, -8.515e-9
0.221, -8.577e-9
0.220, -8.361e-9
0.219, -8.269e-9
0.218, -8.361e-9
0.217, -8.484e-9
0.216, -8.331e-9
0.215, -8.146e-9
0.214, -8.269e-9
0.213, -8.392e-9
0.212, -8.269e-9
0.211, -8.084e-9
0.210, -8.115e-9
0.209, -8.269e-9
0.208, -8.207e-9
0.207, -7.961e-9
0.206, -8.023e-9
0.205, -8.177e-9
0.204, -8.115e-9
0.203, -7.900e-9
0.202, -7.869e-9
0.201, -8.054e-9
0.200, -8.054e-9
0.199, -7.838e-9
0.198, -7.746e-9
0.197, -7.931e-9
0.196, -7.961e-9
0.195, -7.777e-9
0.194, -7.654e-9
0.193, -7.777e-9
0.192, -7.869e-9
0.191, -7.715e-9
0.190, -7.561e-9
0.189, -7.654e-9
0.188, -7.746e-9
0.187, -7.623e-9
0.186, -7.438e-9
0.185, -7.500e-9
0.184, -7.654e-9
0.183, -7.561e-9
0.182, -7.346e-9
0.181, -7.377e-9
0.180, -7.500e-9
0.179, -7.469e-9
0.178, -7.223e-9
0.177, -7.192e-9
0.176, -7.408e-9
0.175, -7.346e-9
0.174, -7.131e-9
0.173, -7.069e-9
0.172, -7.192e-9
0.171, -7.285e-9
0.170, -7.008e-9
0.169, -6.915e-9
0.168, -7.038e-9
0.167, -7.100e-9
0.166, -6.946e-9
0.165, -6.762e-9
0.164, -6.823e-9
0.163, -6.977e-9
0.162, -6.792e-9
0.161, -6.608e-9
0.160, -6.638e-9
0.159, -6.792e-9
0.158, -6.700e-9
0.157, -6.454e-9
0.156, -6.454e-9
0.155, -6.577e-9
0.154, -6.515e-9
0.153, -6.269e-9
0.152, -6.239e-9
0.151, -6.362e-9
0.150, -6.331e-9
0.149, -6.085e-9
0.148, -5.962e-9
0.147, -6.115e-9
0.146, -6.146e-9
0.145, -5.869e-9
0.144, -5.777e-9
0.143, -5.808e-9
0.142, -5.900e-9
0.141, -5.685e-9
0.140, -5.469e-9
0.139, -5.531e-9
0.138, -5.592e-9
0.137, -5.408e-9
0.136, -5.192e-9
0.135, -5.162e-9
0.134, -5.285e-9
0.133, -5.131e-9
0.132, -4.823e-9
0.131, -4.823e-9
0.130, -4.916e-9
0.129, -4.762e-9
0.128, -4.516e-9
0.127, -4.393e-9
0.126, -4.485e-9
0.125, -4.393e-9
0.124, -4.085e-9
0.123, -3.962e-9
0.122, -3.962e-9
0.121, -3.962e-9
0.120, -3.654e-9
0.119, -3.439e-9
0.118, -3.470e-9
0.117, -3.439e-9
0.116, -3.162e-9
0.115, -2.885e-9
0.114, -2.824e-9
0.113, -2.854e-9
0.112, -2.577e-9
0.111, -2.270e-9
0.110, -2.178e-9
0.109, -2.208e-9
0.108, -1.931e-9
0.107, -1.562e-9
0.106, -1.439e-9
0.105, -1.439e-9
0.104, -1.224e-9
0.103, -8.238e-10
0.102, -6.085e-10
0.101, -5.777e-10
0.100, -3.624e-10
0.099, 6.813e-12
0.098, 2.529e-10
0.097, 3.760e-10
0.096, 4.991e-10
0.095, 9.913e-10
0.094, 1.268e-9
0.093, 1.391e-9
0.092, 1.576e-9
0.091, 1.976e-9
0.090, 2.376e-9
0.089, 2.530e-9
0.088, 2.653e-9
0.087, 3.114e-9
0.086, 3.545e-9
0.085, 3.729e-9
0.084, 3.914e-9
0.083, 4.252e-9
0.082, 4.806e-9
0.081, 5.052e-9
0.080, 5.206e-9
0.079, 5.575e-9
0.078, 6.098e-9
0.077, 6.467e-9
0.076, 6.652e-9
0.075, 6.929e-9
0.074, 7.513e-9
0.073, 7.883e-9
0.072, 8.098e-9
0.071, 8.406e-9
0.070, 8.929e-9
0.069, 9.390e-9
0.068, 9.636e-9
0.067, 9.882e-9
0.066, 1.044e-8
0.065, 1.090e-8
0.064, 1.117e-8
0.063, 1.145e-8
0.062, 1.188e-8
0.061, 1.244e-8
0.060, 1.268e-8
0.059, 1.293e-8
0.058, 1.336e-8
0.057, 1.391e-8
0.056, 1.419e-8
0.055, 1.440e-8
0.054, 1.477e-8
0.053, 1.530e-8
0.052, 1.567e-8
0.051, 1.582e-8
0.050, 1.613e-8
0.049, 1.665e-8
0.048, 1.696e-8
0.047, 1.717e-8
0.046, 1.739e-8
0.045, 1.782e-8
0.044, 1.825e-8
0.043, 1.831e-8
0.042, 1.853e-8
0.041, 1.890e-8
0.040, 1.927e-8
0.039, 1.942e-8
0.038, 1.948e-8
0.037, 1.982e-8
0.036, 2.022e-8
0.035, 2.025e-8
0.034, 2.034e-8
0.033, 2.056e-8
0.032, 2.090e-8
0.031, 2.102e-8
0.030, 2.096e-8
0.029, 2.114e-8
0.028, 2.148e-8
0.027, 2.154e-8
0.026, 2.151e-8
0.025, 2.157e-8
0.024, 2.182e-8
0.023, 2.194e-8
0.022, 2.182e-8
0.021, 2.182e-8
0.020, 2.203e-8
0.019, 2.213e-8
0.018, 2.203e-8
0.017, 2.191e-8
0.016, 2.207e-8
0.015, 2.222e-8
0.014, 2.207e-8
0.013, 2.191e-8
0.012, 2.197e-8
0.011, 2.210e-8
0.010, 2.197e-8
0.009, 2.179e-8
0.008, 2.179e-8
0.007, 2.194e-8
0.006, 2.179e-8
0.005, 2.154e-8
0.004, 2.151e-8
0.003, 2.160e-8
0.002, 2.151e-8
0.001, 2.127e-8
0.000, 2.127e-8
-0.001, 2.130e-8
-0.002, 2.120e-8
-0.003, 2.090e-8
-0.004, 2.077e-8
-0.005, 2.080e-8
-0.006, 2.080e-8
-0.007, 2.053e-8
-0.008, 2.025e-8
-0.009, 2.037e-8
-0.010, 2.031e-8
-0.011, 2.010e-8
-0.012, 1.985e-8
-0.013, 1.979e-8
-0.014, 1.988e-8
-0.015, 1.963e-8
-0.016, 1.933e-8
-0.017, 1.930e-8
-0.018, 1.933e-8
-0.019, 1.917e-8
-0.020, 1.887e-8
-0.021, 1.877e-8
-0.022, 1.884e-8
-0.023, 1.868e-8
-0.024, 1.840e-8
-0.025, 1.828e-8
-0.026, 1.834e-8
-0.027, 1.822e-8
-0.028, 1.794e-8
-0.029, 1.776e-8
-0.030, 1.782e-8
-0.031, 1.776e-8
-0.032, 1.748e-8
-0.033, 1.730e-8
-0.034, 1.733e-8
-0.035, 1.733e-8
-0.036, 1.708e-8
-0.037, 1.684e-8
-0.038, 1.684e-8
-0.039, 1.687e-8
-0.040, 1.665e-8
-0.041, 1.637e-8
-0.042, 1.634e-8
-0.043, 1.640e-8
-0.044, 1.628e-8
-0.045, 1.597e-8
-0.046, 1.588e-8
-0.047, 1.600e-8
-0.048, 1.585e-8
-0.049, 1.560e-8
-0.050, 1.548e-8
-0.051, 1.557e-8
-0.052, 1.554e-8
-0.053, 1.524e-8
-0.054, 1.508e-8
-0.055, 1.520e-8
-0.056, 1.514e-8
-0.057, 1.496e-8
-0.058, 1.471e-8
-0.059, 1.480e-8
-0.060, 1.487e-8
-0.061, 1.459e-8
-0.062, 1.444e-8
-0.063, 1.444e-8
-0.064, 1.453e-8
-0.065, 1.437e-8
-0.066, 1.410e-8
-0.067, 1.410e-8
-0.068, 1.422e-8
-0.069, 1.407e-8
-0.070, 1.382e-8
-0.071, 1.376e-8
-0.072, 1.391e-8
-0.073, 1.382e-8
-0.074, 1.357e-8
-0.075, 1.348e-8
-0.076, 1.360e-8
-0.077, 1.357e-8
-0.078, 1.333e-8
-0.079, 1.324e-8
-0.080, 1.333e-8
-0.081, 1.336e-8
-0.082, 1.314e-8
-0.083, 1.296e-8
-0.084, 1.308e-8
-0.085, 1.311e-8
-0.086, 1.293e-8
-0.087, 1.274e-8
-0.088, 1.281e-8
-0.089, 1.293e-8
-0.090, 1.274e-8
-0.091, 1.253e-8
-0.092, 1.256e-8
-0.093, 1.271e-8
-0.094, 1.256e-8
-0.095, 1.237e-8
-0.096, 1.234e-8
-0.097, 1.250e-8
-0.098, 1.244e-8
-0.099, 1.216e-8
-0.100, 1.216e-8
-0.101, 1.228e-8
-0.102, 1.228e-8
-0.103, 1.207e-8
-0.104, 1.194e-8
-0.105, 1.210e-8
-0.106, 1.213e-8
-0.107, 1.194e-8
-0.108, 1.182e-8
-0.109, 1.188e-8
-0.110, 1.201e-8
-0.111, 1.182e-8
-0.112, 1.161e-8
-0.113, 1.173e-8
-0.114, 1.182e-8
-0.115, 1.170e-8
-0.116, 1.151e-8
-0.117, 1.151e-8
-0.118, 1.173e-8
-0.119, 1.161e-8
-0.120, 1.139e-8
-0.121, 1.136e-8
-0.122, 1.154e-8
-0.123, 1.148e-8
-0.124, 1.127e-8
-0.125, 1.124e-8
-0.126, 1.142e-8
-0.127, 1.139e-8
-0.128, 1.121e-8
-0.129, 1.111e-8
-0.130, 1.127e-8
-0.131, 1.130e-8
-0.132, 1.114e-8
-0.133, 1.096e-8
-0.134, 1.111e-8
-0.135, 1.121e-8
-0.136, 1.105e-8
-0.137, 1.090e-8
-0.138, 1.096e-8
-0.139, 1.108e-8
-0.140, 1.099e-8
-0.141, 1.081e-8
-0.142, 1.084e-8
-0.143, 1.102e-8
-0.144, 1.090e-8
-0.145, 1.074e-8
-0.146, 1.074e-8
-0.147, 1.090e-8
-0.148, 1.087e-8
-0.149, 1.062e-8
-0.150, 1.065e-8
-0.151, 1.081e-8
-0.152, 1.081e-8
-0.153, 1.062e-8
-0.154, 1.053e-8
-0.155, 1.071e-8
-0.156, 1.077e-8
-0.157, 1.056e-8
-0.158, 1.047e-8
-0.159, 1.059e-8
-0.160, 1.068e-8
-0.161, 1.056e-8
-0.162, 1.034e-8
-0.163, 1.050e-8
-0.164, 1.062e-8
-0.165, 1.050e-8
-0.166, 1.034e-8
-0.167, 1.037e-8
-0.168, 1.059e-8
-0.169, 1.050e-8
-0.170, 1.028e-8
-0.171, 1.031e-8
-0.172, 1.050e-8
-0.173, 1.047e-8
-0.174, 1.025e-8
-0.175, 1.025e-8
-0.176, 1.041e-8
-0.177, 1.044e-8
-0.178, 1.025e-8
-0.179, 1.016e-8
-0.180, 1.034e-8
-0.181, 1.041e-8
-0.182, 1.022e-8
-0.183, 1.013e-8
-0.184, 1.025e-8
-0.185, 1.037e-8
-0.186, 1.022e-8
-0.187, 1.007e-8
-0.188, 1.022e-8
-0.189, 1.031e-8
-0.190, 1.022e-8
-0.191, 1.007e-8
-0.192, 1.010e-8
-0.193, 1.031e-8
-0.194, 1.022e-8
-0.195, 1.004e-8
-0.196, 1.007e-8
-0.197, 1.025e-8
-0.198, 1.025e-8
-0.199, 1.004e-8
