Mar. 16, 2023   08:53:48
Cyclic Voltammetry
File: c:/users/oliverrz/desktop/electrolab/data/2023_03_16\fcmeoh_macros_250_um\electrode1_cv_250mvs_250_um.bin
Data Source:  Experiment
Instrument Model:  CHI760E
Header: CV
Note: 

Init E (V) = -0.2
High E (V) = 0.3
Low E (V) = -0.2
Final E (V) = -0.2
Init P/N = P
Scan Rate (V/s) = 0.25
Segment = 3
Sample Interval (V) = 0.001
Quiet Time (sec) = 2
Sensitivity (A/V) = 1e-7

Results:

Channel 1:
Segment 1:
Ep = 0.108V
ip = -2.646e-8A
Ah = -6.197e-9C

Segment 2:
Ep = 0.052V
ip = 2.367e-8A
Ah = 5.481e-9C

Segment 3:

Potential/V, Current/A

-0.200, 3.268e-9
-0.199, 2.068e-9
-0.198, 1.976e-9
-0.197, 1.791e-9
-0.196, 1.514e-9
-0.195, 1.637e-9
-0.194, 1.699e-9
-0.193, 1.514e-9
-0.192, 1.330e-9
-0.191, 1.360e-9
-0.190, 1.514e-9
-0.189, 1.391e-9
-0.188, 1.114e-9
-0.187, 1.207e-9
-0.186, 1.330e-9
-0.185, 1.237e-9
-0.184, 1.053e-9
-0.183, 9.605e-10
-0.182, 1.145e-9
-0.181, 1.145e-9
-0.180, 8.990e-10
-0.179, 8.375e-10
-0.178, 9.913e-10
-0.177, 1.022e-9
-0.176, 8.375e-10
-0.175, 7.144e-10
-0.174, 8.375e-10
-0.173, 9.298e-10
-0.172, 7.452e-10
-0.171, 5.913e-10
-0.170, 7.144e-10
-0.169, 8.067e-10
-0.168, 6.836e-10
-0.167, 4.683e-10
-0.166, 5.606e-10
-0.165, 7.144e-10
-0.164, 5.913e-10
-0.163, 4.068e-10
-0.162, 4.375e-10
-0.161, 5.913e-10
-0.160, 5.298e-10
-0.159, 3.145e-10
-0.158, 3.145e-10
-0.157, 4.991e-10
-0.156, 4.375e-10
-0.155, 2.529e-10
-0.154, 1.914e-10
-0.153, 3.452e-10
-0.152, 4.068e-10
-0.151, 1.914e-10
-0.150, 9.911e-11
-0.149, 2.529e-10
-0.148, 3.145e-10
-0.147, 1.606e-10
-0.146, 6.813e-12
-0.145, 9.911e-11
-0.144, 2.837e-10
-0.143, 9.911e-11
-0.142, -8.548e-11
-0.141, 3.758e-11
-0.140, 1.299e-10
-0.139, 6.834e-11
-0.138, -1.162e-10
-0.137, -1.162e-10
-0.136, 9.911e-11
-0.135, 6.813e-12
-0.134, -1.778e-10
-0.133, -1.778e-10
-0.132, -2.395e-11
-0.131, 6.813e-12
-0.130, -2.393e-10
-0.129, -2.701e-10
-0.128, -8.548e-11
-0.127, -8.548e-11
-0.126, -2.393e-10
-0.125, -3.624e-10
-0.124, -1.778e-10
-0.123, -1.162e-10
-0.122, -2.701e-10
-0.121, -4.239e-10
-0.120, -3.008e-10
-0.119, -1.778e-10
-0.118, -3.316e-10
-0.117, -4.547e-10
-0.116, -3.931e-10
-0.115, -2.393e-10
-0.114, -3.316e-10
-0.113, -5.470e-10
-0.112, -4.547e-10
-0.111, -3.008e-10
-0.110, -3.931e-10
-0.109, -5.470e-10
-0.108, -5.777e-10
-0.107, -3.624e-10
-0.106, -3.931e-10
-0.105, -6.085e-10
-0.104, -6.085e-10
-0.103, -4.547e-10
-0.102, -4.547e-10
-0.101, -6.085e-10
-0.100, -7.315e-10
-0.099, -5.162e-10
-0.098, -4.547e-10
-0.097, -6.393e-10
-0.096, -7.315e-10
-0.095, -6.393e-10
-0.094, -4.854e-10
-0.093, -6.393e-10
-0.092, -8.238e-10
-0.091, -7.008e-10
-0.090, -5.777e-10
-0.089, -6.700e-10
-0.088, -8.546e-10
-0.087, -7.931e-10
-0.086, -6.393e-10
-0.085, -6.700e-10
-0.084, -8.854e-10
-0.083, -8.854e-10
-0.082, -6.700e-10
-0.081, -7.008e-10
-0.080, -9.161e-10
-0.079, -9.469e-10
-0.078, -7.623e-10
-0.077, -7.315e-10
-0.076, -9.469e-10
-0.075, -1.008e-9
-0.074, -8.238e-10
-0.073, -7.931e-10
-0.072, -9.161e-10
-0.071, -1.101e-9
-0.070, -9.469e-10
-0.069, -7.931e-10
-0.068, -9.777e-10
-0.067, -1.131e-9
-0.066, -1.039e-9
-0.065, -9.161e-10
-0.064, -9.777e-10
-0.063, -1.193e-9
-0.062, -1.162e-9
-0.061, -9.469e-10
-0.060, -1.070e-9
-0.059, -1.224e-9
-0.058, -1.224e-9
-0.057, -1.039e-9
-0.056, -1.070e-9
-0.055, -1.285e-9
-0.054, -1.316e-9
-0.053, -1.131e-9
-0.052, -1.162e-9
-0.051, -1.316e-9
-0.050, -1.439e-9
-0.049, -1.255e-9
-0.048, -1.193e-9
-0.047, -1.378e-9
-0.046, -1.501e-9
-0.045, -1.378e-9
-0.044, -1.285e-9
-0.043, -1.439e-9
-0.042, -1.593e-9
-0.041, -1.531e-9
-0.040, -1.378e-9
-0.039, -1.531e-9
-0.038, -1.716e-9
-0.037, -1.655e-9
-0.036, -1.501e-9
-0.035, -1.593e-9
-0.034, -1.808e-9
-0.033, -1.839e-9
-0.032, -1.624e-9
-0.031, -1.716e-9
-0.030, -1.931e-9
-0.029, -1.962e-9
-0.028, -1.839e-9
-0.027, -1.839e-9
-0.026, -2.054e-9
-0.025, -2.178e-9
-0.024, -1.993e-9
-0.023, -1.993e-9
-0.022, -2.178e-9
-0.021, -2.331e-9
-0.020, -2.270e-9
-0.019, -2.147e-9
-0.018, -2.331e-9
-0.017, -2.547e-9
-0.016, -2.485e-9
-0.015, -2.393e-9
-0.014, -2.547e-9
-0.013, -2.762e-9
-0.012, -2.793e-9
-0.011, -2.608e-9
-0.010, -2.762e-9
-0.009, -3.039e-9
-0.008, -3.070e-9
-0.007, -2.947e-9
-0.006, -3.039e-9
-0.005, -3.316e-9
-0.004, -3.408e-9
-0.003, -3.285e-9
-0.002, -3.377e-9
-0.001, -3.623e-9
-0.000, -3.900e-9
0.001, -3.716e-9
0.002, -3.747e-9
0.003, -3.993e-9
0.004, -4.208e-9
0.005, -4.146e-9
0.006, -4.146e-9
0.007, -4.423e-9
0.008, -4.700e-9
0.009, -4.700e-9
0.010, -4.669e-9
0.011, -4.885e-9
0.012, -5.223e-9
0.013, -5.285e-9
0.014, -5.223e-9
0.015, -5.469e-9
0.016, -5.777e-9
0.017, -5.900e-9
0.018, -5.931e-9
0.019, -6.054e-9
0.020, -6.454e-9
0.021, -6.608e-9
0.022, -6.608e-9
0.023, -6.854e-9
0.024, -7.131e-9
0.025, -7.469e-9
0.026, -7.500e-9
0.027, -7.592e-9
0.028, -8.023e-9
0.029, -8.300e-9
0.030, -8.392e-9
0.031, -8.546e-9
0.032, -8.884e-9
0.033, -9.315e-9
0.034, -9.438e-9
0.035, -9.530e-9
0.036, -9.930e-9
0.037, -1.033e-8
0.038, -1.058e-8
0.039, -1.067e-8
0.040, -1.104e-8
0.041, -1.150e-8
0.042, -1.175e-8
0.043, -1.187e-8
0.044, -1.224e-8
0.045, -1.270e-8
0.046, -1.304e-8
0.047, -1.319e-8
0.048, -1.350e-8
0.049, -1.399e-8
0.050, -1.442e-8
0.051, -1.458e-8
0.052, -1.488e-8
0.053, -1.541e-8
0.054, -1.584e-8
0.055, -1.608e-8
0.056, -1.627e-8
0.057, -1.682e-8
0.058, -1.731e-8
0.059, -1.756e-8
0.060, -1.781e-8
0.061, -1.824e-8
0.062, -1.879e-8
0.063, -1.910e-8
0.064, -1.925e-8
0.065, -1.974e-8
0.066, -2.024e-8
0.067, -2.054e-8
0.068, -2.079e-8
0.069, -2.116e-8
0.070, -2.165e-8
0.071, -2.205e-8
0.072, -2.214e-8
0.073, -2.261e-8
0.074, -2.304e-8
0.075, -2.341e-8
0.076, -2.359e-8
0.077, -2.387e-8
0.078, -2.433e-8
0.079, -2.476e-8
0.080, -2.482e-8
0.081, -2.510e-8
0.082, -2.547e-8
0.083, -2.587e-8
0.084, -2.605e-8
0.085, -2.614e-8
0.086, -2.648e-8
0.087, -2.688e-8
0.088, -2.704e-8
0.089, -2.710e-8
0.090, -2.737e-8
0.091, -2.771e-8
0.092, -2.790e-8
0.093, -2.787e-8
0.094, -2.805e-8
0.095, -2.839e-8
0.096, -2.851e-8
0.097, -2.848e-8
0.098, -2.864e-8
0.099, -2.885e-8
0.100, -2.904e-8
0.101, -2.894e-8
0.102, -2.897e-8
0.103, -2.925e-8
0.104, -2.931e-8
0.105, -2.928e-8
0.106, -2.919e-8
0.107, -2.934e-8
0.108, -2.956e-8
0.109, -2.937e-8
0.110, -2.925e-8
0.111, -2.940e-8
0.112, -2.947e-8
0.113, -2.950e-8
0.114, -2.922e-8
0.115, -2.928e-8
0.116, -2.944e-8
0.117, -2.931e-8
0.118, -2.910e-8
0.119, -2.907e-8
0.120, -2.919e-8
0.121, -2.913e-8
0.122, -2.885e-8
0.123, -2.879e-8
0.124, -2.888e-8
0.125, -2.885e-8
0.126, -2.857e-8
0.127, -2.845e-8
0.128, -2.848e-8
0.129, -2.851e-8
0.130, -2.824e-8
0.131, -2.802e-8
0.132, -2.808e-8
0.133, -2.808e-8
0.134, -2.784e-8
0.135, -2.762e-8
0.136, -2.759e-8
0.137, -2.765e-8
0.138, -2.747e-8
0.139, -2.713e-8
0.140, -2.713e-8
0.141, -2.716e-8
0.142, -2.704e-8
0.143, -2.673e-8
0.144, -2.657e-8
0.145, -2.670e-8
0.146, -2.660e-8
0.147, -2.624e-8
0.148, -2.617e-8
0.149, -2.617e-8
0.150, -2.614e-8
0.151, -2.584e-8
0.152, -2.565e-8
0.153, -2.574e-8
0.154, -2.571e-8
0.155, -2.544e-8
0.156, -2.522e-8
0.157, -2.522e-8
0.158, -2.528e-8
0.159, -2.504e-8
0.160, -2.476e-8
0.161, -2.479e-8
0.162, -2.482e-8
0.163, -2.464e-8
0.164, -2.436e-8
0.165, -2.436e-8
0.166, -2.442e-8
0.167, -2.430e-8
0.168, -2.399e-8
0.169, -2.393e-8
0.170, -2.405e-8
0.171, -2.393e-8
0.172, -2.365e-8
0.173, -2.356e-8
0.174, -2.359e-8
0.175, -2.362e-8
0.176, -2.331e-8
0.177, -2.319e-8
0.178, -2.328e-8
0.179, -2.328e-8
0.180, -2.307e-8
0.181, -2.285e-8
0.182, -2.288e-8
0.183, -2.301e-8
0.184, -2.273e-8
0.185, -2.257e-8
0.186, -2.257e-8
0.187, -2.267e-8
0.188, -2.254e-8
0.189, -2.227e-8
0.190, -2.230e-8
0.191, -2.242e-8
0.192, -2.230e-8
0.193, -2.205e-8
0.194, -2.202e-8
0.195, -2.214e-8
0.196, -2.211e-8
0.197, -2.184e-8
0.198, -2.177e-8
0.199, -2.190e-8
0.200, -2.187e-8
0.201, -2.165e-8
0.202, -2.156e-8
0.203, -2.168e-8
0.204, -2.171e-8
0.205, -2.150e-8
0.206, -2.134e-8
0.207, -2.147e-8
0.208, -2.153e-8
0.209, -2.137e-8
0.210, -2.119e-8
0.211, -2.122e-8
0.212, -2.137e-8
0.213, -2.125e-8
0.214, -2.101e-8
0.215, -2.110e-8
0.216, -2.119e-8
0.217, -2.113e-8
0.218, -2.094e-8
0.219, -2.088e-8
0.220, -2.110e-8
0.221, -2.101e-8
0.222, -2.079e-8
0.223, -2.079e-8
0.224, -2.088e-8
0.225, -2.094e-8
0.226, -2.073e-8
0.227, -2.064e-8
0.228, -2.082e-8
0.229, -2.085e-8
0.230, -2.067e-8
0.231, -2.054e-8
0.232, -2.064e-8
0.233, -2.079e-8
0.234, -2.061e-8
0.235, -2.045e-8
0.236, -2.058e-8
0.237, -2.067e-8
0.238, -2.061e-8
0.239, -2.039e-8
0.240, -2.045e-8
0.241, -2.064e-8
0.242, -2.058e-8
0.243, -2.036e-8
0.244, -2.042e-8
0.245, -2.058e-8
0.246, -2.051e-8
0.247, -2.036e-8
0.248, -2.033e-8
0.249, -2.051e-8
0.250, -2.054e-8
0.251, -2.033e-8
0.252, -2.030e-8
0.253, -2.045e-8
0.254, -2.051e-8
0.255, -2.039e-8
0.256, -2.024e-8
0.257, -2.039e-8
0.258, -2.058e-8
0.259, -2.036e-8
0.260, -2.030e-8
0.261, -2.036e-8
0.262, -2.051e-8
0.263, -2.048e-8
0.264, -2.024e-8
0.265, -2.036e-8
0.266, -2.054e-8
0.267, -2.045e-8
0.268, -2.033e-8
0.269, -2.033e-8
0.270, -2.054e-8
0.271, -2.054e-8
0.272, -2.030e-8
0.273, -2.039e-8
0.274, -2.051e-8
0.275, -2.058e-8
0.276, -2.042e-8
0.277, -2.033e-8
0.278, -2.054e-8
0.279, -2.064e-8
0.280, -2.048e-8
0.281, -2.042e-8
0.282, -2.054e-8
0.283, -2.070e-8
0.284, -2.058e-8
0.285, -2.045e-8
0.286, -2.058e-8
0.287, -2.079e-8
0.288, -2.067e-8
0.289, -2.051e-8
0.290, -2.064e-8
0.291, -2.082e-8
0.292, -2.082e-8
0.293, -2.061e-8
0.294, -2.067e-8
0.295, -2.091e-8
0.296, -2.088e-8
0.297, -2.076e-8
0.298, -2.079e-8
0.299, -2.091e-8
0.300, -1.824e-8
0.299, -1.433e-8
0.298, -1.359e-8
0.297, -1.331e-8
0.296, -1.304e-8
0.295, -1.251e-8
0.294, -1.215e-8
0.293, -1.205e-8
0.292, -1.196e-8
0.291, -1.162e-8
0.290, -1.131e-8
0.289, -1.122e-8
0.288, -1.128e-8
0.287, -1.101e-8
0.286, -1.067e-8
0.285, -1.064e-8
0.284, -1.067e-8
0.283, -1.051e-8
0.282, -1.018e-8
0.281, -1.011e-8
0.280, -1.021e-8
0.279, -1.005e-8
0.278, -9.807e-9
0.277, -9.715e-9
0.276, -9.776e-9
0.275, -9.746e-9
0.274, -9.469e-9
0.273, -9.346e-9
0.272, -9.469e-9
0.271, -9.407e-9
0.270, -9.223e-9
0.269, -9.038e-9
0.268, -9.100e-9
0.267, -9.192e-9
0.266, -8.946e-9
0.265, -8.761e-9
0.264, -8.823e-9
0.263, -8.884e-9
0.262, -8.761e-9
0.261, -8.546e-9
0.260, -8.546e-9
0.259, -8.700e-9
0.258, -8.546e-9
0.257, -8.331e-9
0.256, -8.300e-9
0.255, -8.423e-9
0.254, -8.392e-9
0.253, -8.146e-9
0.252, -8.084e-9
0.251, -8.238e-9
0.250, -8.238e-9
0.249, -7.961e-9
0.248, -7.900e-9
0.247, -8.023e-9
0.246, -8.054e-9
0.245, -7.838e-9
0.244, -7.684e-9
0.243, -7.808e-9
0.242, -7.900e-9
0.241, -7.684e-9
0.240, -7.531e-9
0.239, -7.623e-9
0.238, -7.715e-9
0.237, -7.623e-9
0.236, -7.346e-9
0.235, -7.438e-9
0.234, -7.561e-9
0.233, -7.469e-9
0.232, -7.254e-9
0.231, -7.223e-9
0.230, -7.408e-9
0.229, -7.346e-9
0.228, -7.069e-9
0.227, -7.100e-9
0.226, -7.223e-9
0.225, -7.192e-9
0.224, -7.008e-9
0.223, -6.885e-9
0.222, -7.038e-9
0.221, -7.100e-9
0.220, -6.854e-9
0.219, -6.762e-9
0.218, -6.823e-9
0.217, -6.946e-9
0.216, -6.762e-9
0.215, -6.546e-9
0.214, -6.700e-9
0.213, -6.792e-9
0.212, -6.638e-9
0.211, -6.454e-9
0.210, -6.485e-9
0.209, -6.638e-9
0.208, -6.546e-9
0.207, -6.269e-9
0.206, -6.300e-9
0.205, -6.423e-9
0.204, -6.392e-9
0.203, -6.146e-9
0.202, -6.115e-9
0.201, -6.239e-9
0.200, -6.239e-9
0.199, -5.992e-9
0.198, -5.931e-9
0.197, -6.054e-9
0.196, -6.054e-9
0.195, -5.839e-9
0.194, -5.715e-9
0.193, -5.808e-9
0.192, -5.931e-9
0.191, -5.654e-9
0.190, -5.500e-9
0.189, -5.623e-9
0.188, -5.685e-9
0.187, -5.562e-9
0.186, -5.316e-9
0.185, -5.316e-9
0.184, -5.469e-9
0.183, -5.316e-9
0.182, -5.100e-9
0.181, -5.100e-9
0.180, -5.192e-9
0.179, -5.131e-9
0.178, -4.823e-9
0.177, -4.793e-9
0.176, -4.916e-9
0.175, -4.823e-9
0.174, -4.639e-9
0.173, -4.485e-9
0.172, -4.546e-9
0.171, -4.608e-9
0.170, -4.300e-9
0.169, -4.146e-9
0.168, -4.208e-9
0.167, -4.239e-9
0.166, -3.993e-9
0.165, -3.777e-9
0.164, -3.808e-9
0.163, -3.870e-9
0.162, -3.654e-9
0.161, -3.377e-9
0.160, -3.408e-9
0.159, -3.439e-9
0.158, -3.254e-9
0.157, -2.977e-9
0.156, -2.885e-9
0.155, -2.977e-9
0.154, -2.824e-9
0.153, -2.454e-9
0.152, -2.393e-9
0.151, -2.362e-9
0.150, -2.301e-9
0.149, -1.962e-9
0.148, -1.747e-9
0.147, -1.808e-9
0.146, -1.685e-9
0.145, -1.347e-9
0.144, -1.131e-9
0.143, -1.039e-9
0.142, -1.039e-9
0.141, -7.008e-10
0.140, -3.624e-10
0.139, -3.624e-10
0.138, -2.393e-10
0.137, 3.758e-11
0.136, 4.068e-10
0.135, 5.606e-10
0.134, 5.913e-10
0.133, 8.990e-10
0.132, 1.330e-9
0.131, 1.453e-9
0.130, 1.545e-9
0.129, 1.822e-9
0.128, 2.283e-9
0.127, 2.530e-9
0.126, 2.591e-9
0.125, 2.837e-9
0.124, 3.329e-9
0.123, 3.606e-9
0.122, 3.729e-9
0.121, 3.976e-9
0.120, 4.406e-9
0.119, 4.837e-9
0.118, 4.960e-9
0.117, 5.175e-9
0.116, 5.668e-9
0.115, 6.068e-9
0.114, 6.314e-9
0.113, 6.529e-9
0.112, 6.929e-9
0.111, 7.452e-9
0.110, 7.667e-9
0.109, 7.852e-9
0.108, 8.344e-9
0.107, 8.836e-9
0.106, 9.144e-9
0.105, 9.359e-9
0.104, 9.729e-9
0.103, 1.037e-8
0.102, 1.068e-8
0.101, 1.087e-8
0.100, 1.124e-8
0.099, 1.173e-8
0.098, 1.219e-8
0.097, 1.237e-8
0.096, 1.268e-8
0.095, 1.327e-8
0.094, 1.364e-8
0.093, 1.391e-8
0.092, 1.419e-8
0.091, 1.465e-8
0.090, 1.517e-8
0.089, 1.539e-8
0.088, 1.560e-8
0.087, 1.607e-8
0.086, 1.653e-8
0.085, 1.677e-8
0.084, 1.699e-8
0.083, 1.733e-8
0.082, 1.788e-8
0.081, 1.807e-8
0.080, 1.822e-8
0.079, 1.859e-8
0.078, 1.902e-8
0.077, 1.930e-8
0.076, 1.942e-8
0.075, 1.960e-8
0.074, 2.010e-8
0.073, 2.031e-8
0.072, 2.037e-8
0.071, 2.059e-8
0.070, 2.090e-8
0.069, 2.117e-8
0.068, 2.127e-8
0.067, 2.127e-8
0.066, 2.163e-8
0.065, 2.191e-8
0.064, 2.191e-8
0.063, 2.194e-8
0.062, 2.216e-8
0.061, 2.240e-8
0.060, 2.243e-8
0.059, 2.234e-8
0.058, 2.253e-8
0.057, 2.277e-8
0.056, 2.274e-8
0.055, 2.268e-8
0.054, 2.271e-8
0.053, 2.296e-8
0.052, 2.299e-8
0.051, 2.277e-8
0.050, 2.280e-8
0.049, 2.299e-8
0.048, 2.299e-8
0.047, 2.287e-8
0.046, 2.271e-8
0.045, 2.290e-8
0.044, 2.293e-8
0.043, 2.271e-8
0.042, 2.262e-8
0.041, 2.268e-8
0.040, 2.271e-8
0.039, 2.256e-8
0.038, 2.231e-8
0.037, 2.237e-8
0.036, 2.243e-8
0.035, 2.225e-8
0.034, 2.203e-8
0.033, 2.200e-8
0.032, 2.210e-8
0.031, 2.191e-8
0.030, 2.167e-8
0.029, 2.157e-8
0.028, 2.170e-8
0.027, 2.154e-8
0.026, 2.127e-8
0.025, 2.114e-8
0.024, 2.120e-8
0.023, 2.111e-8
0.022, 2.087e-8
0.021, 2.065e-8
0.020, 2.074e-8
0.019, 2.065e-8
0.018, 2.040e-8
0.017, 2.019e-8
0.016, 2.019e-8
0.015, 2.025e-8
0.014, 1.997e-8
0.013, 1.970e-8
0.012, 1.973e-8
0.011, 1.973e-8
0.010, 1.954e-8
0.009, 1.923e-8
0.008, 1.920e-8
0.007, 1.930e-8
0.006, 1.905e-8
0.005, 1.880e-8
0.004, 1.871e-8
0.003, 1.877e-8
0.002, 1.868e-8
0.001, 1.837e-8
0.000, 1.840e-8
-0.001, 1.837e-8
-0.002, 1.825e-8
-0.003, 1.797e-8
-0.004, 1.779e-8
-0.005, 1.788e-8
-0.006, 1.785e-8
-0.007, 1.760e-8
-0.008, 1.739e-8
-0.009, 1.745e-8
-0.010, 1.745e-8
-0.011, 1.720e-8
-0.012, 1.699e-8
-0.013, 1.702e-8
-0.014, 1.705e-8
-0.015, 1.690e-8
-0.016, 1.659e-8
-0.017, 1.662e-8
-0.018, 1.668e-8
-0.019, 1.650e-8
-0.020, 1.628e-8
-0.021, 1.619e-8
-0.022, 1.634e-8
-0.023, 1.622e-8
-0.024, 1.594e-8
-0.025, 1.588e-8
-0.026, 1.600e-8
-0.027, 1.591e-8
-0.028, 1.570e-8
-0.029, 1.551e-8
-0.030, 1.570e-8
-0.031, 1.564e-8
-0.032, 1.542e-8
-0.033, 1.527e-8
-0.034, 1.530e-8
-0.035, 1.539e-8
-0.036, 1.517e-8
-0.037, 1.496e-8
-0.038, 1.505e-8
-0.039, 1.511e-8
-0.040, 1.493e-8
-0.041, 1.474e-8
-0.042, 1.474e-8
-0.043, 1.487e-8
-0.044, 1.474e-8
-0.045, 1.450e-8
-0.046, 1.447e-8
-0.047, 1.465e-8
-0.048, 1.450e-8
-0.049, 1.431e-8
-0.050, 1.422e-8
-0.051, 1.440e-8
-0.052, 1.437e-8
-0.053, 1.413e-8
-0.054, 1.400e-8
-0.055, 1.419e-8
-0.056, 1.416e-8
-0.057, 1.400e-8
-0.058, 1.382e-8
-0.059, 1.391e-8
-0.060, 1.404e-8
-0.061, 1.379e-8
-0.062, 1.364e-8
-0.063, 1.373e-8
-0.064, 1.382e-8
-0.065, 1.373e-8
-0.066, 1.348e-8
-0.067, 1.354e-8
-0.068, 1.370e-8
-0.069, 1.354e-8
-0.070, 1.336e-8
-0.071, 1.336e-8
-0.072, 1.348e-8
-0.073, 1.345e-8
-0.074, 1.321e-8
-0.075, 1.321e-8
-0.076, 1.336e-8
-0.077, 1.333e-8
-0.078, 1.314e-8
-0.079, 1.305e-8
-0.080, 1.321e-8
-0.081, 1.324e-8
-0.082, 1.302e-8
-0.083, 1.293e-8
-0.084, 1.305e-8
-0.085, 1.311e-8
-0.086, 1.296e-8
-0.087, 1.281e-8
-0.088, 1.290e-8
-0.089, 1.305e-8
-0.090, 1.290e-8
-0.091, 1.271e-8
-0.092, 1.277e-8
-0.093, 1.290e-8
-0.094, 1.284e-8
-0.095, 1.262e-8
-0.096, 1.262e-8
-0.097, 1.281e-8
-0.098, 1.274e-8
-0.099, 1.253e-8
-0.100, 1.256e-8
-0.101, 1.268e-8
-0.102, 1.271e-8
-0.103, 1.250e-8
-0.104, 1.241e-8
-0.105, 1.262e-8
-0.106, 1.265e-8
-0.107, 1.247e-8
-0.108, 1.237e-8
-0.109, 1.247e-8
-0.110, 1.259e-8
-0.111, 1.244e-8
-0.112, 1.225e-8
-0.113, 1.241e-8
-0.114, 1.250e-8
-0.115, 1.241e-8
-0.116, 1.225e-8
-0.117, 1.228e-8
-0.118, 1.247e-8
-0.119, 1.237e-8
-0.120, 1.219e-8
-0.121, 1.222e-8
-0.122, 1.237e-8
-0.123, 1.234e-8
-0.124, 1.216e-8
-0.125, 1.213e-8
-0.126, 1.234e-8
-0.127, 1.234e-8
-0.128, 1.216e-8
-0.129, 1.210e-8
-0.130, 1.225e-8
-0.131, 1.231e-8
-0.132, 1.213e-8
-0.133, 1.204e-8
-0.134, 1.219e-8
-0.135, 1.228e-8
-0.136, 1.216e-8
-0.137, 1.201e-8
-0.138, 1.213e-8
-0.139, 1.225e-8
-0.140, 1.216e-8
-0.141, 1.197e-8
-0.142, 1.207e-8
-0.143, 1.228e-8
-0.144, 1.213e-8
-0.145, 1.197e-8
-0.146, 1.204e-8
-0.147, 1.219e-8
-0.148, 1.219e-8
-0.149, 1.197e-8
-0.150, 1.201e-8
-0.151, 1.219e-8
-0.152, 1.216e-8
-0.153, 1.204e-8
-0.154, 1.194e-8
-0.155, 1.213e-8
-0.156, 1.219e-8
-0.157, 1.197e-8
-0.158, 1.194e-8
-0.159, 1.210e-8
-0.160, 1.219e-8
-0.161, 1.210e-8
-0.162, 1.191e-8
-0.163, 1.207e-8
-0.164, 1.222e-8
-0.165, 1.210e-8
-0.166, 1.194e-8
-0.167, 1.204e-8
-0.168, 1.222e-8
-0.169, 1.216e-8
-0.170, 1.197e-8
-0.171, 1.201e-8
-0.172, 1.222e-8
-0.173, 1.219e-8
-0.174, 1.201e-8
-0.175, 1.204e-8
-0.176, 1.222e-8
-0.177, 1.225e-8
-0.178, 1.207e-8
-0.179, 1.204e-8
-0.180, 1.225e-8
-0.181, 1.228e-8
-0.182, 1.213e-8
-0.183, 1.207e-8
-0.184, 1.222e-8
-0.185, 1.234e-8
-0.186, 1.219e-8
-0.187, 1.207e-8
-0.188, 1.225e-8
-0.189, 1.234e-8
-0.190, 1.228e-8
-0.191, 1.213e-8
-0.192, 1.222e-8
-0.193, 1.244e-8
-0.194, 1.234e-8
-0.195, 1.216e-8
-0.196, 1.228e-8
-0.197, 1.244e-8
-0.198, 1.244e-8
-0.199, 1.228e-8
