Mar. 16, 2023   08:57:25
Cyclic Voltammetry
File: c:/users/oliverrz/desktop/electrolab/data/2023_03_16\fcmeoh_macros_250_um\electrode4_cv_150mvs_250_um.bin
Data Source:  Experiment
Instrument Model:  CHI760E
Header: CV
Note: 

Init E (V) = -0.2
High E (V) = 0.3
Low E (V) = -0.2
Final E (V) = -0.2
Init P/N = P
Scan Rate (V/s) = 0.15
Segment = 3
Sample Interval (V) = 0.001
Quiet Time (sec) = 2
Sensitivity (A/V) = 1e-7

Results:

Channel 1:
Segment 1:
Ep = 0.104V
ip = -2.150e-8A
Ah = -9.138e-9C

Segment 2:
Ep = 0.037V
ip = 1.944e-8A
Ah = 8.131e-9C

Segment 3:

Potential/V, Current/A

-0.200, 2.920e-9
-0.199, 2.394e-9
-0.198, 2.362e-9
-0.197, 2.437e-9
-0.196, 2.184e-9
-0.195, 2.389e-9
-0.194, 2.199e-9
-0.193, 2.196e-9
-0.192, 2.288e-9
-0.191, 2.047e-9
-0.190, 2.251e-9
-0.189, 2.078e-9
-0.188, 2.081e-9
-0.187, 2.171e-9
-0.186, 1.948e-9
-0.185, 2.140e-9
-0.184, 1.973e-9
-0.183, 1.988e-9
-0.182, 2.063e-9
-0.181, 1.850e-9
-0.180, 2.057e-9
-0.179, 1.863e-9
-0.178, 1.899e-9
-0.177, 1.977e-9
-0.176, 1.754e-9
-0.175, 1.981e-9
-0.174, 1.788e-9
-0.173, 1.810e-9
-0.172, 1.908e-9
-0.171, 1.678e-9
-0.170, 1.890e-9
-0.169, 1.722e-9
-0.168, 1.741e-9
-0.167, 1.820e-9
-0.166, 1.607e-9
-0.165, 1.826e-9
-0.164, 1.643e-9
-0.163, 1.676e-9
-0.162, 1.763e-9
-0.161, 1.527e-9
-0.160, 1.769e-9
-0.159, 1.583e-9
-0.158, 1.596e-9
-0.157, 1.710e-9
-0.156, 1.476e-9
-0.155, 1.695e-9
-0.154, 1.531e-9
-0.153, 1.536e-9
-0.152, 1.642e-9
-0.151, 1.428e-9
-0.150, 1.630e-9
-0.149, 1.474e-9
-0.148, 1.491e-9
-0.147, 1.586e-9
-0.146, 1.367e-9
-0.145, 1.584e-9
-0.144, 1.418e-9
-0.143, 1.443e-9
-0.142, 1.535e-9
-0.141, 1.318e-9
-0.140, 1.533e-9
-0.139, 1.371e-9
-0.138, 1.394e-9
-0.137, 1.484e-9
-0.136, 1.277e-9
-0.135, 1.493e-9
-0.134, 1.317e-9
-0.133, 1.355e-9
-0.132, 1.445e-9
-0.131, 1.224e-9
-0.130, 1.455e-9
-0.129, 1.269e-9
-0.128, 1.300e-9
-0.127, 1.410e-9
-0.126, 1.179e-9
-0.125, 1.404e-9
-0.124, 1.243e-9
-0.123, 1.250e-9
-0.122, 1.368e-9
-0.121, 1.139e-9
-0.120, 1.364e-9
-0.119, 1.204e-9
-0.118, 1.216e-9
-0.117, 1.317e-9
-0.116, 1.101e-9
-0.115, 1.322e-9
-0.114, 1.159e-9
-0.113, 1.173e-9
-0.112, 1.288e-9
-0.111, 1.062e-9
-0.110, 1.282e-9
-0.109, 1.130e-9
-0.108, 1.131e-9
-0.107, 1.247e-9
-0.106, 1.023e-9
-0.105, 1.236e-9
-0.104, 1.091e-9
-0.103, 1.091e-9
-0.102, 1.191e-9
-0.101, 9.900e-10
-0.100, 1.192e-9
-0.099, 1.036e-9
-0.098, 1.073e-9
-0.097, 1.148e-9
-0.096, 9.426e-10
-0.095, 1.171e-9
-0.094, 9.864e-10
-0.093, 1.014e-9
-0.092, 1.126e-9
-0.091, 8.903e-10
-0.090, 1.122e-9
-0.089, 9.438e-10
-0.088, 9.710e-10
-0.087, 1.077e-9
-0.086, 8.447e-10
-0.085, 1.077e-9
-0.084, 8.988e-10
-0.083, 9.284e-10
-0.082, 1.029e-9
-0.081, 7.919e-10
-0.080, 1.028e-9
-0.079, 8.600e-10
-0.078, 8.629e-10
-0.077, 9.720e-10
-0.076, 7.464e-10
-0.075, 9.623e-10
-0.074, 8.052e-10
-0.073, 8.004e-10
-0.072, 9.200e-10
-0.071, 6.950e-10
-0.070, 8.936e-10
-0.069, 7.363e-10
-0.068, 7.505e-10
-0.067, 8.495e-10
-0.066, 6.264e-10
-0.065, 8.325e-10
-0.064, 6.602e-10
-0.063, 6.827e-10
-0.062, 7.776e-10
-0.061, 5.372e-10
-0.060, 7.641e-10
-0.059, 5.880e-10
-0.058, 5.954e-10
-0.057, 6.865e-10
-0.056, 4.722e-10
-0.055, 6.709e-10
-0.054, 4.985e-10
-0.053, 5.071e-10
-0.052, 5.857e-10
-0.051, 3.686e-10
-0.050, 5.772e-10
-0.049, 3.856e-10
-0.048, 4.138e-10
-0.047, 4.848e-10
-0.046, 2.431e-10
-0.045, 4.705e-10
-0.044, 2.719e-10
-0.043, 2.752e-10
-0.042, 3.764e-10
-0.041, 1.164e-10
-0.040, 3.301e-10
-0.039, 1.524e-10
-0.038, 1.280e-10
-0.037, 2.234e-10
-0.036, -1.669e-11
-0.035, 1.748e-10
-0.034, -1.107e-11
-0.033, -2.563e-11
-0.032, 5.412e-11
-0.031, -1.877e-10
-0.030, -9.595e-12
-0.029, -1.939e-10
-0.028, -2.199e-10
-0.027, -1.389e-10
-0.026, -3.987e-10
-0.025, -2.278e-10
-0.024, -4.097e-10
-0.023, -4.328e-10
-0.022, -3.816e-10
-0.021, -6.313e-10
-0.020, -4.684e-10
-0.019, -6.802e-10
-0.018, -6.955e-10
-0.017, -6.556e-10
-0.016, -9.188e-10
-0.015, -7.518e-10
-0.014, -9.773e-10
-0.013, -1.012e-9
-0.012, -9.676e-10
-0.011, -1.251e-9
-0.010, -1.096e-9
-0.009, -1.327e-9
-0.008, -1.378e-9
-0.007, -1.336e-9
-0.006, -1.640e-9
-0.005, -1.504e-9
-0.004, -1.735e-9
-0.003, -1.808e-9
-0.002, -1.787e-9
-0.001, -2.099e-9
-0.000, -2.039e-9
0.001, -2.256e-9
0.002, -2.324e-9
0.003, -2.319e-9
0.004, -2.653e-9
0.005, -2.526e-9
0.006, -2.797e-9
0.007, -2.928e-9
0.008, -2.912e-9
0.009, -3.269e-9
0.010, -3.192e-9
0.011, -3.453e-9
0.012, -3.593e-9
0.013, -3.633e-9
0.014, -3.966e-9
0.015, -3.932e-9
0.016, -4.228e-9
0.017, -4.363e-9
0.018, -4.446e-9
0.019, -4.805e-9
0.020, -4.764e-9
0.021, -5.109e-9
0.022, -5.272e-9
0.023, -5.355e-9
0.024, -5.749e-9
0.025, -5.745e-9
0.026, -6.107e-9
0.027, -6.287e-9
0.028, -6.406e-9
0.029, -6.826e-9
0.030, -6.824e-9
0.031, -7.226e-9
0.032, -7.430e-9
0.033, -7.561e-9
0.034, -8.025e-9
0.035, -8.030e-9
0.036, -8.454e-9
0.037, -8.688e-9
0.038, -8.836e-9
0.039, -9.314e-9
0.040, -9.350e-9
0.041, -9.774e-9
0.042, -1.004e-8
0.043, -1.020e-8
0.044, -1.069e-8
0.045, -1.076e-8
0.046, -1.118e-8
0.047, -1.148e-8
0.048, -1.163e-8
0.049, -1.213e-8
0.050, -1.222e-8
0.051, -1.266e-8
0.052, -1.294e-8
0.053, -1.313e-8
0.054, -1.361e-8
0.055, -1.372e-8
0.056, -1.413e-8
0.057, -1.443e-8
0.058, -1.462e-8
0.059, -1.509e-8
0.060, -1.520e-8
0.061, -1.561e-8
0.062, -1.587e-8
0.063, -1.609e-8
0.064, -1.651e-8
0.065, -1.660e-8
0.066, -1.703e-8
0.067, -1.723e-8
0.068, -1.742e-8
0.069, -1.785e-8
0.070, -1.788e-8
0.071, -1.831e-8
0.072, -1.849e-8
0.073, -1.861e-8
0.074, -1.905e-8
0.075, -1.905e-8
0.076, -1.939e-8
0.077, -1.959e-8
0.078, -1.968e-8
0.079, -2.005e-8
0.080, -2.000e-8
0.081, -2.033e-8
0.082, -2.048e-8
0.083, -2.051e-8
0.084, -2.086e-8
0.085, -2.078e-8
0.086, -2.104e-8
0.087, -2.117e-8
0.088, -2.114e-8
0.089, -2.145e-8
0.090, -2.136e-8
0.091, -2.155e-8
0.092, -2.164e-8
0.093, -2.158e-8
0.094, -2.184e-8
0.095, -2.171e-8
0.096, -2.186e-8
0.097, -2.189e-8
0.098, -2.182e-8
0.099, -2.203e-8
0.100, -2.185e-8
0.101, -2.200e-8
0.102, -2.200e-8
0.103, -2.189e-8
0.104, -2.207e-8
0.105, -2.184e-8
0.106, -2.197e-8
0.107, -2.192e-8
0.108, -2.178e-8
0.109, -2.194e-8
0.110, -2.170e-8
0.111, -2.181e-8
0.112, -2.172e-8
0.113, -2.157e-8
0.114, -2.172e-8
0.115, -2.143e-8
0.116, -2.153e-8
0.117, -2.143e-8
0.118, -2.125e-8
0.119, -2.140e-8
0.120, -2.108e-8
0.121, -2.116e-8
0.122, -2.108e-8
0.123, -2.086e-8
0.124, -2.100e-8
0.125, -2.070e-8
0.126, -2.074e-8
0.127, -2.066e-8
0.128, -2.046e-8
0.129, -2.057e-8
0.130, -2.027e-8
0.131, -2.031e-8
0.132, -2.021e-8
0.133, -2.001e-8
0.134, -2.012e-8
0.135, -1.981e-8
0.136, -1.986e-8
0.137, -1.975e-8
0.138, -1.955e-8
0.139, -1.967e-8
0.140, -1.936e-8
0.141, -1.940e-8
0.142, -1.931e-8
0.143, -1.910e-8
0.144, -1.921e-8
0.145, -1.891e-8
0.146, -1.898e-8
0.147, -1.885e-8
0.148, -1.866e-8
0.149, -1.878e-8
0.150, -1.847e-8
0.151, -1.854e-8
0.152, -1.843e-8
0.153, -1.822e-8
0.154, -1.837e-8
0.155, -1.806e-8
0.156, -1.812e-8
0.157, -1.804e-8
0.158, -1.782e-8
0.159, -1.797e-8
0.160, -1.766e-8
0.161, -1.774e-8
0.162, -1.765e-8
0.163, -1.744e-8
0.164, -1.760e-8
0.165, -1.730e-8
0.166, -1.737e-8
0.167, -1.730e-8
0.168, -1.708e-8
0.169, -1.724e-8
0.170, -1.695e-8
0.171, -1.702e-8
0.172, -1.696e-8
0.173, -1.676e-8
0.174, -1.691e-8
0.175, -1.665e-8
0.176, -1.671e-8
0.177, -1.665e-8
0.178, -1.648e-8
0.179, -1.662e-8
0.180, -1.635e-8
0.181, -1.644e-8
0.182, -1.636e-8
0.183, -1.619e-8
0.184, -1.635e-8
0.185, -1.606e-8
0.186, -1.617e-8
0.187, -1.611e-8
0.188, -1.592e-8
0.189, -1.610e-8
0.190, -1.583e-8
0.191, -1.592e-8
0.192, -1.587e-8
0.193, -1.570e-8
0.194, -1.587e-8
0.195, -1.560e-8
0.196, -1.570e-8
0.197, -1.565e-8
0.198, -1.548e-8
0.199, -1.567e-8
0.200, -1.538e-8
0.201, -1.550e-8
0.202, -1.546e-8
0.203, -1.528e-8
0.204, -1.548e-8
0.205, -1.522e-8
0.206, -1.531e-8
0.207, -1.528e-8
0.208, -1.510e-8
0.209, -1.529e-8
0.210, -1.504e-8
0.211, -1.514e-8
0.212, -1.510e-8
0.213, -1.495e-8
0.214, -1.513e-8
0.215, -1.488e-8
0.216, -1.498e-8
0.217, -1.495e-8
0.218, -1.480e-8
0.219, -1.499e-8
0.220, -1.474e-8
0.221, -1.485e-8
0.222, -1.482e-8
0.223, -1.467e-8
0.224, -1.485e-8
0.225, -1.461e-8
0.226, -1.473e-8
0.227, -1.470e-8
0.228, -1.456e-8
0.229, -1.474e-8
0.230, -1.450e-8
0.231, -1.463e-8
0.232, -1.458e-8
0.233, -1.444e-8
0.234, -1.465e-8
0.235, -1.439e-8
0.236, -1.453e-8
0.237, -1.450e-8
0.238, -1.434e-8
0.239, -1.456e-8
0.240, -1.431e-8
0.241, -1.442e-8
0.242, -1.443e-8
0.243, -1.427e-8
0.244, -1.446e-8
0.245, -1.424e-8
0.246, -1.436e-8
0.247, -1.434e-8
0.248, -1.420e-8
0.249, -1.440e-8
0.250, -1.417e-8
0.251, -1.429e-8
0.252, -1.428e-8
0.253, -1.413e-8
0.254, -1.434e-8
0.255, -1.411e-8
0.256, -1.424e-8
0.257, -1.422e-8
0.258, -1.409e-8
0.259, -1.428e-8
0.260, -1.406e-8
0.261, -1.420e-8
0.262, -1.417e-8
0.263, -1.404e-8
0.264, -1.425e-8
0.265, -1.402e-8
0.266, -1.416e-8
0.267, -1.415e-8
0.268, -1.401e-8
0.269, -1.422e-8
0.270, -1.399e-8
0.271, -1.413e-8
0.272, -1.412e-8
0.273, -1.398e-8
0.274, -1.421e-8
0.275, -1.397e-8
0.276, -1.411e-8
0.277, -1.411e-8
0.278, -1.397e-8
0.279, -1.420e-8
0.280, -1.396e-8
0.281, -1.411e-8
0.282, -1.411e-8
0.283, -1.396e-8
0.284, -1.420e-8
0.285, -1.396e-8
0.286, -1.410e-8
0.287, -1.412e-8
0.288, -1.396e-8
0.289, -1.419e-8
0.290, -1.399e-8
0.291, -1.410e-8
0.292, -1.412e-8
0.293, -1.399e-8
0.294, -1.421e-8
0.295, -1.400e-8
0.296, -1.414e-8
0.297, -1.413e-8
0.298, -1.402e-8
0.299, -1.424e-8
0.300, -1.232e-8
0.299, -1.146e-8
0.298, -1.123e-8
0.297, -1.089e-8
0.296, -1.099e-8
0.295, -1.064e-8
0.294, -1.065e-8
0.293, -1.058e-8
0.292, -1.032e-8
0.291, -1.047e-8
0.290, -1.017e-8
0.289, -1.022e-8
0.288, -1.016e-8
0.287, -9.952e-9
0.286, -1.011e-8
0.285, -9.825e-9
0.284, -9.891e-9
0.283, -9.851e-9
0.282, -9.647e-9
0.281, -9.818e-9
0.280, -9.556e-9
0.279, -9.631e-9
0.278, -9.588e-9
0.277, -9.411e-9
0.276, -9.578e-9
0.275, -9.330e-9
0.274, -9.418e-9
0.273, -9.367e-9
0.272, -9.203e-9
0.271, -9.379e-9
0.270, -9.117e-9
0.269, -9.222e-9
0.268, -9.180e-9
0.267, -9.013e-9
0.266, -9.203e-9
0.265, -8.939e-9
0.264, -9.045e-9
0.263, -9.019e-9
0.262, -8.842e-9
0.261, -9.032e-9
0.260, -8.776e-9
0.259, -8.890e-9
0.258, -8.859e-9
0.257, -8.687e-9
0.256, -8.882e-9
0.255, -8.627e-9
0.254, -8.741e-9
0.253, -8.715e-9
0.252, -8.537e-9
0.251, -8.750e-9
0.250, -8.492e-9
0.249, -8.591e-9
0.248, -8.587e-9
0.247, -8.405e-9
0.246, -8.604e-9
0.245, -8.374e-9
0.244, -8.448e-9
0.243, -8.449e-9
0.242, -8.294e-9
0.241, -8.465e-9
0.240, -8.244e-9
0.239, -8.345e-9
0.238, -8.308e-9
0.237, -8.171e-9
0.236, -8.354e-9
0.235, -8.106e-9
0.234, -8.224e-9
0.233, -8.199e-9
0.232, -8.028e-9
0.231, -8.242e-9
0.230, -7.991e-9
0.229, -8.090e-9
0.228, -8.082e-9
0.227, -7.923e-9
0.226, -8.114e-9
0.225, -7.872e-9
0.224, -7.983e-9
0.223, -7.956e-9
0.222, -7.801e-9
0.221, -8.007e-9
0.220, -7.743e-9
0.219, -7.867e-9
0.218, -7.843e-9
0.217, -7.669e-9
0.216, -7.880e-9
0.215, -7.634e-9
0.214, -7.738e-9
0.213, -7.726e-9
0.212, -7.547e-9
0.211, -7.754e-9
0.210, -7.518e-9
0.209, -7.609e-9
0.208, -7.599e-9
0.207, -7.428e-9
0.206, -7.626e-9
0.205, -7.380e-9
0.204, -7.470e-9
0.203, -7.468e-9
0.202, -7.297e-9
0.201, -7.483e-9
0.200, -7.241e-9
0.199, -7.337e-9
0.198, -7.323e-9
0.197, -7.156e-9
0.196, -7.335e-9
0.195, -7.098e-9
0.194, -7.199e-9
0.193, -7.164e-9
0.192, -7.003e-9
0.191, -7.189e-9
0.190, -6.933e-9
0.189, -7.046e-9
0.188, -7.000e-9
0.187, -6.831e-9
0.186, -7.031e-9
0.185, -6.755e-9
0.184, -6.861e-9
0.183, -6.837e-9
0.182, -6.648e-9
0.181, -6.839e-9
0.180, -6.579e-9
0.179, -6.663e-9
0.178, -6.642e-9
0.177, -6.451e-9
0.176, -6.634e-9
0.175, -6.370e-9
0.174, -6.458e-9
0.173, -6.422e-9
0.172, -6.220e-9
0.171, -6.412e-9
0.170, -6.141e-9
0.169, -6.210e-9
0.168, -6.183e-9
0.167, -5.967e-9
0.166, -6.145e-9
0.165, -5.887e-9
0.164, -5.927e-9
0.163, -5.909e-9
0.162, -5.696e-9
0.161, -5.841e-9
0.160, -5.585e-9
0.159, -5.636e-9
0.158, -5.565e-9
0.157, -5.377e-9
0.156, -5.507e-9
0.155, -5.235e-9
0.154, -5.277e-9
0.153, -5.206e-9
0.152, -4.990e-9
0.151, -5.128e-9
0.150, -4.835e-9
0.149, -4.871e-9
0.148, -4.784e-9
0.147, -4.564e-9
0.146, -4.687e-9
0.145, -4.367e-9
0.144, -4.408e-9
0.143, -4.303e-9
0.142, -4.052e-9
0.141, -4.175e-9
0.140, -3.827e-9
0.139, -3.860e-9
0.138, -3.753e-9
0.137, -3.476e-9
0.136, -3.583e-9
0.135, -3.247e-9
0.134, -3.232e-9
0.133, -3.119e-9
0.132, -2.818e-9
0.131, -2.914e-9
0.130, -2.552e-9
0.129, -2.513e-9
0.128, -2.365e-9
0.127, -2.078e-9
0.126, -2.124e-9
0.125, -1.753e-9
0.124, -1.687e-9
0.123, -1.548e-9
0.122, -1.216e-9
0.121, -1.245e-9
0.120, -8.497e-10
0.119, -7.736e-10
0.118, -6.057e-10
0.117, -2.405e-10
0.116, -2.353e-10
0.115, 1.546e-10
0.114, 2.689e-10
0.113, 4.829e-10
0.112, 8.271e-10
0.111, 8.761e-10
0.110, 1.307e-9
0.109, 1.409e-9
0.108, 1.678e-9
0.107, 2.027e-9
0.106, 2.067e-9
0.105, 2.559e-9
0.104, 2.671e-9
0.103, 2.942e-9
0.102, 3.354e-9
0.101, 3.395e-9
0.100, 3.895e-9
0.099, 4.030e-9
0.098, 4.294e-9
0.097, 4.729e-9
0.096, 4.801e-9
0.095, 5.288e-9
0.094, 5.453e-9
0.093, 5.729e-9
0.092, 6.182e-9
0.091, 6.246e-9
0.090, 6.751e-9
0.089, 6.941e-9
0.088, 7.193e-9
0.087, 7.653e-9
0.086, 7.729e-9
0.085, 8.213e-9
0.084, 8.415e-9
0.083, 8.664e-9
0.082, 9.108e-9
0.081, 9.206e-9
0.080, 9.670e-9
0.079, 9.845e-9
0.078, 1.011e-8
0.077, 1.052e-8
0.076, 1.061e-8
0.075, 1.106e-8
0.074, 1.120e-8
0.073, 1.145e-8
0.072, 1.183e-8
0.071, 1.188e-8
0.070, 1.231e-8
0.069, 1.242e-8
0.068, 1.265e-8
0.067, 1.298e-8
0.066, 1.301e-8
0.065, 1.342e-8
0.064, 1.350e-8
0.063, 1.370e-8
0.062, 1.399e-8
0.061, 1.396e-8
0.060, 1.437e-8
0.059, 1.438e-8
0.058, 1.453e-8
0.057, 1.482e-8
0.056, 1.473e-8
0.055, 1.508e-8
0.054, 1.507e-8
0.053, 1.516e-8
0.052, 1.545e-8
0.051, 1.531e-8
0.050, 1.559e-8
0.049, 1.558e-8
0.048, 1.561e-8
0.047, 1.581e-8
0.046, 1.568e-8
0.045, 1.592e-8
0.044, 1.587e-8
0.043, 1.587e-8
0.042, 1.602e-8
0.041, 1.587e-8
0.040, 1.607e-8
0.039, 1.596e-8
0.038, 1.596e-8
0.037, 1.609e-8
0.036, 1.589e-8
0.035, 1.605e-8
0.034, 1.593e-8
0.033, 1.589e-8
0.032, 1.599e-8
0.031, 1.577e-8
0.030, 1.591e-8
0.029, 1.576e-8
0.028, 1.572e-8
0.027, 1.579e-8
0.026, 1.554e-8
0.025, 1.570e-8
0.024, 1.551e-8
0.023, 1.543e-8
0.022, 1.551e-8
0.021, 1.521e-8
0.020, 1.537e-8
0.019, 1.517e-8
0.018, 1.507e-8
0.017, 1.516e-8
0.016, 1.485e-8
0.015, 1.499e-8
0.014, 1.479e-8
0.013, 1.469e-8
0.012, 1.477e-8
0.011, 1.445e-8
0.010, 1.457e-8
0.009, 1.439e-8
0.008, 1.427e-8
0.007, 1.434e-8
0.006, 1.403e-8
0.005, 1.415e-8
0.004, 1.397e-8
0.003, 1.383e-8
0.002, 1.391e-8
0.001, 1.361e-8
0.000, 1.379e-8
-0.001, 1.355e-8
-0.002, 1.343e-8
-0.003, 1.348e-8
-0.004, 1.320e-8
-0.005, 1.330e-8
-0.006, 1.310e-8
-0.007, 1.301e-8
-0.008, 1.307e-8
-0.009, 1.277e-8
-0.010, 1.289e-8
-0.011, 1.270e-8
-0.012, 1.260e-8
-0.013, 1.267e-8
-0.014, 1.236e-8
-0.015, 1.250e-8
-0.016, 1.231e-8
-0.017, 1.221e-8
-0.018, 1.228e-8
-0.019, 1.200e-8
-0.020, 1.214e-8
-0.021, 1.194e-8
-0.022, 1.185e-8
-0.023, 1.194e-8
-0.024, 1.163e-8
-0.025, 1.179e-8
-0.026, 1.160e-8
-0.027, 1.150e-8
-0.028, 1.161e-8
-0.029, 1.130e-8
-0.030, 1.144e-8
-0.031, 1.130e-8
-0.032, 1.118e-8
-0.033, 1.128e-8
-0.034, 1.101e-8
-0.035, 1.113e-8
-0.036, 1.098e-8
-0.037, 1.090e-8
-0.038, 1.098e-8
-0.039, 1.072e-8
-0.040, 1.086e-8
-0.041, 1.070e-8
-0.042, 1.061e-8
-0.043, 1.072e-8
-0.044, 1.045e-8
-0.045, 1.059e-8
-0.046, 1.045e-8
-0.047, 1.037e-8
-0.048, 1.046e-8
-0.049, 1.021e-8
-0.050, 1.036e-8
-0.051, 1.020e-8
-0.052, 1.014e-8
-0.053, 1.024e-8
-0.054, 9.966e-9
-0.055, 1.014e-8
-0.056, 9.983e-9
-0.057, 9.912e-9
-0.058, 1.003e-8
-0.059, 9.757e-9
-0.060, 9.938e-9
-0.061, 9.781e-9
-0.062, 9.709e-9
-0.063, 9.840e-9
-0.064, 9.572e-9
-0.065, 9.737e-9
-0.066, 9.601e-9
-0.067, 9.531e-9
-0.068, 9.656e-9
-0.069, 9.394e-9
-0.070, 9.562e-9
-0.071, 9.433e-9
-0.072, 9.358e-9
-0.073, 9.493e-9
-0.074, 9.231e-9
-0.075, 9.406e-9
-0.076, 9.281e-9
-0.077, 9.200e-9
-0.078, 9.330e-9
-0.079, 9.093e-9
-0.080, 9.247e-9
-0.081, 9.133e-9
-0.082, 9.068e-9
-0.083, 9.184e-9
-0.084, 8.954e-9
-0.085, 9.119e-9
-0.086, 8.983e-9
-0.087, 8.938e-9
-0.088, 9.060e-9
-0.089, 8.806e-9
-0.090, 9.007e-9
-0.091, 8.865e-9
-0.092, 8.806e-9
-0.093, 8.946e-9
-0.094, 8.690e-9
-0.095, 8.880e-9
-0.096, 8.754e-9
-0.097, 8.688e-9
-0.098, 8.828e-9
-0.099, 8.589e-9
-0.100, 8.772e-9
-0.101, 8.639e-9
-0.102, 8.600e-9
-0.103, 8.730e-9
-0.104, 8.471e-9
-0.105, 8.680e-9
-0.106, 8.541e-9
-0.107, 8.480e-9
-0.108, 8.648e-9
-0.109, 8.373e-9
-0.110, 8.566e-9
-0.111, 8.463e-9
-0.112, 8.387e-9
-0.113, 8.544e-9
-0.114, 8.305e-9
-0.115, 8.479e-9
-0.116, 8.374e-9
-0.117, 8.315e-9
-0.118, 8.452e-9
-0.119, 8.224e-9
-0.120, 8.406e-9
-0.121, 8.283e-9
-0.122, 8.240e-9
-0.123, 8.381e-9
-0.124, 8.156e-9
-0.125, 8.323e-9
-0.126, 8.219e-9
-0.127, 8.171e-9
-0.128, 8.315e-9
-0.129, 8.082e-9
-0.130, 8.269e-9
-0.131, 8.151e-9
-0.132, 8.110e-9
-0.133, 8.250e-9
-0.134, 8.013e-9
-0.135, 8.213e-9
-0.136, 8.094e-9
-0.137, 8.041e-9
-0.138, 8.202e-9
-0.139, 7.956e-9
-0.140, 8.155e-9
-0.141, 8.045e-9
-0.142, 7.986e-9
-0.143, 8.149e-9
-0.144, 7.909e-9
-0.145, 8.097e-9
-0.146, 7.994e-9
-0.147, 7.938e-9
-0.148, 8.106e-9
-0.149, 7.856e-9
-0.150, 8.057e-9
-0.151, 7.951e-9
-0.152, 7.894e-9
-0.153, 8.062e-9
-0.154, 7.820e-9
-0.155, 8.017e-9
-0.156, 7.923e-9
-0.157, 7.855e-9
-0.158, 8.018e-9
-0.159, 7.793e-9
-0.160, 7.970e-9
-0.161, 7.882e-9
-0.162, 7.829e-9
-0.163, 7.975e-9
-0.164, 7.764e-9
-0.165, 7.951e-9
-0.166, 7.838e-9
-0.167, 7.811e-9
-0.168, 7.957e-9
-0.169, 7.719e-9
-0.170, 7.932e-9
-0.171, 7.819e-9
-0.172, 7.773e-9
-0.173, 7.946e-9
-0.174, 7.700e-9
-0.175, 7.906e-9
-0.176, 7.804e-9
-0.177, 7.756e-9
-0.178, 7.912e-9
-0.179, 7.697e-9
-0.180, 7.891e-9
-0.181, 7.779e-9
-0.182, 7.747e-9
-0.183, 7.912e-9
-0.184, 7.669e-9
-0.185, 7.886e-9
-0.186, 7.779e-9
-0.187, 7.726e-9
-0.188, 7.919e-9
-0.189, 7.662e-9
-0.190, 7.865e-9
-0.191, 7.789e-9
-0.192, 7.723e-9
-0.193, 7.896e-9
-0.194, 7.683e-9
-0.195, 7.863e-9
-0.196, 7.784e-9
-0.197, 7.734e-9
-0.198, 7.893e-9
-0.199, 7.681e-9
