Mar. 16, 2023   09:02:51
Cyclic Voltammetry
File: c:/users/oliverrz/desktop/electrolab/data/2023_03_16\fcmeoh_macros_250_um\electrode8_cv_200mvs_250_um.bin
Data Source:  Experiment
Instrument Model:  CHI760E
Header: CV
Note: 

Init E (V) = -0.2
High E (V) = 0.3
Low E (V) = -0.2
Final E (V) = -0.2
Init P/N = P
Scan Rate (V/s) = 0.2
Segment = 3
Sample Interval (V) = 0.001
Quiet Time (sec) = 2
Sensitivity (A/V) = 1e-7

Results:

Channel 1:
Segment 1:
Ep = 0.065V
ip = -1.970e-8A
Ah = -6.127e-9C

Segment 2:
Ep = 0.000V
ip = 2.180e-8A
Ah = 6.910e-9C

Segment 3:

Potential/V, Current/A

-0.200, 7.313e-9
-0.199, 6.119e-9
-0.198, 6.020e-9
-0.197, 5.993e-9
-0.196, 5.605e-9
-0.195, 5.491e-9
-0.194, 5.586e-9
-0.193, 5.312e-9
-0.192, 5.063e-9
-0.191, 5.201e-9
-0.190, 5.059e-9
-0.189, 4.769e-9
-0.188, 4.787e-9
-0.187, 4.834e-9
-0.186, 4.521e-9
-0.185, 4.415e-9
-0.184, 4.569e-9
-0.183, 4.343e-9
-0.182, 4.091e-9
-0.181, 4.268e-9
-0.180, 4.137e-9
-0.179, 3.862e-9
-0.178, 3.922e-9
-0.177, 3.952e-9
-0.176, 3.675e-9
-0.175, 3.602e-9
-0.174, 3.731e-9
-0.173, 3.534e-9
-0.172, 3.307e-9
-0.171, 3.477e-9
-0.170, 3.389e-9
-0.169, 3.096e-9
-0.168, 3.162e-9
-0.167, 3.233e-9
-0.166, 2.926e-9
-0.165, 2.884e-9
-0.164, 3.019e-9
-0.163, 2.837e-9
-0.162, 2.616e-9
-0.161, 2.778e-9
-0.160, 2.709e-9
-0.159, 2.444e-9
-0.158, 2.502e-9
-0.157, 2.590e-9
-0.156, 2.287e-9
-0.155, 2.252e-9
-0.154, 2.399e-9
-0.153, 2.198e-9
-0.152, 2.005e-9
-0.151, 2.187e-9
-0.150, 2.100e-9
-0.149, 1.849e-9
-0.148, 1.909e-9
-0.147, 2.001e-9
-0.146, 1.721e-9
-0.145, 1.656e-9
-0.144, 1.844e-9
-0.143, 1.649e-9
-0.142, 1.440e-9
-0.141, 1.640e-9
-0.140, 1.543e-9
-0.139, 1.302e-9
-0.138, 1.384e-9
-0.137, 1.452e-9
-0.136, 1.192e-9
-0.135, 1.150e-9
-0.134, 1.309e-9
-0.133, 1.140e-9
-0.132, 9.247e-10
-0.131, 1.126e-9
-0.130, 1.063e-9
-0.129, 7.863e-10
-0.128, 8.679e-10
-0.127, 9.709e-10
-0.126, 6.865e-10
-0.125, 6.610e-10
-0.124, 8.195e-10
-0.123, 6.417e-10
-0.122, 4.524e-10
-0.121, 6.304e-10
-0.120, 5.949e-10
-0.119, 3.180e-10
-0.118, 3.963e-10
-0.117, 4.977e-10
-0.116, 2.191e-10
-0.115, 1.796e-10
-0.114, 3.589e-10
-0.113, 1.671e-10
-0.112, -2.638e-12
-0.111, 1.829e-10
-0.110, 1.139e-10
-0.109, -1.288e-10
-0.108, -6.535e-11
-0.107, 4.826e-11
-0.106, -2.157e-10
-0.105, -2.780e-10
-0.104, -8.445e-11
-0.103, -2.710e-10
-0.102, -4.783e-10
-0.101, -2.694e-10
-0.100, -3.378e-10
-0.099, -5.870e-10
-0.098, -5.051e-10
-0.097, -4.224e-10
-0.096, -6.644e-10
-0.095, -7.266e-10
-0.094, -5.565e-10
-0.093, -7.107e-10
-0.092, -9.304e-10
-0.091, -7.409e-10
-0.090, -7.873e-10
-0.089, -1.068e-9
-0.088, -9.705e-10
-0.087, -8.806e-10
-0.086, -1.154e-9
-0.085, -1.194e-9
-0.084, -1.036e-9
-0.083, -1.208e-9
-0.082, -1.397e-9
-0.081, -1.248e-9
-0.080, -1.274e-9
-0.079, -1.556e-9
-0.078, -1.497e-9
-0.077, -1.408e-9
-0.076, -1.668e-9
-0.075, -1.737e-9
-0.074, -1.558e-9
-0.073, -1.771e-9
-0.072, -1.951e-9
-0.071, -1.798e-9
-0.070, -1.859e-9
-0.069, -2.131e-9
-0.068, -2.072e-9
-0.067, -2.000e-9
-0.066, -2.263e-9
-0.065, -2.363e-9
-0.064, -2.189e-9
-0.063, -2.391e-9
-0.062, -2.621e-9
-0.061, -2.449e-9
-0.060, -2.533e-9
-0.059, -2.825e-9
-0.058, -2.763e-9
-0.057, -2.731e-9
-0.056, -2.998e-9
-0.055, -3.104e-9
-0.054, -2.959e-9
-0.053, -3.181e-9
-0.052, -3.418e-9
-0.051, -3.285e-9
-0.050, -3.372e-9
-0.049, -3.699e-9
-0.048, -3.635e-9
-0.047, -3.614e-9
-0.046, -3.924e-9
-0.045, -4.054e-9
-0.044, -3.932e-9
-0.043, -4.179e-9
-0.042, -4.422e-9
-0.041, -4.341e-9
-0.040, -4.430e-9
-0.039, -4.794e-9
-0.038, -4.800e-9
-0.037, -4.777e-9
-0.036, -5.120e-9
-0.035, -5.282e-9
-0.034, -5.183e-9
-0.033, -5.483e-9
-0.032, -5.743e-9
-0.031, -5.706e-9
-0.030, -5.841e-9
-0.029, -6.223e-9
-0.028, -6.272e-9
-0.027, -6.302e-9
-0.026, -6.672e-9
-0.025, -6.901e-9
-0.024, -6.827e-9
-0.023, -7.152e-9
-0.022, -7.494e-9
-0.021, -7.472e-9
-0.020, -7.684e-9
-0.019, -8.091e-9
-0.018, -8.177e-9
-0.017, -8.288e-9
-0.016, -8.676e-9
-0.015, -8.947e-9
-0.014, -8.945e-9
-0.013, -9.310e-9
-0.012, -9.707e-9
-0.011, -9.737e-9
-0.010, -9.960e-9
-0.009, -1.046e-8
-0.008, -1.058e-8
-0.007, -1.073e-8
-0.006, -1.119e-8
-0.005, -1.150e-8
-0.004, -1.156e-8
-0.003, -1.195e-8
-0.002, -1.239e-8
-0.001, -1.251e-8
-0.000, -1.292e-8
0.001, -1.335e-8
0.002, -1.352e-8
0.003, -1.368e-8
0.004, -1.421e-8
0.005, -1.454e-8
0.006, -1.461e-8
0.007, -1.511e-8
0.008, -1.555e-8
0.009, -1.569e-8
0.010, -1.600e-8
0.011, -1.654e-8
0.012, -1.677e-8
0.013, -1.696e-8
0.014, -1.748e-8
0.015, -1.788e-8
0.016, -1.794e-8
0.017, -1.843e-8
0.018, -1.890e-8
0.019, -1.902e-8
0.020, -1.935e-8
0.021, -1.988e-8
0.022, -2.007e-8
0.023, -2.029e-8
0.024, -2.078e-8
0.025, -2.115e-8
0.026, -2.123e-8
0.027, -2.165e-8
0.028, -2.211e-8
0.029, -2.218e-8
0.030, -2.243e-8
0.031, -2.299e-8
0.032, -2.309e-8
0.033, -2.327e-8
0.034, -2.372e-8
0.035, -2.399e-8
0.036, -2.402e-8
0.037, -2.439e-8
0.038, -2.474e-8
0.039, -2.480e-8
0.040, -2.495e-8
0.041, -2.539e-8
0.042, -2.548e-8
0.043, -2.552e-8
0.044, -2.588e-8
0.045, -2.608e-8
0.046, -2.600e-8
0.047, -2.631e-8
0.048, -2.655e-8
0.049, -2.649e-8
0.050, -2.661e-8
0.051, -2.692e-8
0.052, -2.693e-8
0.053, -2.687e-8
0.054, -2.713e-8
0.055, -2.726e-8
0.056, -2.705e-8
0.057, -2.726e-8
0.058, -2.744e-8
0.059, -2.728e-8
0.060, -2.729e-8
0.061, -2.752e-8
0.062, -2.742e-8
0.063, -2.731e-8
0.064, -2.747e-8
0.065, -2.753e-8
0.066, -2.726e-8
0.067, -2.735e-8
0.068, -2.748e-8
0.069, -2.723e-8
0.070, -2.717e-8
0.071, -2.736e-8
0.072, -2.717e-8
0.073, -2.700e-8
0.074, -2.712e-8
0.075, -2.709e-8
0.076, -2.679e-8
0.077, -2.685e-8
0.078, -2.691e-8
0.079, -2.665e-8
0.080, -2.650e-8
0.081, -2.665e-8
0.082, -2.645e-8
0.083, -2.621e-8
0.084, -2.631e-8
0.085, -2.626e-8
0.086, -2.589e-8
0.087, -2.596e-8
0.088, -2.597e-8
0.089, -2.568e-8
0.090, -2.556e-8
0.091, -2.567e-8
0.092, -2.544e-8
0.093, -2.518e-8
0.094, -2.525e-8
0.095, -2.523e-8
0.096, -2.483e-8
0.097, -2.486e-8
0.098, -2.491e-8
0.099, -2.458e-8
0.100, -2.446e-8
0.101, -2.456e-8
0.102, -2.434e-8
0.103, -2.411e-8
0.104, -2.416e-8
0.105, -2.411e-8
0.106, -2.376e-8
0.107, -2.376e-8
0.108, -2.383e-8
0.109, -2.350e-8
0.110, -2.335e-8
0.111, -2.352e-8
0.112, -2.326e-8
0.113, -2.303e-8
0.114, -2.311e-8
0.115, -2.307e-8
0.116, -2.272e-8
0.117, -2.273e-8
0.118, -2.278e-8
0.119, -2.251e-8
0.120, -2.234e-8
0.121, -2.250e-8
0.122, -2.230e-8
0.123, -2.204e-8
0.124, -2.215e-8
0.125, -2.211e-8
0.126, -2.178e-8
0.127, -2.181e-8
0.128, -2.189e-8
0.129, -2.160e-8
0.130, -2.147e-8
0.131, -2.162e-8
0.132, -2.143e-8
0.133, -2.120e-8
0.134, -2.130e-8
0.135, -2.130e-8
0.136, -2.097e-8
0.137, -2.100e-8
0.138, -2.110e-8
0.139, -2.081e-8
0.140, -2.072e-8
0.141, -2.086e-8
0.142, -2.069e-8
0.143, -2.049e-8
0.144, -2.060e-8
0.145, -2.059e-8
0.146, -2.029e-8
0.147, -2.031e-8
0.148, -2.044e-8
0.149, -2.017e-8
0.150, -2.007e-8
0.151, -2.025e-8
0.152, -2.007e-8
0.153, -1.986e-8
0.154, -2.002e-8
0.155, -2.000e-8
0.156, -1.972e-8
0.157, -1.976e-8
0.158, -1.989e-8
0.159, -1.964e-8
0.160, -1.954e-8
0.161, -1.972e-8
0.162, -1.959e-8
0.163, -1.936e-8
0.164, -1.954e-8
0.165, -1.954e-8
0.166, -1.925e-8
0.167, -1.933e-8
0.168, -1.945e-8
0.169, -1.920e-8
0.170, -1.915e-8
0.171, -1.930e-8
0.172, -1.920e-8
0.173, -1.899e-8
0.174, -1.915e-8
0.175, -1.919e-8
0.176, -1.890e-8
0.177, -1.898e-8
0.178, -1.913e-8
0.179, -1.889e-8
0.180, -1.883e-8
0.181, -1.902e-8
0.182, -1.890e-8
0.183, -1.872e-8
0.184, -1.888e-8
0.185, -1.891e-8
0.186, -1.867e-8
0.187, -1.872e-8
0.188, -1.890e-8
0.189, -1.866e-8
0.190, -1.860e-8
0.191, -1.882e-8
0.192, -1.871e-8
0.193, -1.852e-8
0.194, -1.872e-8
0.195, -1.873e-8
0.196, -1.851e-8
0.197, -1.858e-8
0.198, -1.874e-8
0.199, -1.855e-8
0.200, -1.848e-8
0.201, -1.869e-8
0.202, -1.862e-8
0.203, -1.842e-8
0.204, -1.864e-8
0.205, -1.868e-8
0.206, -1.844e-8
0.207, -1.854e-8
0.208, -1.870e-8
0.209, -1.850e-8
0.210, -1.847e-8
0.211, -1.868e-8
0.212, -1.861e-8
0.213, -1.843e-8
0.214, -1.863e-8
0.215, -1.870e-8
0.216, -1.846e-8
0.217, -1.856e-8
0.218, -1.877e-8
0.219, -1.854e-8
0.220, -1.854e-8
0.221, -1.875e-8
0.222, -1.868e-8
0.223, -1.853e-8
0.224, -1.874e-8
0.225, -1.879e-8
0.226, -1.859e-8
0.227, -1.867e-8
0.228, -1.891e-8
0.229, -1.869e-8
0.230, -1.869e-8
0.231, -1.893e-8
0.232, -1.885e-8
0.233, -1.870e-8
0.234, -1.893e-8
0.235, -1.899e-8
0.236, -1.880e-8
0.237, -1.890e-8
0.238, -1.911e-8
0.239, -1.894e-8
0.240, -1.891e-8
0.241, -1.915e-8
0.242, -1.912e-8
0.243, -1.895e-8
0.244, -1.920e-8
0.245, -1.926e-8
0.246, -1.908e-8
0.247, -1.920e-8
0.248, -1.940e-8
0.249, -1.923e-8
0.250, -1.924e-8
0.251, -1.947e-8
0.252, -1.945e-8
0.253, -1.929e-8
0.254, -1.952e-8
0.255, -1.963e-8
0.256, -1.943e-8
0.257, -1.955e-8
0.258, -1.979e-8
0.259, -1.960e-8
0.260, -1.963e-8
0.261, -1.986e-8
0.262, -1.984e-8
0.263, -1.971e-8
0.264, -1.993e-8
0.265, -2.004e-8
0.266, -1.987e-8
0.267, -1.997e-8
0.268, -2.024e-8
0.269, -2.006e-8
0.270, -2.006e-8
0.271, -2.034e-8
0.272, -2.031e-8
0.273, -2.017e-8
0.274, -2.042e-8
0.275, -2.052e-8
0.276, -2.036e-8
0.277, -2.049e-8
0.278, -2.071e-8
0.279, -2.059e-8
0.280, -2.058e-8
0.281, -2.086e-8
0.282, -2.085e-8
0.283, -2.070e-8
0.284, -2.099e-8
0.285, -2.107e-8
0.286, -2.091e-8
0.287, -2.106e-8
0.288, -2.129e-8
0.289, -2.114e-8
0.290, -2.119e-8
0.291, -2.143e-8
0.292, -2.144e-8
0.293, -2.132e-8
0.294, -2.157e-8
0.295, -2.172e-8
0.296, -2.153e-8
0.297, -2.167e-8
0.298, -2.195e-8
0.299, -2.178e-8
0.300, -1.872e-8
0.299, -1.627e-8
0.298, -1.549e-8
0.297, -1.477e-8
0.296, -1.455e-8
0.295, -1.422e-8
0.294, -1.367e-8
0.293, -1.346e-8
0.292, -1.336e-8
0.291, -1.294e-8
0.290, -1.265e-8
0.289, -1.263e-8
0.288, -1.239e-8
0.287, -1.198e-8
0.286, -1.200e-8
0.285, -1.190e-8
0.284, -1.149e-8
0.283, -1.143e-8
0.282, -1.146e-8
0.281, -1.110e-8
0.280, -1.096e-8
0.279, -1.101e-8
0.278, -1.084e-8
0.277, -1.053e-8
0.276, -1.059e-8
0.275, -1.056e-8
0.274, -1.024e-8
0.273, -1.019e-8
0.272, -1.031e-8
0.271, -9.984e-9
0.270, -9.857e-9
0.269, -9.971e-9
0.268, -9.810e-9
0.267, -9.558e-9
0.266, -9.679e-9
0.265, -9.642e-9
0.264, -9.357e-9
0.263, -9.333e-9
0.262, -9.476e-9
0.261, -9.196e-9
0.260, -9.058e-9
0.259, -9.233e-9
0.258, -9.098e-9
0.257, -8.829e-9
0.256, -8.970e-9
0.255, -8.972e-9
0.254, -8.688e-9
0.253, -8.699e-9
0.252, -8.827e-9
0.251, -8.593e-9
0.250, -8.487e-9
0.249, -8.624e-9
0.248, -8.529e-9
0.247, -8.273e-9
0.246, -8.422e-9
0.245, -8.447e-9
0.244, -8.147e-9
0.243, -8.194e-9
0.242, -8.337e-9
0.241, -8.081e-9
0.240, -7.991e-9
0.239, -8.157e-9
0.238, -8.054e-9
0.237, -7.831e-9
0.236, -7.953e-9
0.235, -8.015e-9
0.234, -7.738e-9
0.233, -7.738e-9
0.232, -7.910e-9
0.231, -7.672e-9
0.230, -7.574e-9
0.229, -7.767e-9
0.228, -7.644e-9
0.227, -7.443e-9
0.226, -7.591e-9
0.225, -7.607e-9
0.224, -7.369e-9
0.223, -7.383e-9
0.222, -7.541e-9
0.221, -7.324e-9
0.220, -7.203e-9
0.219, -7.411e-9
0.218, -7.303e-9
0.217, -7.080e-9
0.216, -7.237e-9
0.215, -7.286e-9
0.214, -7.003e-9
0.213, -7.055e-9
0.212, -7.190e-9
0.211, -7.001e-9
0.210, -6.886e-9
0.209, -7.071e-9
0.208, -6.989e-9
0.207, -6.755e-9
0.206, -6.917e-9
0.205, -6.974e-9
0.204, -6.671e-9
0.203, -6.753e-9
0.202, -6.900e-9
0.201, -6.677e-9
0.200, -6.590e-9
0.199, -6.781e-9
0.198, -6.682e-9
0.197, -6.484e-9
0.196, -6.604e-9
0.195, -6.691e-9
0.194, -6.403e-9
0.193, -6.450e-9
0.192, -6.609e-9
0.191, -6.392e-9
0.190, -6.294e-9
0.189, -6.501e-9
0.188, -6.377e-9
0.187, -6.194e-9
0.186, -6.338e-9
0.185, -6.383e-9
0.184, -6.128e-9
0.183, -6.163e-9
0.182, -6.311e-9
0.181, -6.120e-9
0.180, -5.989e-9
0.179, -6.206e-9
0.178, -6.111e-9
0.177, -5.885e-9
0.176, -6.045e-9
0.175, -6.096e-9
0.174, -5.815e-9
0.173, -5.877e-9
0.172, -6.003e-9
0.171, -5.820e-9
0.170, -5.703e-9
0.169, -5.894e-9
0.168, -5.807e-9
0.167, -5.570e-9
0.166, -5.725e-9
0.165, -5.794e-9
0.164, -5.490e-9
0.163, -5.554e-9
0.162, -5.701e-9
0.161, -5.470e-9
0.160, -5.374e-9
0.159, -5.561e-9
0.158, -5.462e-9
0.157, -5.252e-9
0.156, -5.362e-9
0.155, -5.448e-9
0.154, -5.137e-9
0.153, -5.178e-9
0.152, -5.332e-9
0.151, -5.114e-9
0.150, -4.996e-9
0.149, -5.199e-9
0.148, -5.058e-9
0.147, -4.861e-9
0.146, -4.977e-9
0.145, -5.022e-9
0.144, -4.741e-9
0.143, -4.757e-9
0.142, -4.897e-9
0.141, -4.690e-9
0.140, -4.532e-9
0.139, -4.741e-9
0.138, -4.612e-9
0.137, -4.361e-9
0.136, -4.500e-9
0.135, -4.530e-9
0.134, -4.225e-9
0.133, -4.253e-9
0.132, -4.349e-9
0.131, -4.146e-9
0.130, -3.991e-9
0.129, -4.152e-9
0.128, -4.022e-9
0.127, -3.775e-9
0.126, -3.872e-9
0.125, -3.914e-9
0.124, -3.565e-9
0.123, -3.589e-9
0.122, -3.700e-9
0.121, -3.444e-9
0.120, -3.290e-9
0.119, -3.426e-9
0.118, -3.287e-9
0.117, -3.018e-9
0.116, -3.063e-9
0.115, -3.101e-9
0.114, -2.764e-9
0.113, -2.722e-9
0.112, -2.822e-9
0.111, -2.536e-9
0.110, -2.354e-9
0.109, -2.484e-9
0.108, -2.280e-9
0.107, -2.007e-9
0.106, -2.061e-9
0.105, -2.016e-9
0.104, -1.663e-9
0.103, -1.582e-9
0.102, -1.637e-9
0.101, -1.353e-9
0.100, -1.103e-9
0.099, -1.211e-9
0.098, -9.970e-10
0.097, -6.478e-10
0.096, -6.704e-10
0.095, -5.968e-10
0.094, -2.046e-10
0.093, -1.064e-10
0.092, -9.764e-11
0.091, 2.280e-10
0.090, 5.136e-10
0.089, 4.749e-10
0.088, 7.165e-10
0.087, 1.116e-9
0.086, 1.134e-9
0.085, 1.250e-9
0.084, 1.722e-9
0.083, 1.837e-9
0.082, 1.895e-9
0.081, 2.289e-9
0.080, 2.589e-9
0.079, 2.634e-9
0.078, 2.904e-9
0.077, 3.350e-9
0.076, 3.465e-9
0.075, 3.580e-9
0.074, 4.090e-9
0.073, 4.314e-9
0.072, 4.365e-9
0.071, 4.834e-9
0.070, 5.169e-9
0.069, 5.257e-9
0.068, 5.603e-9
0.067, 6.059e-9
0.066, 6.200e-9
0.065, 6.433e-9
0.064, 6.949e-9
0.063, 7.222e-9
0.062, 7.322e-9
0.061, 7.811e-9
0.060, 8.236e-9
0.059, 8.320e-9
0.058, 8.697e-9
0.057, 9.226e-9
0.056, 9.368e-9
0.055, 9.635e-9
0.054, 1.017e-8
0.053, 1.046e-8
0.052, 1.061e-8
0.051, 1.111e-8
0.050, 1.151e-8
0.049, 1.164e-8
0.048, 1.199e-8
0.047, 1.253e-8
0.046, 1.266e-8
0.045, 1.292e-8
0.044, 1.346e-8
0.043, 1.371e-8
0.042, 1.385e-8
0.041, 1.435e-8
0.040, 1.470e-8
0.039, 1.483e-8
0.038, 1.513e-8
0.037, 1.563e-8
0.036, 1.574e-8
0.035, 1.593e-8
0.034, 1.643e-8
0.033, 1.667e-8
0.032, 1.670e-8
0.031, 1.716e-8
0.030, 1.745e-8
0.029, 1.749e-8
0.028, 1.777e-8
0.027, 1.817e-8
0.026, 1.824e-8
0.025, 1.836e-8
0.024, 1.875e-8
0.023, 1.890e-8
0.022, 1.885e-8
0.021, 1.921e-8
0.020, 1.946e-8
0.019, 1.938e-8
0.018, 1.956e-8
0.017, 1.991e-8
0.016, 1.981e-8
0.015, 1.988e-8
0.014, 2.018e-8
0.013, 2.023e-8
0.012, 2.013e-8
0.011, 2.036e-8
0.010, 2.049e-8
0.009, 2.038e-8
0.008, 2.043e-8
0.007, 2.072e-8
0.006, 2.054e-8
0.005, 2.049e-8
0.004, 2.077e-8
0.003, 2.070e-8
0.002, 2.051e-8
0.001, 2.070e-8
0.000, 2.090e-8
-0.001, 2.060e-8
-0.002, 2.057e-8
-0.003, 2.075e-8
-0.004, 2.056e-8
-0.005, 2.041e-8
-0.006, 2.060e-8
-0.007, 2.051e-8
-0.008, 2.023e-8
-0.009, 2.039e-8
-0.010, 2.038e-8
-0.011, 2.013e-8
-0.012, 2.011e-8
-0.013, 2.024e-8
-0.014, 1.998e-8
-0.015, 1.984e-8
-0.016, 1.996e-8
-0.017, 1.986e-8
-0.018, 1.956e-8
-0.019, 1.964e-8
-0.020, 1.966e-8
-0.021, 1.936e-8
-0.022, 1.929e-8
-0.023, 1.943e-8
-0.024, 1.914e-8
-0.025, 1.899e-8
-0.026, 1.911e-8
-0.027, 1.898e-8
-0.028, 1.869e-8
-0.029, 1.876e-8
-0.030, 1.874e-8
-0.031, 1.846e-8
-0.032, 1.837e-8
-0.033, 1.852e-8
-0.034, 1.823e-8
-0.035, 1.804e-8
-0.036, 1.820e-8
-0.037, 1.806e-8
-0.038, 1.775e-8
-0.039, 1.786e-8
-0.040, 1.783e-8
-0.041, 1.756e-8
-0.042, 1.747e-8
-0.043, 1.760e-8
-0.044, 1.736e-8
-0.045, 1.715e-8
-0.046, 1.730e-8
-0.047, 1.720e-8
-0.048, 1.689e-8
-0.049, 1.700e-8
-0.050, 1.700e-8
-0.051, 1.672e-8
-0.052, 1.667e-8
-0.053, 1.680e-8
-0.054, 1.655e-8
-0.055, 1.638e-8
-0.056, 1.653e-8
-0.057, 1.643e-8
-0.058, 1.614e-8
-0.059, 1.624e-8
-0.060, 1.629e-8
-0.061, 1.598e-8
-0.062, 1.596e-8
-0.063, 1.611e-8
-0.064, 1.588e-8
-0.065, 1.572e-8
-0.066, 1.589e-8
-0.067, 1.579e-8
-0.068, 1.554e-8
-0.069, 1.563e-8
-0.070, 1.569e-8
-0.071, 1.542e-8
-0.072, 1.538e-8
-0.073, 1.557e-8
-0.074, 1.535e-8
-0.075, 1.519e-8
-0.076, 1.540e-8
-0.077, 1.530e-8
-0.078, 1.505e-8
-0.079, 1.519e-8
-0.080, 1.523e-8
-0.081, 1.499e-8
-0.082, 1.497e-8
-0.083, 1.515e-8
-0.084, 1.497e-8
-0.085, 1.480e-8
-0.086, 1.502e-8
-0.087, 1.496e-8
-0.088, 1.470e-8
-0.089, 1.485e-8
-0.090, 1.493e-8
-0.091, 1.467e-8
-0.092, 1.470e-8
-0.093, 1.486e-8
-0.094, 1.469e-8
-0.095, 1.456e-8
-0.096, 1.477e-8
-0.097, 1.472e-8
-0.098, 1.450e-8
-0.099, 1.463e-8
-0.100, 1.474e-8
-0.101, 1.448e-8
-0.102, 1.453e-8
-0.103, 1.472e-8
-0.104, 1.454e-8
-0.105, 1.442e-8
-0.106, 1.465e-8
-0.107, 1.459e-8
-0.108, 1.441e-8
-0.109, 1.454e-8
-0.110, 1.464e-8
-0.111, 1.443e-8
-0.112, 1.445e-8
-0.113, 1.465e-8
-0.114, 1.450e-8
-0.115, 1.437e-8
-0.116, 1.465e-8
-0.117, 1.458e-8
-0.118, 1.438e-8
-0.119, 1.455e-8
-0.120, 1.466e-8
-0.121, 1.445e-8
-0.122, 1.449e-8
-0.123, 1.470e-8
-0.124, 1.457e-8
-0.125, 1.444e-8
-0.126, 1.470e-8
-0.127, 1.467e-8
-0.128, 1.449e-8
-0.129, 1.466e-8
-0.130, 1.478e-8
-0.131, 1.456e-8
-0.132, 1.463e-8
-0.133, 1.483e-8
-0.134, 1.471e-8
-0.135, 1.461e-8
-0.136, 1.486e-8
-0.137, 1.485e-8
-0.138, 1.467e-8
-0.139, 1.484e-8
-0.140, 1.500e-8
-0.141, 1.478e-8
-0.142, 1.484e-8
-0.143, 1.509e-8
-0.144, 1.493e-8
-0.145, 1.486e-8
-0.146, 1.514e-8
-0.147, 1.511e-8
-0.148, 1.495e-8
-0.149, 1.512e-8
-0.150, 1.528e-8
-0.151, 1.509e-8
-0.152, 1.514e-8
-0.153, 1.541e-8
-0.154, 1.529e-8
-0.155, 1.518e-8
-0.156, 1.549e-8
-0.157, 1.546e-8
-0.158, 1.531e-8
-0.159, 1.551e-8
-0.160, 1.566e-8
-0.161, 1.548e-8
-0.162, 1.554e-8
-0.163, 1.580e-8
-0.164, 1.572e-8
-0.165, 1.561e-8
-0.166, 1.591e-8
-0.167, 1.593e-8
-0.168, 1.576e-8
-0.169, 1.597e-8
-0.170, 1.614e-8
-0.171, 1.595e-8
-0.172, 1.607e-8
-0.173, 1.630e-8
-0.174, 1.621e-8
-0.175, 1.615e-8
-0.176, 1.644e-8
-0.177, 1.647e-8
-0.178, 1.632e-8
-0.179, 1.653e-8
-0.180, 1.673e-8
-0.181, 1.653e-8
-0.182, 1.664e-8
-0.183, 1.692e-8
-0.184, 1.682e-8
-0.185, 1.677e-8
-0.186, 1.708e-8
-0.187, 1.711e-8
-0.188, 1.698e-8
-0.189, 1.719e-8
-0.190, 1.738e-8
-0.191, 1.725e-8
-0.192, 1.732e-8
-0.193, 1.763e-8
-0.194, 1.754e-8
-0.195, 1.749e-8
-0.196, 1.783e-8
-0.197, 1.785e-8
-0.198, 1.772e-8
-0.199, 1.798e-8
