Mar. 16, 2023   08:58:31
Cyclic Voltammetry
File: c:/users/oliverrz/desktop/electrolab/data/2023_03_16\fcmeoh_macros_250_um\electrode5_cv_100mvs_250_um.bin
Data Source:  Experiment
Instrument Model:  CHI760E
Header: CV
Note: 

Init E (V) = -0.2
High E (V) = 0.3
Low E (V) = -0.2
Final E (V) = -0.2
Init P/N = P
Scan Rate (V/s) = 0.1
Segment = 3
Sample Interval (V) = 0.001
Quiet Time (sec) = 2
Sensitivity (A/V) = 1e-7

Results:

Channel 1:
Segment 1:
Ep = 0.083V
ip = -1.776e-8A
Ah = -1.151e-8C

Segment 2:
Ep = 0.013V
ip = 1.677e-8A
Ah = 1.095e-8C

Segment 3:

Potential/V, Current/A

-0.200, 3.361e-9
-0.199, 2.986e-9
-0.198, 2.903e-9
-0.197, 2.806e-9
-0.196, 2.842e-9
-0.195, 2.756e-9
-0.194, 2.758e-9
-0.193, 2.750e-9
-0.192, 2.673e-9
-0.191, 2.721e-9
-0.190, 2.640e-9
-0.189, 2.652e-9
-0.188, 2.642e-9
-0.187, 2.576e-9
-0.186, 2.626e-9
-0.185, 2.546e-9
-0.184, 2.560e-9
-0.183, 2.556e-9
-0.182, 2.486e-9
-0.181, 2.545e-9
-0.180, 2.460e-9
-0.179, 2.475e-9
-0.178, 2.477e-9
-0.177, 2.404e-9
-0.176, 2.465e-9
-0.175, 2.388e-9
-0.174, 2.402e-9
-0.173, 2.404e-9
-0.172, 2.335e-9
-0.171, 2.395e-9
-0.170, 2.322e-9
-0.169, 2.336e-9
-0.168, 2.339e-9
-0.167, 2.271e-9
-0.166, 2.327e-9
-0.165, 2.259e-9
-0.164, 2.270e-9
-0.163, 2.280e-9
-0.162, 2.216e-9
-0.161, 2.270e-9
-0.160, 2.202e-9
-0.159, 2.214e-9
-0.158, 2.224e-9
-0.157, 2.156e-9
-0.156, 2.214e-9
-0.155, 2.147e-9
-0.154, 2.158e-9
-0.153, 2.164e-9
-0.152, 2.100e-9
-0.151, 2.163e-9
-0.150, 2.092e-9
-0.149, 2.109e-9
-0.148, 2.113e-9
-0.147, 2.051e-9
-0.146, 2.112e-9
-0.145, 2.039e-9
-0.144, 2.058e-9
-0.143, 2.066e-9
-0.142, 2.001e-9
-0.141, 2.061e-9
-0.140, 1.993e-9
-0.139, 2.012e-9
-0.138, 2.021e-9
-0.137, 1.952e-9
-0.136, 2.019e-9
-0.135, 1.947e-9
-0.134, 1.963e-9
-0.133, 1.976e-9
-0.132, 1.905e-9
-0.131, 1.973e-9
-0.130, 1.903e-9
-0.129, 1.918e-9
-0.128, 1.929e-9
-0.127, 1.860e-9
-0.126, 1.925e-9
-0.125, 1.861e-9
-0.124, 1.870e-9
-0.123, 1.885e-9
-0.122, 1.818e-9
-0.121, 1.880e-9
-0.120, 1.815e-9
-0.119, 1.826e-9
-0.118, 1.841e-9
-0.117, 1.775e-9
-0.116, 1.832e-9
-0.115, 1.767e-9
-0.114, 1.781e-9
-0.113, 1.792e-9
-0.112, 1.728e-9
-0.111, 1.788e-9
-0.110, 1.725e-9
-0.109, 1.737e-9
-0.108, 1.746e-9
-0.107, 1.681e-9
-0.106, 1.741e-9
-0.105, 1.673e-9
-0.104, 1.689e-9
-0.103, 1.696e-9
-0.102, 1.625e-9
-0.101, 1.689e-9
-0.100, 1.621e-9
-0.099, 1.633e-9
-0.098, 1.644e-9
-0.097, 1.571e-9
-0.096, 1.639e-9
-0.095, 1.564e-9
-0.094, 1.574e-9
-0.093, 1.589e-9
-0.092, 1.514e-9
-0.091, 1.577e-9
-0.090, 1.506e-9
-0.089, 1.511e-9
-0.088, 1.524e-9
-0.087, 1.450e-9
-0.086, 1.510e-9
-0.085, 1.441e-9
-0.084, 1.443e-9
-0.083, 1.458e-9
-0.082, 1.382e-9
-0.081, 1.434e-9
-0.080, 1.368e-9
-0.079, 1.367e-9
-0.078, 1.377e-9
-0.077, 1.299e-9
-0.076, 1.353e-9
-0.075, 1.283e-9
-0.074, 1.286e-9
-0.073, 1.285e-9
-0.072, 1.216e-9
-0.071, 1.262e-9
-0.070, 1.189e-9
-0.069, 1.189e-9
-0.068, 1.191e-9
-0.067, 1.112e-9
-0.066, 1.162e-9
-0.065, 1.079e-9
-0.064, 1.078e-9
-0.063, 1.076e-9
-0.062, 9.923e-10
-0.061, 1.041e-9
-0.060, 9.563e-10
-0.059, 9.499e-10
-0.058, 9.483e-10
-0.057, 8.544e-10
-0.056, 9.010e-10
-0.055, 8.143e-10
-0.054, 8.009e-10
-0.053, 7.956e-10
-0.052, 6.982e-10
-0.051, 7.348e-10
-0.050, 6.427e-10
-0.049, 6.207e-10
-0.048, 6.121e-10
-0.047, 5.080e-10
-0.046, 5.386e-10
-0.045, 4.482e-10
-0.044, 4.158e-10
-0.043, 4.013e-10
-0.042, 2.937e-10
-0.041, 3.174e-10
-0.040, 2.198e-10
-0.039, 1.806e-10
-0.038, 1.537e-10
-0.037, 4.284e-11
-0.036, 5.702e-11
-0.035, -4.645e-11
-0.034, -9.252e-11
-0.033, -1.292e-10
-0.032, -2.493e-10
-0.031, -2.461e-10
-0.030, -3.644e-10
-0.029, -4.159e-10
-0.028, -4.644e-10
-0.027, -5.924e-10
-0.026, -6.025e-10
-0.025, -7.366e-10
-0.024, -7.981e-10
-0.023, -8.527e-10
-0.022, -9.995e-10
-0.021, -1.014e-9
-0.020, -1.159e-9
-0.019, -1.236e-9
-0.018, -1.302e-9
-0.017, -1.465e-9
-0.016, -1.498e-9
-0.015, -1.656e-9
-0.014, -1.748e-9
-0.013, -1.835e-9
-0.012, -2.014e-9
-0.011, -2.057e-9
-0.010, -2.234e-9
-0.009, -2.345e-9
-0.008, -2.441e-9
-0.007, -2.634e-9
-0.006, -2.702e-9
-0.005, -2.890e-9
-0.004, -3.024e-9
-0.003, -3.140e-9
-0.002, -3.359e-9
-0.001, -3.442e-9
-0.000, -3.688e-9
0.001, -3.828e-9
0.002, -3.951e-9
0.003, -4.177e-9
0.004, -4.285e-9
0.005, -4.504e-9
0.006, -4.678e-9
0.007, -4.835e-9
0.008, -5.084e-9
0.009, -5.213e-9
0.010, -5.452e-9
0.011, -5.642e-9
0.012, -5.823e-9
0.013, -6.090e-9
0.014, -6.234e-9
0.015, -6.497e-9
0.016, -6.703e-9
0.017, -6.899e-9
0.018, -7.184e-9
0.019, -7.351e-9
0.020, -7.632e-9
0.021, -7.847e-9
0.022, -8.057e-9
0.023, -8.359e-9
0.024, -8.527e-9
0.025, -8.824e-9
0.026, -9.063e-9
0.027, -9.274e-9
0.028, -9.581e-9
0.029, -9.751e-9
0.030, -1.005e-8
0.031, -1.029e-8
0.032, -1.050e-8
0.033, -1.082e-8
0.034, -1.099e-8
0.035, -1.128e-8
0.036, -1.153e-8
0.037, -1.173e-8
0.038, -1.204e-8
0.039, -1.222e-8
0.040, -1.250e-8
0.041, -1.273e-8
0.042, -1.292e-8
0.043, -1.321e-8
0.044, -1.338e-8
0.045, -1.363e-8
0.046, -1.385e-8
0.047, -1.403e-8
0.048, -1.430e-8
0.049, -1.445e-8
0.050, -1.468e-8
0.051, -1.487e-8
0.052, -1.504e-8
0.053, -1.528e-8
0.054, -1.539e-8
0.055, -1.561e-8
0.056, -1.576e-8
0.057, -1.589e-8
0.058, -1.609e-8
0.059, -1.618e-8
0.060, -1.637e-8
0.061, -1.648e-8
0.062, -1.658e-8
0.063, -1.675e-8
0.064, -1.680e-8
0.065, -1.695e-8
0.066, -1.704e-8
0.067, -1.709e-8
0.068, -1.725e-8
0.069, -1.725e-8
0.070, -1.736e-8
0.071, -1.742e-8
0.072, -1.744e-8
0.073, -1.756e-8
0.074, -1.753e-8
0.075, -1.761e-8
0.076, -1.765e-8
0.077, -1.764e-8
0.078, -1.772e-8
0.079, -1.768e-8
0.080, -1.773e-8
0.081, -1.773e-8
0.082, -1.769e-8
0.083, -1.775e-8
0.084, -1.768e-8
0.085, -1.770e-8
0.086, -1.768e-8
0.087, -1.763e-8
0.088, -1.766e-8
0.089, -1.757e-8
0.090, -1.758e-8
0.091, -1.754e-8
0.092, -1.747e-8
0.093, -1.748e-8
0.094, -1.738e-8
0.095, -1.738e-8
0.096, -1.732e-8
0.097, -1.724e-8
0.098, -1.724e-8
0.099, -1.711e-8
0.100, -1.711e-8
0.101, -1.704e-8
0.102, -1.695e-8
0.103, -1.696e-8
0.104, -1.682e-8
0.105, -1.681e-8
0.106, -1.674e-8
0.107, -1.663e-8
0.108, -1.664e-8
0.109, -1.649e-8
0.110, -1.647e-8
0.111, -1.640e-8
0.112, -1.629e-8
0.113, -1.629e-8
0.114, -1.615e-8
0.115, -1.613e-8
0.116, -1.606e-8
0.117, -1.595e-8
0.118, -1.594e-8
0.119, -1.580e-8
0.120, -1.578e-8
0.121, -1.571e-8
0.122, -1.560e-8
0.123, -1.560e-8
0.124, -1.547e-8
0.125, -1.544e-8
0.126, -1.537e-8
0.127, -1.527e-8
0.128, -1.527e-8
0.129, -1.513e-8
0.130, -1.511e-8
0.131, -1.504e-8
0.132, -1.494e-8
0.133, -1.494e-8
0.134, -1.481e-8
0.135, -1.480e-8
0.136, -1.473e-8
0.137, -1.463e-8
0.138, -1.464e-8
0.139, -1.451e-8
0.140, -1.450e-8
0.141, -1.444e-8
0.142, -1.435e-8
0.143, -1.436e-8
0.144, -1.424e-8
0.145, -1.423e-8
0.146, -1.417e-8
0.147, -1.408e-8
0.148, -1.410e-8
0.149, -1.397e-8
0.150, -1.397e-8
0.151, -1.392e-8
0.152, -1.383e-8
0.153, -1.385e-8
0.154, -1.374e-8
0.155, -1.373e-8
0.156, -1.369e-8
0.157, -1.360e-8
0.158, -1.362e-8
0.159, -1.352e-8
0.160, -1.351e-8
0.161, -1.347e-8
0.162, -1.339e-8
0.163, -1.341e-8
0.164, -1.332e-8
0.165, -1.332e-8
0.166, -1.328e-8
0.167, -1.320e-8
0.168, -1.323e-8
0.169, -1.313e-8
0.170, -1.314e-8
0.171, -1.310e-8
0.172, -1.303e-8
0.173, -1.305e-8
0.174, -1.296e-8
0.175, -1.297e-8
0.176, -1.293e-8
0.177, -1.287e-8
0.178, -1.290e-8
0.179, -1.280e-8
0.180, -1.282e-8
0.181, -1.278e-8
0.182, -1.272e-8
0.183, -1.276e-8
0.184, -1.266e-8
0.185, -1.268e-8
0.186, -1.265e-8
0.187, -1.258e-8
0.188, -1.262e-8
0.189, -1.253e-8
0.190, -1.255e-8
0.191, -1.253e-8
0.192, -1.246e-8
0.193, -1.251e-8
0.194, -1.242e-8
0.195, -1.243e-8
0.196, -1.242e-8
0.197, -1.235e-8
0.198, -1.240e-8
0.199, -1.231e-8
0.200, -1.233e-8
0.201, -1.231e-8
0.202, -1.226e-8
0.203, -1.230e-8
0.204, -1.222e-8
0.205, -1.224e-8
0.206, -1.223e-8
0.207, -1.217e-8
0.208, -1.221e-8
0.209, -1.213e-8
0.210, -1.215e-8
0.211, -1.214e-8
0.212, -1.208e-8
0.213, -1.213e-8
0.214, -1.205e-8
0.215, -1.208e-8
0.216, -1.207e-8
0.217, -1.201e-8
0.218, -1.207e-8
0.219, -1.198e-8
0.220, -1.201e-8
0.221, -1.200e-8
0.222, -1.195e-8
0.223, -1.201e-8
0.224, -1.192e-8
0.225, -1.195e-8
0.226, -1.194e-8
0.227, -1.189e-8
0.228, -1.195e-8
0.229, -1.187e-8
0.230, -1.190e-8
0.231, -1.190e-8
0.232, -1.184e-8
0.233, -1.190e-8
0.234, -1.183e-8
0.235, -1.185e-8
0.236, -1.185e-8
0.237, -1.179e-8
0.238, -1.186e-8
0.239, -1.179e-8
0.240, -1.181e-8
0.241, -1.181e-8
0.242, -1.176e-8
0.243, -1.182e-8
0.244, -1.175e-8
0.245, -1.178e-8
0.246, -1.178e-8
0.247, -1.173e-8
0.248, -1.179e-8
0.249, -1.172e-8
0.250, -1.176e-8
0.251, -1.175e-8
0.252, -1.171e-8
0.253, -1.177e-8
0.254, -1.170e-8
0.255, -1.174e-8
0.256, -1.174e-8
0.257, -1.169e-8
0.258, -1.176e-8
0.259, -1.169e-8
0.260, -1.173e-8
0.261, -1.172e-8
0.262, -1.168e-8
0.263, -1.175e-8
0.264, -1.168e-8
0.265, -1.172e-8
0.266, -1.172e-8
0.267, -1.167e-8
0.268, -1.175e-8
0.269, -1.168e-8
0.270, -1.172e-8
0.271, -1.172e-8
0.272, -1.168e-8
0.273, -1.175e-8
0.274, -1.168e-8
0.275, -1.172e-8
0.276, -1.173e-8
0.277, -1.168e-8
0.278, -1.176e-8
0.279, -1.170e-8
0.280, -1.173e-8
0.281, -1.174e-8
0.282, -1.170e-8
0.283, -1.177e-8
0.284, -1.172e-8
0.285, -1.175e-8
0.286, -1.177e-8
0.287, -1.173e-8
0.288, -1.179e-8
0.289, -1.174e-8
0.290, -1.178e-8
0.291, -1.179e-8
0.292, -1.176e-8
0.293, -1.183e-8
0.294, -1.177e-8
0.295, -1.182e-8
0.296, -1.183e-8
0.297, -1.179e-8
0.298, -1.187e-8
0.299, -1.181e-8
0.300, -1.127e-8
0.299, -1.028e-8
0.298, -9.902e-9
0.297, -9.801e-9
0.296, -9.610e-9
0.295, -9.535e-9
0.294, -9.450e-9
0.293, -9.321e-9
0.292, -9.309e-9
0.291, -9.179e-9
0.290, -9.145e-9
0.289, -9.090e-9
0.288, -8.987e-9
0.287, -8.996e-9
0.286, -8.881e-9
0.285, -8.863e-9
0.284, -8.822e-9
0.283, -8.730e-9
0.282, -8.750e-9
0.281, -8.642e-9
0.280, -8.634e-9
0.279, -8.605e-9
0.278, -8.521e-9
0.277, -8.551e-9
0.276, -8.448e-9
0.275, -8.451e-9
0.274, -8.425e-9
0.273, -8.345e-9
0.272, -8.386e-9
0.271, -8.287e-9
0.270, -8.291e-9
0.269, -8.271e-9
0.268, -8.192e-9
0.267, -8.236e-9
0.266, -8.143e-9
0.265, -8.148e-9
0.264, -8.136e-9
0.263, -8.057e-9
0.262, -8.105e-9
0.261, -8.017e-9
0.260, -8.022e-9
0.259, -8.016e-9
0.258, -7.938e-9
0.257, -7.981e-9
0.256, -7.898e-9
0.255, -7.904e-9
0.254, -7.897e-9
0.253, -7.825e-9
0.252, -7.871e-9
0.251, -7.788e-9
0.250, -7.799e-9
0.249, -7.788e-9
0.248, -7.721e-9
0.247, -7.766e-9
0.246, -7.687e-9
0.245, -7.700e-9
0.244, -7.689e-9
0.243, -7.621e-9
0.242, -7.670e-9
0.241, -7.590e-9
0.240, -7.606e-9
0.239, -7.593e-9
0.238, -7.529e-9
0.237, -7.583e-9
0.236, -7.494e-9
0.235, -7.515e-9
0.234, -7.506e-9
0.233, -7.441e-9
0.232, -7.492e-9
0.231, -7.410e-9
0.230, -7.425e-9
0.229, -7.421e-9
0.228, -7.350e-9
0.227, -7.411e-9
0.226, -7.325e-9
0.225, -7.338e-9
0.224, -7.339e-9
0.223, -7.262e-9
0.222, -7.323e-9
0.221, -7.238e-9
0.220, -7.252e-9
0.219, -7.252e-9
0.218, -7.177e-9
0.217, -7.231e-9
0.216, -7.150e-9
0.215, -7.162e-9
0.214, -7.162e-9
0.213, -7.094e-9
0.212, -7.143e-9
0.211, -7.069e-9
0.210, -7.079e-9
0.209, -7.077e-9
0.208, -7.009e-9
0.207, -7.059e-9
0.206, -6.984e-9
0.205, -6.993e-9
0.204, -6.988e-9
0.203, -6.923e-9
0.202, -6.976e-9
0.201, -6.896e-9
0.200, -6.905e-9
0.199, -6.902e-9
0.198, -6.836e-9
0.197, -6.888e-9
0.196, -6.804e-9
0.195, -6.818e-9
0.194, -6.813e-9
0.193, -6.742e-9
0.192, -6.797e-9
0.191, -6.711e-9
0.190, -6.726e-9
0.189, -6.724e-9
0.188, -6.648e-9
0.187, -6.702e-9
0.186, -6.620e-9
0.185, -6.631e-9
0.184, -6.626e-9
0.183, -6.551e-9
0.182, -6.603e-9
0.181, -6.518e-9
0.180, -6.524e-9
0.179, -6.518e-9
0.178, -6.445e-9
0.177, -6.491e-9
0.176, -6.409e-9
0.175, -6.411e-9
0.174, -6.410e-9
0.173, -6.332e-9
0.172, -6.374e-9
0.171, -6.297e-9
0.170, -6.294e-9
0.169, -6.284e-9
0.168, -6.207e-9
0.167, -6.244e-9
0.166, -6.160e-9
0.165, -6.163e-9
0.164, -6.146e-9
0.163, -6.073e-9
0.162, -6.109e-9
0.161, -6.020e-9
0.160, -6.021e-9
0.159, -6.003e-9
0.158, -5.920e-9
0.157, -5.960e-9
0.156, -5.863e-9
0.155, -5.859e-9
0.154, -5.836e-9
0.153, -5.747e-9
0.152, -5.784e-9
0.151, -5.683e-9
0.150, -5.676e-9
0.149, -5.653e-9
0.148, -5.557e-9
0.147, -5.590e-9
0.146, -5.484e-9
0.145, -5.467e-9
0.144, -5.442e-9
0.143, -5.337e-9
0.142, -5.362e-9
0.141, -5.252e-9
0.140, -5.228e-9
0.139, -5.199e-9
0.138, -5.092e-9
0.137, -5.107e-9
0.136, -4.992e-9
0.135, -4.959e-9
0.134, -4.923e-9
0.133, -4.807e-9
0.132, -4.814e-9
0.131, -4.695e-9
0.130, -4.651e-9
0.129, -4.602e-9
0.128, -4.475e-9
0.127, -4.470e-9
0.126, -4.345e-9
0.125, -4.291e-9
0.124, -4.228e-9
0.123, -4.099e-9
0.122, -4.083e-9
0.121, -3.941e-9
0.120, -3.878e-9
0.119, -3.802e-9
0.118, -3.660e-9
0.117, -3.632e-9
0.116, -3.474e-9
0.115, -3.405e-9
0.114, -3.319e-9
0.113, -3.158e-9
0.112, -3.122e-9
0.111, -2.945e-9
0.110, -2.855e-9
0.109, -2.757e-9
0.108, -2.576e-9
0.107, -2.523e-9
0.106, -2.337e-9
0.105, -2.231e-9
0.104, -2.114e-9
0.103, -1.910e-9
0.102, -1.837e-9
0.101, -1.632e-9
0.100, -1.507e-9
0.099, -1.378e-9
0.098, -1.160e-9
0.097, -1.071e-9
0.096, -8.516e-10
0.095, -7.037e-10
0.094, -5.510e-10
0.093, -3.206e-10
0.092, -2.049e-10
0.091, 2.759e-11
0.090, 2.057e-10
0.089, 3.739e-10
0.088, 6.269e-10
0.087, 7.651e-10
0.086, 1.020e-9
0.085, 1.207e-9
0.084, 1.401e-9
0.083, 1.661e-9
0.082, 1.816e-9
0.081, 2.087e-9
0.080, 2.289e-9
0.079, 2.497e-9
0.078, 2.776e-9
0.077, 2.946e-9
0.076, 3.237e-9
0.075, 3.445e-9
0.074, 3.665e-9
0.073, 3.958e-9
0.072, 4.138e-9
0.071, 4.436e-9
0.070, 4.647e-9
0.069, 4.875e-9
0.068, 5.179e-9
0.067, 5.354e-9
0.066, 5.663e-9
0.065, 5.886e-9
0.064, 6.115e-9
0.063, 6.421e-9
0.062, 6.590e-9
0.061, 6.890e-9
0.060, 7.115e-9
0.059, 7.329e-9
0.058, 7.627e-9
0.057, 7.794e-9
0.056, 8.080e-9
0.055, 8.303e-9
0.054, 8.499e-9
0.053, 8.789e-9
0.052, 8.947e-9
0.051, 9.219e-9
0.050, 9.419e-9
0.049, 9.592e-9
0.048, 9.852e-9
0.047, 9.989e-9
0.046, 1.022e-8
0.045, 1.040e-8
0.044, 1.056e-8
0.043, 1.078e-8
0.042, 1.089e-8
0.041, 1.110e-8
0.040, 1.124e-8
0.039, 1.138e-8
0.038, 1.157e-8
0.037, 1.165e-8
0.036, 1.184e-8
0.035, 1.193e-8
0.034, 1.204e-8
0.033, 1.220e-8
0.032, 1.223e-8
0.031, 1.238e-8
0.030, 1.245e-8
0.029, 1.251e-8
0.028, 1.265e-8
0.027, 1.265e-8
0.026, 1.277e-8
0.025, 1.282e-8
0.024, 1.284e-8
0.023, 1.295e-8
0.022, 1.292e-8
0.021, 1.301e-8
0.020, 1.302e-8
0.019, 1.301e-8
0.018, 1.309e-8
0.017, 1.304e-8
0.016, 1.310e-8
0.015, 1.309e-8
0.014, 1.306e-8
0.013, 1.312e-8
0.012, 1.304e-8
0.011, 1.307e-8
0.010, 1.305e-8
0.009, 1.300e-8
0.008, 1.302e-8
0.007, 1.294e-8
0.006, 1.294e-8
0.005, 1.290e-8
0.004, 1.284e-8
0.003, 1.285e-8
0.002, 1.274e-8
0.001, 1.275e-8
0.000, 1.273e-8
-0.001, 1.264e-8
-0.002, 1.263e-8
-0.003, 1.251e-8
-0.004, 1.250e-8
-0.005, 1.242e-8
-0.006, 1.234e-8
-0.007, 1.234e-8
-0.008, 1.221e-8
-0.009, 1.221e-8
-0.010, 1.212e-8
-0.011, 1.204e-8
-0.012, 1.204e-8
-0.013, 1.190e-8
-0.014, 1.189e-8
-0.015, 1.181e-8
-0.016, 1.172e-8
-0.017, 1.171e-8
-0.018, 1.157e-8
-0.019, 1.156e-8
-0.020, 1.148e-8
-0.021, 1.138e-8
-0.022, 1.138e-8
-0.023, 1.124e-8
-0.024, 1.123e-8
-0.025, 1.115e-8
-0.026, 1.106e-8
-0.027, 1.105e-8
-0.028, 1.092e-8
-0.029, 1.091e-8
-0.030, 1.083e-8
-0.031, 1.074e-8
-0.032, 1.074e-8
-0.033, 1.061e-8
-0.034, 1.059e-8
-0.035, 1.052e-8
-0.036, 1.044e-8
-0.037, 1.043e-8
-0.038, 1.031e-8
-0.039, 1.030e-8
-0.040, 1.022e-8
-0.041, 1.014e-8
-0.042, 1.014e-8
-0.043, 1.002e-8
-0.044, 1.002e-8
-0.045, 9.946e-9
-0.046, 9.867e-9
-0.047, 9.874e-9
-0.048, 9.747e-9
-0.049, 9.754e-9
-0.050, 9.683e-9
-0.051, 9.610e-9
-0.052, 9.622e-9
-0.053, 9.503e-9
-0.054, 9.508e-9
-0.055, 9.445e-9
-0.056, 9.368e-9
-0.057, 9.385e-9
-0.058, 9.266e-9
-0.059, 9.274e-9
-0.060, 9.218e-9
-0.061, 9.143e-9
-0.062, 9.164e-9
-0.063, 9.052e-9
-0.064, 9.064e-9
-0.065, 9.009e-9
-0.066, 8.937e-9
-0.067, 8.959e-9
-0.068, 8.851e-9
-0.069, 8.864e-9
-0.070, 8.814e-9
-0.071, 8.745e-9
-0.072, 8.770e-9
-0.073, 8.664e-9
-0.074, 8.681e-9
-0.075, 8.630e-9
-0.076, 8.569e-9
-0.077, 8.595e-9
-0.078, 8.488e-9
-0.079, 8.509e-9
-0.080, 8.457e-9
-0.081, 8.398e-9
-0.082, 8.426e-9
-0.083, 8.322e-9
-0.084, 8.349e-9
-0.085, 8.302e-9
-0.086, 8.247e-9
-0.087, 8.278e-9
-0.088, 8.179e-9
-0.089, 8.211e-9
-0.090, 8.165e-9
-0.091, 8.110e-9
-0.092, 8.142e-9
-0.093, 8.045e-9
-0.094, 8.074e-9
-0.095, 8.034e-9
-0.096, 7.975e-9
-0.097, 8.018e-9
-0.098, 7.921e-9
-0.099, 7.951e-9
-0.100, 7.913e-9
-0.101, 7.858e-9
-0.102, 7.904e-9
-0.103, 7.809e-9
-0.104, 7.837e-9
-0.105, 7.803e-9
-0.106, 7.750e-9
-0.107, 7.790e-9
-0.108, 7.704e-9
-0.109, 7.731e-9
-0.110, 7.703e-9
-0.111, 7.651e-9
-0.112, 7.692e-9
-0.113, 7.605e-9
-0.114, 7.636e-9
-0.115, 7.606e-9
-0.116, 7.559e-9
-0.117, 7.598e-9
-0.118, 7.512e-9
-0.119, 7.548e-9
-0.120, 7.513e-9
-0.121, 7.470e-9
-0.122, 7.514e-9
-0.123, 7.426e-9
-0.124, 7.465e-9
-0.125, 7.431e-9
-0.126, 7.388e-9
-0.127, 7.435e-9
-0.128, 7.353e-9
-0.129, 7.391e-9
-0.130, 7.359e-9
-0.131, 7.317e-9
-0.132, 7.365e-9
-0.133, 7.280e-9
-0.134, 7.319e-9
-0.135, 7.292e-9
-0.136, 7.248e-9
-0.137, 7.300e-9
-0.138, 7.215e-9
-0.139, 7.255e-9
-0.140, 7.231e-9
-0.141, 7.185e-9
-0.142, 7.239e-9
-0.143, 7.157e-9
-0.144, 7.193e-9
-0.145, 7.175e-9
-0.146, 7.127e-9
-0.147, 7.181e-9
-0.148, 7.101e-9
-0.149, 7.140e-9
-0.150, 7.118e-9
-0.151, 7.076e-9
-0.152, 7.130e-9
-0.153, 7.053e-9
-0.154, 7.093e-9
-0.155, 7.072e-9
-0.156, 7.033e-9
-0.157, 7.083e-9
-0.158, 7.004e-9
-0.159, 7.050e-9
-0.160, 7.025e-9
-0.161, 6.987e-9
-0.162, 7.042e-9
-0.163, 6.965e-9
-0.164, 7.009e-9
-0.165, 6.988e-9
-0.166, 6.950e-9
-0.167, 7.008e-9
-0.168, 6.929e-9
-0.169, 6.973e-9
-0.170, 6.952e-9
-0.171, 6.914e-9
-0.172, 6.976e-9
-0.173, 6.895e-9
-0.174, 6.942e-9
-0.175, 6.927e-9
-0.176, 6.885e-9
-0.177, 6.948e-9
-0.178, 6.871e-9
-0.179, 6.920e-9
-0.180, 6.904e-9
-0.181, 6.861e-9
-0.182, 6.923e-9
-0.183, 6.850e-9
-0.184, 6.895e-9
-0.185, 6.882e-9
-0.186, 6.844e-9
-0.187, 6.906e-9
-0.188, 6.833e-9
-0.189, 6.880e-9
-0.190, 6.868e-9
-0.191, 6.832e-9
-0.192, 6.893e-9
-0.193, 6.821e-9
-0.194, 6.869e-9
-0.195, 6.856e-9
-0.196, 6.823e-9
-0.197, 6.883e-9
-0.198, 6.814e-9
-0.199, 6.861e-9
