Mar. 16, 2023   08:58:54
Cyclic Voltammetry
File: c:/users/oliverrz/desktop/electrolab/data/2023_03_16\fcmeoh_macros_250_um\electrode5_cv_200mvs_250_um.bin
Data Source:  Experiment
Instrument Model:  CHI760E
Header: CV
Note: 

Init E (V) = -0.2
High E (V) = 0.3
Low E (V) = -0.2
Final E (V) = -0.2
Init P/N = P
Scan Rate (V/s) = 0.2
Segment = 3
Sample Interval (V) = 0.001
Quiet Time (sec) = 2
Sensitivity (A/V) = 1e-7

Results:

Channel 1:
Segment 1:
Ep = 0.078V
ip = -2.439e-8A
Ah = -7.617e-9C

Segment 2:
Ep = 0.014V
ip = 2.304e-8A
Ah = 7.301e-9C

Segment 3:

Potential/V, Current/A

-0.200, 2.890e-9
-0.199, 2.149e-9
-0.198, 2.141e-9
-0.197, 2.278e-9
-0.196, 2.041e-9
-0.195, 1.975e-9
-0.194, 2.147e-9
-0.193, 2.041e-9
-0.192, 1.854e-9
-0.191, 2.020e-9
-0.190, 2.020e-9
-0.189, 1.822e-9
-0.188, 1.855e-9
-0.187, 2.005e-9
-0.186, 1.804e-9
-0.185, 1.735e-9
-0.184, 1.925e-9
-0.183, 1.844e-9
-0.182, 1.641e-9
-0.181, 1.829e-9
-0.180, 1.827e-9
-0.179, 1.635e-9
-0.178, 1.677e-9
-0.177, 1.820e-9
-0.176, 1.639e-9
-0.175, 1.571e-9
-0.174, 1.750e-9
-0.173, 1.679e-9
-0.172, 1.484e-9
-0.171, 1.661e-9
-0.170, 1.690e-9
-0.169, 1.465e-9
-0.168, 1.536e-9
-0.167, 1.683e-9
-0.166, 1.481e-9
-0.165, 1.426e-9
-0.164, 1.608e-9
-0.163, 1.539e-9
-0.162, 1.350e-9
-0.161, 1.523e-9
-0.160, 1.552e-9
-0.159, 1.353e-9
-0.158, 1.392e-9
-0.157, 1.556e-9
-0.156, 1.354e-9
-0.155, 1.302e-9
-0.154, 1.490e-9
-0.153, 1.398e-9
-0.152, 1.238e-9
-0.151, 1.408e-9
-0.150, 1.422e-9
-0.149, 1.236e-9
-0.148, 1.272e-9
-0.147, 1.446e-9
-0.146, 1.243e-9
-0.145, 1.183e-9
-0.144, 1.381e-9
-0.143, 1.305e-9
-0.142, 1.107e-9
-0.141, 1.301e-9
-0.140, 1.314e-9
-0.139, 1.112e-9
-0.138, 1.175e-9
-0.137, 1.317e-9
-0.136, 1.135e-9
-0.135, 1.088e-9
-0.134, 1.260e-9
-0.133, 1.196e-9
-0.132, 1.004e-9
-0.131, 1.190e-9
-0.130, 1.215e-9
-0.129, 1.002e-9
-0.128, 1.059e-9
-0.127, 1.222e-9
-0.126, 1.018e-9
-0.125, 9.775e-10
-0.124, 1.158e-9
-0.123, 1.084e-9
-0.122, 9.034e-10
-0.121, 1.074e-9
-0.120, 1.105e-9
-0.119, 9.049e-10
-0.118, 9.427e-10
-0.117, 1.121e-9
-0.116, 9.033e-10
-0.115, 8.600e-10
-0.114, 1.054e-9
-0.113, 9.618e-10
-0.112, 7.833e-10
-0.111, 9.734e-10
-0.110, 9.750e-10
-0.109, 7.888e-10
-0.108, 8.315e-10
-0.107, 9.947e-10
-0.106, 7.940e-10
-0.105, 7.371e-10
-0.104, 9.294e-10
-0.103, 8.378e-10
-0.102, 6.408e-10
-0.101, 8.431e-10
-0.100, 8.439e-10
-0.099, 6.520e-10
-0.098, 7.042e-10
-0.097, 8.407e-10
-0.096, 6.579e-10
-0.095, 5.972e-10
-0.094, 7.685e-10
-0.093, 7.047e-10
-0.092, 4.961e-10
-0.091, 6.906e-10
-0.090, 6.986e-10
-0.089, 4.770e-10
-0.088, 5.367e-10
-0.087, 6.986e-10
-0.086, 4.763e-10
-0.085, 4.279e-10
-0.084, 5.973e-10
-0.083, 5.180e-10
-0.082, 3.191e-10
-0.081, 4.811e-10
-0.080, 5.096e-10
-0.079, 2.943e-10
-0.078, 3.286e-10
-0.077, 4.742e-10
-0.076, 2.654e-10
-0.075, 2.075e-10
-0.074, 3.881e-10
-0.073, 2.747e-10
-0.072, 8.882e-11
-0.071, 2.629e-10
-0.070, 2.454e-10
-0.069, 4.294e-11
-0.068, 6.962e-11
-0.067, 2.096e-10
-0.066, 1.965e-14
-0.065, -8.140e-11
-0.064, 8.419e-11
-0.063, -1.839e-11
-0.062, -2.239e-10
-0.061, -5.285e-11
-0.060, -8.169e-11
-0.059, -3.023e-10
-0.058, -2.640e-10
-0.057, -1.608e-10
-0.056, -3.732e-10
-0.055, -4.558e-10
-0.054, -3.110e-10
-0.053, -4.234e-10
-0.052, -6.439e-10
-0.051, -5.039e-10
-0.050, -5.234e-10
-0.049, -7.728e-10
-0.048, -7.455e-10
-0.047, -6.440e-10
-0.046, -8.918e-10
-0.045, -9.843e-10
-0.044, -8.496e-10
-0.043, -9.917e-10
-0.042, -1.207e-9
-0.041, -1.109e-9
-0.040, -1.136e-9
-0.039, -1.403e-9
-0.038, -1.413e-9
-0.037, -1.324e-9
-0.036, -1.591e-9
-0.035, -1.711e-9
-0.034, -1.594e-9
-0.033, -1.778e-9
-0.032, -2.013e-9
-0.031, -1.923e-9
-0.030, -2.000e-9
-0.029, -2.281e-9
-0.028, -2.318e-9
-0.027, -2.265e-9
-0.026, -2.564e-9
-0.025, -2.725e-9
-0.024, -2.627e-9
-0.023, -2.836e-9
-0.022, -3.123e-9
-0.021, -3.051e-9
-0.020, -3.178e-9
-0.019, -3.487e-9
-0.018, -3.551e-9
-0.017, -3.568e-9
-0.016, -3.874e-9
-0.015, -4.070e-9
-0.014, -4.039e-9
-0.013, -4.284e-9
-0.012, -4.613e-9
-0.011, -4.591e-9
-0.010, -4.752e-9
-0.009, -5.124e-9
-0.008, -5.230e-9
-0.007, -5.277e-9
-0.006, -5.653e-9
-0.005, -5.896e-9
-0.004, -5.913e-9
-0.003, -6.206e-9
-0.002, -6.575e-9
-0.001, -6.635e-9
-0.000, -6.938e-9
0.001, -7.295e-9
0.002, -7.460e-9
0.003, -7.549e-9
0.004, -7.987e-9
0.005, -8.282e-9
0.006, -8.332e-9
0.007, -8.717e-9
0.008, -9.104e-9
0.009, -9.214e-9
0.010, -9.482e-9
0.011, -9.947e-9
0.012, -1.018e-8
0.013, -1.032e-8
0.014, -1.080e-8
0.015, -1.116e-8
0.016, -1.125e-8
0.017, -1.167e-8
0.018, -1.212e-8
0.019, -1.226e-8
0.020, -1.257e-8
0.021, -1.307e-8
0.022, -1.333e-8
0.023, -1.355e-8
0.024, -1.402e-8
0.025, -1.442e-8
0.026, -1.456e-8
0.027, -1.499e-8
0.028, -1.548e-8
0.029, -1.563e-8
0.030, -1.595e-8
0.031, -1.649e-8
0.032, -1.671e-8
0.033, -1.693e-8
0.034, -1.745e-8
0.035, -1.779e-8
0.036, -1.795e-8
0.037, -1.834e-8
0.038, -1.881e-8
0.039, -1.898e-8
0.040, -1.923e-8
0.041, -1.975e-8
0.042, -1.996e-8
0.043, -2.011e-8
0.044, -2.059e-8
0.045, -2.090e-8
0.046, -2.097e-8
0.047, -2.137e-8
0.048, -2.174e-8
0.049, -2.182e-8
0.050, -2.208e-8
0.051, -2.248e-8
0.052, -2.265e-8
0.053, -2.272e-8
0.054, -2.311e-8
0.055, -2.337e-8
0.056, -2.334e-8
0.057, -2.364e-8
0.058, -2.394e-8
0.059, -2.393e-8
0.060, -2.409e-8
0.061, -2.440e-8
0.062, -2.445e-8
0.063, -2.447e-8
0.064, -2.473e-8
0.065, -2.489e-8
0.066, -2.479e-8
0.067, -2.497e-8
0.068, -2.520e-8
0.069, -2.507e-8
0.070, -2.510e-8
0.071, -2.537e-8
0.072, -2.530e-8
0.073, -2.522e-8
0.074, -2.541e-8
0.075, -2.545e-8
0.076, -2.528e-8
0.077, -2.538e-8
0.078, -2.551e-8
0.079, -2.535e-8
0.080, -2.526e-8
0.081, -2.545e-8
0.082, -2.533e-8
0.083, -2.515e-8
0.084, -2.528e-8
0.085, -2.527e-8
0.086, -2.500e-8
0.087, -2.507e-8
0.088, -2.511e-8
0.089, -2.489e-8
0.090, -2.480e-8
0.091, -2.491e-8
0.092, -2.474e-8
0.093, -2.453e-8
0.094, -2.459e-8
0.095, -2.457e-8
0.096, -2.424e-8
0.097, -2.426e-8
0.098, -2.430e-8
0.099, -2.403e-8
0.100, -2.390e-8
0.101, -2.399e-8
0.102, -2.380e-8
0.103, -2.358e-8
0.104, -2.361e-8
0.105, -2.356e-8
0.106, -2.324e-8
0.107, -2.322e-8
0.108, -2.326e-8
0.109, -2.296e-8
0.110, -2.281e-8
0.111, -2.293e-8
0.112, -2.269e-8
0.113, -2.247e-8
0.114, -2.252e-8
0.115, -2.245e-8
0.116, -2.213e-8
0.117, -2.212e-8
0.118, -2.214e-8
0.119, -2.188e-8
0.120, -2.171e-8
0.121, -2.181e-8
0.122, -2.161e-8
0.123, -2.138e-8
0.124, -2.144e-8
0.125, -2.137e-8
0.126, -2.105e-8
0.127, -2.107e-8
0.128, -2.110e-8
0.129, -2.082e-8
0.130, -2.070e-8
0.131, -2.078e-8
0.132, -2.060e-8
0.133, -2.037e-8
0.134, -2.043e-8
0.135, -2.040e-8
0.136, -2.009e-8
0.137, -2.009e-8
0.138, -2.015e-8
0.139, -1.988e-8
0.140, -1.976e-8
0.141, -1.988e-8
0.142, -1.968e-8
0.143, -1.949e-8
0.144, -1.955e-8
0.145, -1.952e-8
0.146, -1.923e-8
0.147, -1.925e-8
0.148, -1.931e-8
0.149, -1.906e-8
0.150, -1.893e-8
0.151, -1.909e-8
0.152, -1.889e-8
0.153, -1.871e-8
0.154, -1.881e-8
0.155, -1.877e-8
0.156, -1.849e-8
0.157, -1.853e-8
0.158, -1.859e-8
0.159, -1.837e-8
0.160, -1.825e-8
0.161, -1.839e-8
0.162, -1.823e-8
0.163, -1.803e-8
0.164, -1.815e-8
0.165, -1.813e-8
0.166, -1.785e-8
0.167, -1.792e-8
0.168, -1.797e-8
0.169, -1.776e-8
0.170, -1.766e-8
0.171, -1.781e-8
0.172, -1.766e-8
0.173, -1.748e-8
0.174, -1.758e-8
0.175, -1.760e-8
0.176, -1.731e-8
0.177, -1.738e-8
0.178, -1.747e-8
0.179, -1.725e-8
0.180, -1.716e-8
0.181, -1.733e-8
0.182, -1.717e-8
0.183, -1.702e-8
0.184, -1.712e-8
0.185, -1.713e-8
0.186, -1.688e-8
0.187, -1.693e-8
0.188, -1.704e-8
0.189, -1.682e-8
0.190, -1.674e-8
0.191, -1.693e-8
0.192, -1.677e-8
0.193, -1.661e-8
0.194, -1.674e-8
0.195, -1.675e-8
0.196, -1.650e-8
0.197, -1.657e-8
0.198, -1.667e-8
0.199, -1.647e-8
0.200, -1.639e-8
0.201, -1.657e-8
0.202, -1.644e-8
0.203, -1.627e-8
0.204, -1.643e-8
0.205, -1.644e-8
0.206, -1.618e-8
0.207, -1.628e-8
0.208, -1.637e-8
0.209, -1.616e-8
0.210, -1.611e-8
0.211, -1.629e-8
0.212, -1.616e-8
0.213, -1.601e-8
0.214, -1.614e-8
0.215, -1.617e-8
0.216, -1.592e-8
0.217, -1.601e-8
0.218, -1.614e-8
0.219, -1.592e-8
0.220, -1.587e-8
0.221, -1.606e-8
0.222, -1.592e-8
0.223, -1.579e-8
0.224, -1.592e-8
0.225, -1.595e-8
0.226, -1.572e-8
0.227, -1.580e-8
0.228, -1.593e-8
0.229, -1.573e-8
0.230, -1.568e-8
0.231, -1.588e-8
0.232, -1.573e-8
0.233, -1.559e-8
0.234, -1.576e-8
0.235, -1.578e-8
0.236, -1.555e-8
0.237, -1.564e-8
0.238, -1.576e-8
0.239, -1.557e-8
0.240, -1.552e-8
0.241, -1.572e-8
0.242, -1.560e-8
0.243, -1.546e-8
0.244, -1.562e-8
0.245, -1.564e-8
0.246, -1.541e-8
0.247, -1.553e-8
0.248, -1.563e-8
0.249, -1.544e-8
0.250, -1.542e-8
0.251, -1.560e-8
0.252, -1.550e-8
0.253, -1.535e-8
0.254, -1.551e-8
0.255, -1.556e-8
0.256, -1.532e-8
0.257, -1.543e-8
0.258, -1.557e-8
0.259, -1.536e-8
0.260, -1.534e-8
0.261, -1.554e-8
0.262, -1.541e-8
0.263, -1.529e-8
0.264, -1.545e-8
0.265, -1.549e-8
0.266, -1.528e-8
0.267, -1.537e-8
0.268, -1.552e-8
0.269, -1.532e-8
0.270, -1.529e-8
0.271, -1.550e-8
0.272, -1.539e-8
0.273, -1.525e-8
0.274, -1.544e-8
0.275, -1.546e-8
0.276, -1.526e-8
0.277, -1.536e-8
0.278, -1.550e-8
0.279, -1.532e-8
0.280, -1.529e-8
0.281, -1.550e-8
0.282, -1.541e-8
0.283, -1.527e-8
0.284, -1.546e-8
0.285, -1.548e-8
0.286, -1.527e-8
0.287, -1.540e-8
0.288, -1.553e-8
0.289, -1.535e-8
0.290, -1.534e-8
0.291, -1.553e-8
0.292, -1.545e-8
0.293, -1.532e-8
0.294, -1.551e-8
0.295, -1.555e-8
0.296, -1.534e-8
0.297, -1.545e-8
0.298, -1.562e-8
0.299, -1.541e-8
0.300, -1.353e-8
0.299, -1.227e-8
0.298, -1.186e-8
0.297, -1.149e-8
0.296, -1.151e-8
0.295, -1.137e-8
0.294, -1.103e-8
0.293, -1.101e-8
0.292, -1.103e-8
0.291, -1.075e-8
0.290, -1.063e-8
0.289, -1.072e-8
0.288, -1.056e-8
0.287, -1.032e-8
0.286, -1.044e-8
0.285, -1.039e-8
0.284, -1.010e-8
0.283, -1.015e-8
0.282, -1.023e-8
0.281, -9.957e-9
0.280, -9.905e-9
0.279, -1.003e-8
0.278, -9.883e-9
0.277, -9.693e-9
0.276, -9.817e-9
0.275, -9.802e-9
0.274, -9.554e-9
0.273, -9.592e-9
0.272, -9.709e-9
0.271, -9.454e-9
0.270, -9.405e-9
0.269, -9.558e-9
0.268, -9.407e-9
0.267, -9.249e-9
0.266, -9.400e-9
0.265, -9.357e-9
0.264, -9.142e-9
0.263, -9.198e-9
0.262, -9.312e-9
0.261, -9.077e-9
0.260, -9.020e-9
0.259, -9.199e-9
0.258, -9.061e-9
0.257, -8.879e-9
0.256, -9.050e-9
0.255, -9.024e-9
0.254, -8.804e-9
0.253, -8.880e-9
0.252, -8.977e-9
0.251, -8.765e-9
0.250, -8.729e-9
0.249, -8.882e-9
0.248, -8.764e-9
0.247, -8.594e-9
0.246, -8.760e-9
0.245, -8.749e-9
0.244, -8.512e-9
0.243, -8.600e-9
0.242, -8.720e-9
0.241, -8.482e-9
0.240, -8.465e-9
0.239, -8.617e-9
0.238, -8.505e-9
0.237, -8.341e-9
0.236, -8.500e-9
0.235, -8.500e-9
0.234, -8.278e-9
0.233, -8.339e-9
0.232, -8.476e-9
0.231, -8.244e-9
0.230, -8.215e-9
0.229, -8.388e-9
0.228, -8.254e-9
0.227, -8.103e-9
0.226, -8.276e-9
0.225, -8.258e-9
0.224, -8.051e-9
0.223, -8.117e-9
0.222, -8.245e-9
0.221, -8.020e-9
0.220, -7.983e-9
0.219, -8.163e-9
0.218, -8.042e-9
0.217, -7.871e-9
0.216, -8.058e-9
0.215, -8.031e-9
0.214, -7.830e-9
0.213, -7.905e-9
0.212, -8.013e-9
0.211, -7.805e-9
0.210, -7.774e-9
0.209, -7.936e-9
0.208, -7.827e-9
0.207, -7.650e-9
0.206, -7.838e-9
0.205, -7.818e-9
0.204, -7.592e-9
0.203, -7.689e-9
0.202, -7.808e-9
0.201, -7.564e-9
0.200, -7.558e-9
0.199, -7.715e-9
0.198, -7.597e-9
0.197, -7.438e-9
0.196, -7.601e-9
0.195, -7.597e-9
0.194, -7.383e-9
0.193, -7.451e-9
0.192, -7.580e-9
0.191, -7.337e-9
0.190, -7.325e-9
0.189, -7.487e-9
0.188, -7.354e-9
0.187, -7.199e-9
0.186, -7.374e-9
0.185, -7.346e-9
0.184, -7.136e-9
0.183, -7.202e-9
0.182, -7.328e-9
0.181, -7.093e-9
0.180, -7.052e-9
0.179, -7.228e-9
0.178, -7.092e-9
0.177, -6.921e-9
0.176, -7.105e-9
0.175, -7.067e-9
0.174, -6.855e-9
0.173, -6.931e-9
0.172, -7.022e-9
0.171, -6.800e-9
0.170, -6.777e-9
0.169, -6.918e-9
0.168, -6.803e-9
0.167, -6.611e-9
0.166, -6.784e-9
0.165, -6.758e-9
0.164, -6.516e-9
0.163, -6.596e-9
0.162, -6.702e-9
0.161, -6.444e-9
0.160, -6.427e-9
0.159, -6.563e-9
0.158, -6.424e-9
0.157, -6.255e-9
0.156, -6.392e-9
0.155, -6.364e-9
0.154, -6.128e-9
0.153, -6.171e-9
0.152, -6.286e-9
0.151, -6.019e-9
0.150, -5.981e-9
0.149, -6.119e-9
0.148, -5.951e-9
0.147, -5.778e-9
0.146, -5.927e-9
0.145, -5.849e-9
0.144, -5.623e-9
0.143, -5.653e-9
0.142, -5.737e-9
0.141, -5.467e-9
0.140, -5.401e-9
0.139, -5.533e-9
0.138, -5.367e-9
0.137, -5.154e-9
0.136, -5.283e-9
0.135, -5.201e-9
0.134, -4.936e-9
0.133, -4.973e-9
0.132, -5.018e-9
0.131, -4.745e-9
0.130, -4.659e-9
0.129, -4.744e-9
0.128, -4.552e-9
0.127, -4.331e-9
0.126, -4.429e-9
0.125, -4.339e-9
0.124, -4.035e-9
0.123, -4.052e-9
0.122, -4.070e-9
0.121, -3.745e-9
0.120, -3.650e-9
0.119, -3.704e-9
0.118, -3.492e-9
0.117, -3.239e-9
0.116, -3.284e-9
0.115, -3.178e-9
0.114, -2.837e-9
0.113, -2.809e-9
0.112, -2.799e-9
0.111, -2.441e-9
0.110, -2.302e-9
0.109, -2.337e-9
0.108, -2.044e-9
0.107, -1.774e-9
0.106, -1.785e-9
0.105, -1.611e-9
0.104, -1.236e-9
0.103, -1.150e-9
0.102, -1.086e-9
0.101, -7.114e-10
0.100, -4.938e-10
0.099, -5.031e-10
0.098, -1.681e-10
0.097, 1.756e-10
0.096, 2.016e-10
0.095, 4.309e-10
0.094, 8.540e-10
0.093, 9.753e-10
0.092, 1.108e-9
0.091, 1.541e-9
0.090, 1.801e-9
0.089, 1.875e-9
0.088, 2.235e-9
0.087, 2.637e-9
0.086, 2.716e-9
0.085, 2.977e-9
0.084, 3.490e-9
0.083, 3.630e-9
0.082, 3.813e-9
0.081, 4.309e-9
0.080, 4.592e-9
0.079, 4.740e-9
0.078, 5.156e-9
0.077, 5.584e-9
0.076, 5.743e-9
0.075, 6.024e-9
0.074, 6.550e-9
0.073, 6.768e-9
0.072, 6.962e-9
0.071, 7.505e-9
0.070, 7.831e-9
0.069, 7.984e-9
0.068, 8.464e-9
0.067, 8.870e-9
0.066, 9.068e-9
0.065, 9.388e-9
0.064, 9.926e-9
0.063, 1.016e-8
0.062, 1.037e-8
0.061, 1.088e-8
0.060, 1.126e-8
0.059, 1.137e-8
0.058, 1.183e-8
0.057, 1.225e-8
0.056, 1.240e-8
0.055, 1.273e-8
0.054, 1.324e-8
0.053, 1.342e-8
0.052, 1.365e-8
0.051, 1.410e-8
0.050, 1.440e-8
0.049, 1.452e-8
0.048, 1.490e-8
0.047, 1.530e-8
0.046, 1.540e-8
0.045, 1.562e-8
0.044, 1.611e-8
0.043, 1.619e-8
0.042, 1.636e-8
0.041, 1.677e-8
0.040, 1.698e-8
0.039, 1.703e-8
0.038, 1.734e-8
0.037, 1.763e-8
0.036, 1.767e-8
0.035, 1.778e-8
0.034, 1.818e-8
0.033, 1.820e-8
0.032, 1.823e-8
0.031, 1.856e-8
0.030, 1.868e-8
0.029, 1.859e-8
0.028, 1.886e-8
0.027, 1.903e-8
0.026, 1.898e-8
0.025, 1.904e-8
0.024, 1.930e-8
0.023, 1.922e-8
0.022, 1.918e-8
0.021, 1.939e-8
0.020, 1.946e-8
0.019, 1.926e-8
0.018, 1.941e-8
0.017, 1.953e-8
0.016, 1.937e-8
0.015, 1.936e-8
0.014, 1.954e-8
0.013, 1.939e-8
0.012, 1.930e-8
0.011, 1.940e-8
0.010, 1.939e-8
0.009, 1.916e-8
0.008, 1.924e-8
0.007, 1.929e-8
0.006, 1.907e-8
0.005, 1.898e-8
0.004, 1.915e-8
0.003, 1.891e-8
0.002, 1.876e-8
0.001, 1.886e-8
0.000, 1.889e-8
-0.001, 1.854e-8
-0.002, 1.857e-8
-0.003, 1.857e-8
-0.004, 1.832e-8
-0.005, 1.819e-8
-0.006, 1.831e-8
-0.007, 1.808e-8
-0.008, 1.787e-8
-0.009, 1.796e-8
-0.010, 1.787e-8
-0.011, 1.755e-8
-0.012, 1.761e-8
-0.013, 1.758e-8
-0.014, 1.731e-8
-0.015, 1.719e-8
-0.016, 1.728e-8
-0.017, 1.705e-8
-0.018, 1.683e-8
-0.019, 1.690e-8
-0.020, 1.682e-8
-0.021, 1.648e-8
-0.022, 1.652e-8
-0.023, 1.652e-8
-0.024, 1.622e-8
-0.025, 1.611e-8
-0.026, 1.622e-8
-0.027, 1.596e-8
-0.028, 1.577e-8
-0.029, 1.584e-8
-0.030, 1.574e-8
-0.031, 1.544e-8
-0.032, 1.546e-8
-0.033, 1.548e-8
-0.034, 1.519e-8
-0.035, 1.508e-8
-0.036, 1.521e-8
-0.037, 1.495e-8
-0.038, 1.476e-8
-0.039, 1.486e-8
-0.040, 1.476e-8
-0.041, 1.447e-8
-0.042, 1.451e-8
-0.043, 1.452e-8
-0.044, 1.427e-8
-0.045, 1.415e-8
-0.046, 1.427e-8
-0.047, 1.406e-8
-0.048, 1.385e-8
-0.049, 1.397e-8
-0.050, 1.389e-8
-0.051, 1.360e-8
-0.052, 1.367e-8
-0.053, 1.368e-8
-0.054, 1.342e-8
-0.055, 1.334e-8
-0.056, 1.347e-8
-0.057, 1.327e-8
-0.058, 1.308e-8
-0.059, 1.319e-8
-0.060, 1.314e-8
-0.061, 1.285e-8
-0.062, 1.291e-8
-0.063, 1.297e-8
-0.064, 1.270e-8
-0.065, 1.263e-8
-0.066, 1.277e-8
-0.067, 1.257e-8
-0.068, 1.240e-8
-0.069, 1.253e-8
-0.070, 1.246e-8
-0.071, 1.222e-8
-0.072, 1.228e-8
-0.073, 1.234e-8
-0.074, 1.209e-8
-0.075, 1.204e-8
-0.076, 1.219e-8
-0.077, 1.200e-8
-0.078, 1.182e-8
-0.079, 1.198e-8
-0.080, 1.190e-8
-0.081, 1.168e-8
-0.082, 1.174e-8
-0.083, 1.181e-8
-0.084, 1.157e-8
-0.085, 1.152e-8
-0.086, 1.167e-8
-0.087, 1.150e-8
-0.088, 1.133e-8
-0.089, 1.150e-8
-0.090, 1.143e-8
-0.091, 1.120e-8
-0.092, 1.129e-8
-0.093, 1.135e-8
-0.094, 1.111e-8
-0.095, 1.109e-8
-0.096, 1.122e-8
-0.097, 1.108e-8
-0.098, 1.091e-8
-0.099, 1.108e-8
-0.100, 1.103e-8
-0.101, 1.080e-8
-0.102, 1.089e-8
-0.103, 1.098e-8
-0.104, 1.072e-8
-0.105, 1.072e-8
-0.106, 1.087e-8
-0.107, 1.071e-8
-0.108, 1.056e-8
-0.109, 1.073e-8
-0.110, 1.068e-8
-0.111, 1.047e-8
-0.112, 1.055e-8
-0.113, 1.064e-8
-0.114, 1.041e-8
-0.115, 1.040e-8
-0.116, 1.056e-8
-0.117, 1.040e-8
-0.118, 1.024e-8
-0.119, 1.044e-8
-0.120, 1.039e-8
-0.121, 1.018e-8
-0.122, 1.027e-8
-0.123, 1.036e-8
-0.124, 1.014e-8
-0.125, 1.012e-8
-0.126, 1.029e-8
-0.127, 1.015e-8
-0.128, 9.995e-9
-0.129, 1.018e-8
-0.130, 1.014e-8
-0.131, 9.926e-9
-0.132, 1.003e-8
-0.133, 1.012e-8
-0.134, 9.896e-9
-0.135, 9.899e-9
-0.136, 1.005e-8
-0.137, 9.923e-9
-0.138, 9.768e-9
-0.139, 9.963e-9
-0.140, 9.937e-9
-0.141, 9.718e-9
-0.142, 9.816e-9
-0.143, 9.933e-9
-0.144, 9.694e-9
-0.145, 9.703e-9
-0.146, 9.867e-9
-0.147, 9.724e-9
-0.148, 9.594e-9
-0.149, 9.780e-9
-0.150, 9.736e-9
-0.151, 9.548e-9
-0.152, 9.647e-9
-0.153, 9.757e-9
-0.154, 9.542e-9
-0.155, 9.534e-9
-0.156, 9.713e-9
-0.157, 9.565e-9
-0.158, 9.430e-9
-0.159, 9.639e-9
-0.160, 9.588e-9
-0.161, 9.403e-9
-0.162, 9.502e-9
-0.163, 9.603e-9
-0.164, 9.410e-9
-0.165, 9.402e-9
-0.166, 9.569e-9
-0.167, 9.447e-9
-0.168, 9.302e-9
-0.169, 9.511e-9
-0.170, 9.476e-9
-0.171, 9.275e-9
-0.172, 9.397e-9
-0.173, 9.490e-9
-0.174, 9.275e-9
-0.175, 9.297e-9
-0.176, 9.464e-9
-0.177, 9.336e-9
-0.178, 9.204e-9
-0.179, 9.402e-9
-0.180, 9.383e-9
-0.181, 9.171e-9
-0.182, 9.298e-9
-0.183, 9.403e-9
-0.184, 9.188e-9
-0.185, 9.207e-9
-0.186, 9.380e-9
-0.187, 9.249e-9
-0.188, 9.137e-9
-0.189, 9.320e-9
-0.190, 9.296e-9
-0.191, 9.114e-9
-0.192, 9.231e-9
-0.193, 9.333e-9
-0.194, 9.133e-9
-0.195, 9.125e-9
-0.196, 9.339e-9
-0.197, 9.185e-9
-0.198, 9.072e-9
-0.199, 9.283e-9
