Mar. 16, 2023   08:59:34
Cyclic Voltammetry
File: c:/users/oliverrz/desktop/electrolab/data/2023_03_16\fcmeoh_macros_250_um\electrode6_cv_50mvs_250_um.bin
Data Source:  Experiment
Instrument Model:  CHI760E
Header: CV
Note: 

Init E (V) = -0.2
High E (V) = 0.3
Low E (V) = -0.2
Final E (V) = -0.2
Init P/N = P
Scan Rate (V/s) = 0.05
Segment = 3
Sample Interval (V) = 0.001
Quiet Time (sec) = 2
Sensitivity (A/V) = 1e-7

Results:

Channel 1:
Segment 1:
Ep = 0.081V
ip = -1.300e-8A
Ah = -1.712e-8C

Segment 2:
Ep = 0.005V
ip = 1.257e-8A
Ah = 1.717e-8C

Segment 3:

Potential/V, Current/A

-0.200, 2.967e-9
-0.199, 2.720e-9
-0.198, 2.665e-9
-0.197, 2.633e-9
-0.196, 2.608e-9
-0.195, 2.590e-9
-0.194, 2.567e-9
-0.193, 2.545e-9
-0.192, 2.522e-9
-0.191, 2.505e-9
-0.190, 2.490e-9
-0.189, 2.472e-9
-0.188, 2.450e-9
-0.187, 2.432e-9
-0.186, 2.417e-9
-0.185, 2.402e-9
-0.184, 2.388e-9
-0.183, 2.367e-9
-0.182, 2.351e-9
-0.181, 2.337e-9
-0.180, 2.325e-9
-0.179, 2.311e-9
-0.178, 2.294e-9
-0.177, 2.279e-9
-0.176, 2.269e-9
-0.175, 2.258e-9
-0.174, 2.246e-9
-0.173, 2.231e-9
-0.172, 2.215e-9
-0.171, 2.206e-9
-0.170, 2.195e-9
-0.169, 2.183e-9
-0.168, 2.169e-9
-0.167, 2.152e-9
-0.166, 2.143e-9
-0.165, 2.134e-9
-0.164, 2.122e-9
-0.163, 2.108e-9
-0.162, 2.094e-9
-0.161, 2.084e-9
-0.160, 2.076e-9
-0.159, 2.065e-9
-0.158, 2.054e-9
-0.157, 2.040e-9
-0.156, 2.032e-9
-0.155, 2.025e-9
-0.154, 2.011e-9
-0.153, 2.000e-9
-0.152, 1.991e-9
-0.151, 1.979e-9
-0.150, 1.973e-9
-0.149, 1.963e-9
-0.148, 1.949e-9
-0.147, 1.941e-9
-0.146, 1.930e-9
-0.145, 1.922e-9
-0.144, 1.914e-9
-0.143, 1.898e-9
-0.142, 1.889e-9
-0.141, 1.881e-9
-0.140, 1.873e-9
-0.139, 1.865e-9
-0.138, 1.853e-9
-0.137, 1.841e-9
-0.136, 1.834e-9
-0.135, 1.826e-9
-0.134, 1.818e-9
-0.133, 1.806e-9
-0.132, 1.793e-9
-0.131, 1.788e-9
-0.130, 1.780e-9
-0.129, 1.773e-9
-0.128, 1.760e-9
-0.127, 1.748e-9
-0.126, 1.743e-9
-0.125, 1.736e-9
-0.124, 1.727e-9
-0.123, 1.715e-9
-0.122, 1.703e-9
-0.121, 1.697e-9
-0.120, 1.689e-9
-0.119, 1.680e-9
-0.118, 1.669e-9
-0.117, 1.655e-9
-0.116, 1.647e-9
-0.115, 1.639e-9
-0.114, 1.629e-9
-0.113, 1.617e-9
-0.112, 1.605e-9
-0.111, 1.596e-9
-0.110, 1.590e-9
-0.109, 1.580e-9
-0.108, 1.565e-9
-0.107, 1.555e-9
-0.106, 1.546e-9
-0.105, 1.538e-9
-0.104, 1.529e-9
-0.103, 1.513e-9
-0.102, 1.499e-9
-0.101, 1.491e-9
-0.100, 1.483e-9
-0.099, 1.474e-9
-0.098, 1.460e-9
-0.097, 1.446e-9
-0.096, 1.436e-9
-0.095, 1.427e-9
-0.094, 1.415e-9
-0.093, 1.400e-9
-0.092, 1.384e-9
-0.091, 1.376e-9
-0.090, 1.365e-9
-0.089, 1.351e-9
-0.088, 1.338e-9
-0.087, 1.319e-9
-0.086, 1.309e-9
-0.085, 1.299e-9
-0.084, 1.286e-9
-0.083, 1.269e-9
-0.082, 1.252e-9
-0.081, 1.240e-9
-0.080, 1.227e-9
-0.079, 1.212e-9
-0.078, 1.195e-9
-0.077, 1.174e-9
-0.076, 1.159e-9
-0.075, 1.148e-9
-0.074, 1.130e-9
-0.073, 1.108e-9
-0.072, 1.089e-9
-0.071, 1.073e-9
-0.070, 1.055e-9
-0.069, 1.037e-9
-0.068, 1.013e-9
-0.067, 9.926e-10
-0.066, 9.736e-10
-0.065, 9.563e-10
-0.064, 9.332e-10
-0.063, 9.060e-10
-0.062, 8.823e-10
-0.061, 8.599e-10
-0.060, 8.348e-10
-0.059, 8.124e-10
-0.058, 7.835e-10
-0.057, 7.572e-10
-0.056, 7.347e-10
-0.055, 7.084e-10
-0.054, 6.832e-10
-0.053, 6.485e-10
-0.052, 6.121e-10
-0.051, 5.831e-10
-0.050, 5.485e-10
-0.049, 5.168e-10
-0.048, 4.820e-10
-0.047, 4.449e-10
-0.046, 4.141e-10
-0.045, 3.807e-10
-0.044, 3.401e-10
-0.043, 3.002e-10
-0.042, 2.575e-10
-0.041, 2.202e-10
-0.040, 1.803e-10
-0.039, 1.346e-10
-0.038, 8.665e-11
-0.037, 3.901e-11
-0.036, -5.198e-12
-0.035, -4.852e-11
-0.034, -1.008e-10
-0.033, -1.541e-10
-0.032, -2.096e-10
-0.031, -2.645e-10
-0.030, -3.165e-10
-0.029, -3.784e-10
-0.028, -4.413e-10
-0.027, -5.025e-10
-0.026, -5.670e-10
-0.025, -6.319e-10
-0.024, -6.977e-10
-0.023, -7.732e-10
-0.022, -8.441e-10
-0.021, -9.154e-10
-0.020, -9.900e-10
-0.019, -1.065e-9
-0.018, -1.150e-9
-0.017, -1.232e-9
-0.016, -1.314e-9
-0.015, -1.400e-9
-0.014, -1.489e-9
-0.013, -1.587e-9
-0.012, -1.686e-9
-0.011, -1.779e-9
-0.010, -1.879e-9
-0.009, -1.978e-9
-0.008, -2.088e-9
-0.007, -2.201e-9
-0.006, -2.305e-9
-0.005, -2.417e-9
-0.004, -2.534e-9
-0.003, -2.655e-9
-0.002, -2.781e-9
-0.001, -2.902e-9
-0.000, -3.059e-9
0.001, -3.190e-9
0.002, -3.316e-9
0.003, -3.448e-9
0.004, -3.579e-9
0.005, -3.717e-9
0.006, -3.860e-9
0.007, -4.012e-9
0.008, -4.164e-9
0.009, -4.318e-9
0.010, -4.466e-9
0.011, -4.627e-9
0.012, -4.789e-9
0.013, -4.952e-9
0.014, -5.121e-9
0.015, -5.283e-9
0.016, -5.450e-9
0.017, -5.629e-9
0.018, -5.799e-9
0.019, -5.976e-9
0.020, -6.149e-9
0.021, -6.323e-9
0.022, -6.512e-9
0.023, -6.688e-9
0.024, -6.868e-9
0.025, -7.053e-9
0.026, -7.241e-9
0.027, -7.432e-9
0.028, -7.619e-9
0.029, -7.794e-9
0.030, -7.980e-9
0.031, -8.160e-9
0.032, -8.345e-9
0.033, -8.529e-9
0.034, -8.704e-9
0.035, -8.881e-9
0.036, -9.060e-9
0.037, -9.234e-9
0.038, -9.413e-9
0.039, -9.580e-9
0.040, -9.747e-9
0.041, -9.917e-9
0.042, -1.008e-8
0.043, -1.024e-8
0.044, -1.040e-8
0.045, -1.055e-8
0.046, -1.070e-8
0.047, -1.085e-8
0.048, -1.099e-8
0.049, -1.114e-8
0.050, -1.126e-8
0.051, -1.140e-8
0.052, -1.153e-8
0.053, -1.165e-8
0.054, -1.177e-8
0.055, -1.188e-8
0.056, -1.198e-8
0.057, -1.209e-8
0.058, -1.218e-8
0.059, -1.228e-8
0.060, -1.237e-8
0.061, -1.245e-8
0.062, -1.254e-8
0.063, -1.261e-8
0.064, -1.268e-8
0.065, -1.275e-8
0.066, -1.280e-8
0.067, -1.286e-8
0.068, -1.291e-8
0.069, -1.295e-8
0.070, -1.300e-8
0.071, -1.303e-8
0.072, -1.307e-8
0.073, -1.310e-8
0.074, -1.312e-8
0.075, -1.314e-8
0.076, -1.316e-8
0.077, -1.318e-8
0.078, -1.320e-8
0.079, -1.320e-8
0.080, -1.320e-8
0.081, -1.320e-8
0.082, -1.320e-8
0.083, -1.320e-8
0.084, -1.319e-8
0.085, -1.318e-8
0.086, -1.316e-8
0.087, -1.315e-8
0.088, -1.313e-8
0.089, -1.312e-8
0.090, -1.309e-8
0.091, -1.307e-8
0.092, -1.305e-8
0.093, -1.301e-8
0.094, -1.299e-8
0.095, -1.295e-8
0.096, -1.292e-8
0.097, -1.289e-8
0.098, -1.286e-8
0.099, -1.282e-8
0.100, -1.278e-8
0.101, -1.274e-8
0.102, -1.271e-8
0.103, -1.268e-8
0.104, -1.264e-8
0.105, -1.260e-8
0.106, -1.255e-8
0.107, -1.251e-8
0.108, -1.248e-8
0.109, -1.243e-8
0.110, -1.239e-8
0.111, -1.235e-8
0.112, -1.231e-8
0.113, -1.227e-8
0.114, -1.222e-8
0.115, -1.218e-8
0.116, -1.214e-8
0.117, -1.210e-8
0.118, -1.206e-8
0.119, -1.202e-8
0.120, -1.197e-8
0.121, -1.194e-8
0.122, -1.189e-8
0.123, -1.186e-8
0.124, -1.182e-8
0.125, -1.177e-8
0.126, -1.173e-8
0.127, -1.170e-8
0.128, -1.166e-8
0.129, -1.162e-8
0.130, -1.158e-8
0.131, -1.154e-8
0.132, -1.151e-8
0.133, -1.147e-8
0.134, -1.144e-8
0.135, -1.140e-8
0.136, -1.136e-8
0.137, -1.133e-8
0.138, -1.130e-8
0.139, -1.127e-8
0.140, -1.123e-8
0.141, -1.120e-8
0.142, -1.117e-8
0.143, -1.114e-8
0.144, -1.110e-8
0.145, -1.107e-8
0.146, -1.104e-8
0.147, -1.101e-8
0.148, -1.099e-8
0.149, -1.095e-8
0.150, -1.092e-8
0.151, -1.090e-8
0.152, -1.087e-8
0.153, -1.085e-8
0.154, -1.082e-8
0.155, -1.079e-8
0.156, -1.077e-8
0.157, -1.074e-8
0.158, -1.072e-8
0.159, -1.069e-8
0.160, -1.067e-8
0.161, -1.065e-8
0.162, -1.062e-8
0.163, -1.061e-8
0.164, -1.058e-8
0.165, -1.056e-8
0.166, -1.054e-8
0.167, -1.052e-8
0.168, -1.050e-8
0.169, -1.048e-8
0.170, -1.046e-8
0.171, -1.044e-8
0.172, -1.043e-8
0.173, -1.041e-8
0.174, -1.039e-8
0.175, -1.037e-8
0.176, -1.035e-8
0.177, -1.034e-8
0.178, -1.032e-8
0.179, -1.031e-8
0.180, -1.029e-8
0.181, -1.027e-8
0.182, -1.026e-8
0.183, -1.025e-8
0.184, -1.023e-8
0.185, -1.022e-8
0.186, -1.020e-8
0.187, -1.019e-8
0.188, -1.019e-8
0.189, -1.017e-8
0.190, -1.015e-8
0.191, -1.014e-8
0.192, -1.014e-8
0.193, -1.013e-8
0.194, -1.011e-8
0.195, -1.010e-8
0.196, -1.009e-8
0.197, -1.008e-8
0.198, -1.008e-8
0.199, -1.006e-8
0.200, -1.005e-8
0.201, -1.005e-8
0.202, -1.004e-8
0.203, -1.003e-8
0.204, -1.002e-8
0.205, -1.001e-8
0.206, -1.001e-8
0.207, -1.000e-8
0.208, -9.994e-9
0.209, -9.985e-9
0.210, -9.976e-9
0.211, -9.969e-9
0.212, -9.968e-9
0.213, -9.962e-9
0.214, -9.953e-9
0.215, -9.947e-9
0.216, -9.939e-9
0.217, -9.940e-9
0.218, -9.935e-9
0.219, -9.928e-9
0.220, -9.921e-9
0.221, -9.915e-9
0.222, -9.917e-9
0.223, -9.914e-9
0.224, -9.904e-9
0.225, -9.903e-9
0.226, -9.895e-9
0.227, -9.896e-9
0.228, -9.896e-9
0.229, -9.888e-9
0.230, -9.884e-9
0.231, -9.883e-9
0.232, -9.883e-9
0.233, -9.882e-9
0.234, -9.875e-9
0.235, -9.872e-9
0.236, -9.874e-9
0.237, -9.873e-9
0.238, -9.875e-9
0.239, -9.870e-9
0.240, -9.865e-9
0.241, -9.865e-9
0.242, -9.865e-9
0.243, -9.867e-9
0.244, -9.866e-9
0.245, -9.862e-9
0.246, -9.862e-9
0.247, -9.865e-9
0.248, -9.865e-9
0.249, -9.865e-9
0.250, -9.861e-9
0.251, -9.863e-9
0.252, -9.870e-9
0.253, -9.869e-9
0.254, -9.869e-9
0.255, -9.869e-9
0.256, -9.872e-9
0.257, -9.877e-9
0.258, -9.879e-9
0.259, -9.878e-9
0.260, -9.877e-9
0.261, -9.878e-9
0.262, -9.885e-9
0.263, -9.887e-9
0.264, -9.887e-9
0.265, -9.889e-9
0.266, -9.890e-9
0.267, -9.896e-9
0.268, -9.903e-9
0.269, -9.902e-9
0.270, -9.905e-9
0.271, -9.908e-9
0.272, -9.915e-9
0.273, -9.920e-9
0.274, -9.919e-9
0.275, -9.921e-9
0.276, -9.928e-9
0.277, -9.932e-9
0.278, -9.939e-9
0.279, -9.941e-9
0.280, -9.943e-9
0.281, -9.951e-9
0.282, -9.960e-9
0.283, -9.966e-9
0.284, -9.969e-9
0.285, -9.971e-9
0.286, -9.978e-9
0.287, -9.985e-9
0.288, -9.991e-9
0.289, -9.996e-9
0.290, -9.998e-9
0.291, -1.000e-8
0.292, -1.001e-8
0.293, -1.002e-8
0.294, -1.003e-8
0.295, -1.003e-8
0.296, -1.003e-8
0.297, -1.005e-8
0.298, -1.005e-8
0.299, -1.005e-8
0.300, -9.832e-9
0.299, -9.191e-9
0.298, -8.987e-9
0.297, -8.877e-9
0.296, -8.783e-9
0.295, -8.700e-9
0.294, -8.627e-9
0.293, -8.564e-9
0.292, -8.507e-9
0.291, -8.451e-9
0.290, -8.395e-9
0.289, -8.345e-9
0.288, -8.303e-9
0.287, -8.258e-9
0.286, -8.215e-9
0.285, -8.170e-9
0.284, -8.131e-9
0.283, -8.097e-9
0.282, -8.062e-9
0.281, -8.026e-9
0.280, -7.990e-9
0.279, -7.957e-9
0.278, -7.932e-9
0.277, -7.902e-9
0.276, -7.871e-9
0.275, -7.841e-9
0.274, -7.812e-9
0.273, -7.792e-9
0.272, -7.768e-9
0.271, -7.736e-9
0.270, -7.711e-9
0.269, -7.687e-9
0.268, -7.667e-9
0.267, -7.649e-9
0.266, -7.622e-9
0.265, -7.599e-9
0.264, -7.580e-9
0.263, -7.561e-9
0.262, -7.546e-9
0.261, -7.522e-9
0.260, -7.501e-9
0.259, -7.483e-9
0.258, -7.467e-9
0.257, -7.454e-9
0.256, -7.431e-9
0.255, -7.410e-9
0.254, -7.397e-9
0.253, -7.382e-9
0.252, -7.366e-9
0.251, -7.347e-9
0.250, -7.326e-9
0.249, -7.311e-9
0.248, -7.296e-9
0.247, -7.278e-9
0.246, -7.258e-9
0.245, -7.237e-9
0.244, -7.223e-9
0.243, -7.210e-9
0.242, -7.197e-9
0.241, -7.180e-9
0.240, -7.164e-9
0.239, -7.147e-9
0.238, -7.137e-9
0.237, -7.124e-9
0.236, -7.109e-9
0.235, -7.094e-9
0.234, -7.077e-9
0.233, -7.069e-9
0.232, -7.056e-9
0.231, -7.038e-9
0.230, -7.022e-9
0.229, -7.009e-9
0.228, -7.001e-9
0.227, -6.989e-9
0.226, -6.970e-9
0.225, -6.957e-9
0.224, -6.944e-9
0.223, -6.933e-9
0.222, -6.924e-9
0.221, -6.906e-9
0.220, -6.891e-9
0.219, -6.878e-9
0.218, -6.868e-9
0.217, -6.857e-9
0.216, -6.841e-9
0.215, -6.825e-9
0.214, -6.815e-9
0.213, -6.804e-9
0.212, -6.791e-9
0.211, -6.776e-9
0.210, -6.759e-9
0.209, -6.749e-9
0.208, -6.739e-9
0.207, -6.727e-9
0.206, -6.712e-9
0.205, -6.693e-9
0.204, -6.679e-9
0.203, -6.673e-9
0.202, -6.659e-9
0.201, -6.646e-9
0.200, -6.631e-9
0.199, -6.617e-9
0.198, -6.609e-9
0.197, -6.595e-9
0.196, -6.578e-9
0.195, -6.565e-9
0.194, -6.549e-9
0.193, -6.538e-9
0.192, -6.524e-9
0.191, -6.506e-9
0.190, -6.492e-9
0.189, -6.477e-9
0.188, -6.465e-9
0.187, -6.452e-9
0.186, -6.433e-9
0.185, -6.418e-9
0.184, -6.403e-9
0.183, -6.391e-9
0.182, -6.381e-9
0.181, -6.361e-9
0.180, -6.344e-9
0.179, -6.325e-9
0.178, -6.311e-9
0.177, -6.297e-9
0.176, -6.279e-9
0.175, -6.257e-9
0.174, -6.243e-9
0.173, -6.227e-9
0.172, -6.212e-9
0.171, -6.191e-9
0.170, -6.170e-9
0.169, -6.158e-9
0.168, -6.142e-9
0.167, -6.124e-9
0.166, -6.103e-9
0.165, -6.081e-9
0.164, -6.062e-9
0.163, -6.049e-9
0.162, -6.027e-9
0.161, -6.003e-9
0.160, -5.980e-9
0.159, -5.956e-9
0.158, -5.941e-9
0.157, -5.918e-9
0.156, -5.892e-9
0.155, -5.867e-9
0.154, -5.843e-9
0.153, -5.821e-9
0.152, -5.798e-9
0.151, -5.770e-9
0.150, -5.746e-9
0.149, -5.715e-9
0.148, -5.690e-9
0.147, -5.664e-9
0.146, -5.633e-9
0.145, -5.603e-9
0.144, -5.574e-9
0.143, -5.546e-9
0.142, -5.517e-9
0.141, -5.480e-9
0.140, -5.445e-9
0.139, -5.413e-9
0.138, -5.379e-9
0.137, -5.346e-9
0.136, -5.304e-9
0.135, -5.265e-9
0.134, -5.230e-9
0.133, -5.193e-9
0.132, -5.152e-9
0.131, -5.108e-9
0.130, -5.062e-9
0.129, -5.019e-9
0.128, -4.973e-9
0.127, -4.927e-9
0.126, -4.880e-9
0.125, -4.828e-9
0.124, -4.778e-9
0.123, -4.730e-9
0.122, -4.675e-9
0.121, -4.620e-9
0.120, -4.562e-9
0.119, -4.504e-9
0.118, -4.449e-9
0.117, -4.384e-9
0.116, -4.318e-9
0.115, -4.252e-9
0.114, -4.183e-9
0.113, -4.119e-9
0.112, -4.047e-9
0.111, -3.970e-9
0.110, -3.895e-9
0.109, -3.816e-9
0.108, -3.743e-9
0.107, -3.664e-9
0.106, -3.575e-9
0.105, -3.491e-9
0.104, -3.411e-9
0.103, -3.321e-9
0.102, -3.223e-9
0.101, -3.124e-9
0.100, -3.025e-9
0.099, -2.928e-9
0.098, -2.824e-9
0.097, -2.720e-9
0.096, -2.609e-9
0.095, -2.493e-9
0.094, -2.385e-9
0.093, -2.270e-9
0.092, -2.154e-9
0.091, -2.031e-9
0.090, -1.899e-9
0.089, -1.773e-9
0.088, -1.643e-9
0.087, -1.512e-9
0.086, -1.376e-9
0.085, -1.231e-9
0.084, -1.093e-9
0.083, -9.596e-10
0.082, -8.084e-10
0.081, -6.576e-10
0.080, -5.038e-10
0.079, -3.484e-10
0.078, -1.960e-10
0.077, -3.168e-11
0.076, 1.313e-10
0.075, 2.945e-10
0.074, 4.618e-10
0.073, 6.307e-10
0.072, 8.037e-10
0.071, 9.827e-10
0.070, 1.155e-9
0.069, 1.333e-9
0.068, 1.504e-9
0.067, 1.679e-9
0.066, 1.866e-9
0.065, 2.047e-9
0.064, 2.233e-9
0.063, 2.406e-9
0.062, 2.582e-9
0.061, 2.771e-9
0.060, 2.950e-9
0.059, 3.130e-9
0.058, 3.316e-9
0.057, 3.492e-9
0.056, 3.675e-9
0.055, 3.860e-9
0.054, 4.033e-9
0.053, 4.210e-9
0.052, 4.384e-9
0.051, 4.561e-9
0.050, 4.738e-9
0.049, 4.898e-9
0.048, 5.058e-9
0.047, 5.227e-9
0.046, 5.389e-9
0.045, 5.551e-9
0.044, 5.703e-9
0.043, 5.850e-9
0.042, 6.001e-9
0.041, 6.144e-9
0.040, 6.291e-9
0.039, 6.430e-9
0.038, 6.553e-9
0.037, 6.685e-9
0.036, 6.809e-9
0.035, 6.928e-9
0.034, 7.047e-9
0.033, 7.151e-9
0.032, 7.255e-9
0.031, 7.363e-9
0.030, 7.457e-9
0.029, 7.553e-9
0.028, 7.639e-9
0.027, 7.722e-9
0.026, 7.808e-9
0.025, 7.886e-9
0.024, 7.955e-9
0.023, 8.014e-9
0.022, 8.070e-9
0.021, 8.131e-9
0.020, 8.183e-9
0.019, 8.225e-9
0.018, 8.268e-9
0.017, 8.299e-9
0.016, 8.338e-9
0.015, 8.372e-9
0.014, 8.396e-9
0.013, 8.420e-9
0.012, 8.439e-9
0.011, 8.456e-9
0.010, 8.478e-9
0.009, 8.481e-9
0.008, 8.483e-9
0.007, 8.487e-9
0.006, 8.486e-9
0.005, 8.488e-9
0.004, 8.482e-9
0.003, 8.466e-9
0.002, 8.456e-9
0.001, 8.446e-9
0.000, 8.462e-9
-0.001, 8.446e-9
-0.002, 8.407e-9
-0.003, 8.382e-9
-0.004, 8.360e-9
-0.005, 8.333e-9
-0.006, 8.310e-9
-0.007, 8.274e-9
-0.008, 8.248e-9
-0.009, 8.224e-9
-0.010, 8.192e-9
-0.011, 8.161e-9
-0.012, 8.123e-9
-0.013, 8.089e-9
-0.014, 8.059e-9
-0.015, 8.021e-9
-0.016, 7.984e-9
-0.017, 7.944e-9
-0.018, 7.904e-9
-0.019, 7.872e-9
-0.020, 7.832e-9
-0.021, 7.792e-9
-0.022, 7.752e-9
-0.023, 7.710e-9
-0.024, 7.676e-9
-0.025, 7.640e-9
-0.026, 7.600e-9
-0.027, 7.557e-9
-0.028, 7.513e-9
-0.029, 7.476e-9
-0.030, 7.441e-9
-0.031, 7.397e-9
-0.032, 7.356e-9
-0.033, 7.317e-9
-0.034, 7.279e-9
-0.035, 7.243e-9
-0.036, 7.206e-9
-0.037, 7.164e-9
-0.038, 7.126e-9
-0.039, 7.091e-9
-0.040, 7.055e-9
-0.041, 7.018e-9
-0.042, 6.974e-9
-0.043, 6.938e-9
-0.044, 6.907e-9
-0.045, 6.871e-9
-0.046, 6.836e-9
-0.047, 6.797e-9
-0.048, 6.761e-9
-0.049, 6.729e-9
-0.050, 6.697e-9
-0.051, 6.667e-9
-0.052, 6.632e-9
-0.053, 6.596e-9
-0.054, 6.568e-9
-0.055, 6.537e-9
-0.056, 6.503e-9
-0.057, 6.471e-9
-0.058, 6.439e-9
-0.059, 6.416e-9
-0.060, 6.388e-9
-0.061, 6.356e-9
-0.062, 6.326e-9
-0.063, 6.294e-9
-0.064, 6.269e-9
-0.065, 6.243e-9
-0.066, 6.214e-9
-0.067, 6.186e-9
-0.068, 6.157e-9
-0.069, 6.133e-9
-0.070, 6.110e-9
-0.071, 6.082e-9
-0.072, 6.053e-9
-0.073, 6.029e-9
-0.074, 6.004e-9
-0.075, 5.984e-9
-0.076, 5.961e-9
-0.077, 5.936e-9
-0.078, 5.914e-9
-0.079, 5.894e-9
-0.080, 5.874e-9
-0.081, 5.853e-9
-0.082, 5.826e-9
-0.083, 5.804e-9
-0.084, 5.786e-9
-0.085, 5.765e-9
-0.086, 5.746e-9
-0.087, 5.721e-9
-0.088, 5.700e-9
-0.089, 5.686e-9
-0.090, 5.668e-9
-0.091, 5.650e-9
-0.092, 5.628e-9
-0.093, 5.607e-9
-0.094, 5.593e-9
-0.095, 5.576e-9
-0.096, 5.558e-9
-0.097, 5.540e-9
-0.098, 5.518e-9
-0.099, 5.505e-9
-0.100, 5.491e-9
-0.101, 5.473e-9
-0.102, 5.457e-9
-0.103, 5.441e-9
-0.104, 5.427e-9
-0.105, 5.416e-9
-0.106, 5.399e-9
-0.107, 5.382e-9
-0.108, 5.367e-9
-0.109, 5.356e-9
-0.110, 5.345e-9
-0.111, 5.328e-9
-0.112, 5.313e-9
-0.113, 5.298e-9
-0.114, 5.285e-9
-0.115, 5.276e-9
-0.116, 5.263e-9
-0.117, 5.244e-9
-0.118, 5.233e-9
-0.119, 5.224e-9
-0.120, 5.215e-9
-0.121, 5.204e-9
-0.122, 5.186e-9
-0.123, 5.174e-9
-0.124, 5.166e-9
-0.125, 5.157e-9
-0.126, 5.146e-9
-0.127, 5.132e-9
-0.128, 5.122e-9
-0.129, 5.116e-9
-0.130, 5.105e-9
-0.131, 5.096e-9
-0.132, 5.082e-9
-0.133, 5.069e-9
-0.134, 5.065e-9
-0.135, 5.058e-9
-0.136, 5.047e-9
-0.137, 5.037e-9
-0.138, 5.024e-9
-0.139, 5.020e-9
-0.140, 5.013e-9
-0.141, 5.004e-9
-0.142, 4.993e-9
-0.143, 4.981e-9
-0.144, 4.977e-9
-0.145, 4.973e-9
-0.146, 4.964e-9
-0.147, 4.954e-9
-0.148, 4.945e-9
-0.149, 4.940e-9
-0.150, 4.937e-9
-0.151, 4.927e-9
-0.152, 4.917e-9
-0.153, 4.912e-9
-0.154, 4.909e-9
-0.155, 4.904e-9
-0.156, 4.898e-9
-0.157, 4.889e-9
-0.158, 4.884e-9
-0.159, 4.878e-9
-0.160, 4.874e-9
-0.161, 4.871e-9
-0.162, 4.860e-9
-0.163, 4.854e-9
-0.164, 4.853e-9
-0.165, 4.849e-9
-0.166, 4.846e-9
-0.167, 4.837e-9
-0.168, 4.832e-9
-0.169, 4.831e-9
-0.170, 4.826e-9
-0.171, 4.823e-9
-0.172, 4.816e-9
-0.173, 4.809e-9
-0.174, 4.810e-9
-0.175, 4.807e-9
-0.176, 4.803e-9
-0.177, 4.796e-9
-0.178, 4.791e-9
-0.179, 4.793e-9
-0.180, 4.794e-9
-0.181, 4.789e-9
-0.182, 4.785e-9
-0.183, 4.777e-9
-0.184, 4.778e-9
-0.185, 4.780e-9
-0.186, 4.774e-9
-0.187, 4.771e-9
-0.188, 4.767e-9
-0.189, 4.768e-9
-0.190, 4.770e-9
-0.191, 4.768e-9
-0.192, 4.765e-9
-0.193, 4.762e-9
-0.194, 4.761e-9
-0.195, 4.765e-9
-0.196, 4.763e-9
-0.197, 4.758e-9
-0.198, 4.760e-9
-0.199, 4.761e-9
