Mar. 16, 2023   08:54:19
Cyclic Voltammetry
File: c:/users/oliverrz/desktop/electrolab/data/2023_03_16\fcmeoh_macros_250_um\electrode2_cv_50mvs_250_um.bin
Data Source:  Experiment
Instrument Model:  CHI760E
Header: CV
Note: 

Init E (V) = -0.2
High E (V) = 0.3
Low E (V) = -0.2
Final E (V) = -0.2
Init P/N = P
Scan Rate (V/s) = 0.05
Segment = 3
Sample Interval (V) = 0.001
Quiet Time (sec) = 2
Sensitivity (A/V) = 1e-7

Results:

Channel 1:
Segment 1:
Ep = 0.115V
ip = -1.247e-8A
Ah = -1.608e-8C

Segment 2:
Ep = 0.042V
ip = 1.201e-8A
Ah = 1.582e-8C

Segment 3:

Potential/V, Current/A

-0.200, 2.979e-9
-0.199, 2.712e-9
-0.198, 2.654e-9
-0.197, 2.627e-9
-0.196, 2.598e-9
-0.195, 2.572e-9
-0.194, 2.549e-9
-0.193, 2.531e-9
-0.192, 2.512e-9
-0.191, 2.489e-9
-0.190, 2.469e-9
-0.189, 2.448e-9
-0.188, 2.431e-9
-0.187, 2.417e-9
-0.186, 2.398e-9
-0.185, 2.375e-9
-0.184, 2.359e-9
-0.183, 2.344e-9
-0.182, 2.332e-9
-0.181, 2.315e-9
-0.180, 2.295e-9
-0.179, 2.279e-9
-0.178, 2.266e-9
-0.177, 2.254e-9
-0.176, 2.240e-9
-0.175, 2.218e-9
-0.174, 2.205e-9
-0.173, 2.192e-9
-0.172, 2.178e-9
-0.171, 2.165e-9
-0.170, 2.145e-9
-0.169, 2.131e-9
-0.168, 2.121e-9
-0.167, 2.106e-9
-0.166, 2.091e-9
-0.165, 2.075e-9
-0.164, 2.059e-9
-0.163, 2.051e-9
-0.162, 2.038e-9
-0.161, 2.025e-9
-0.160, 2.009e-9
-0.159, 1.993e-9
-0.158, 1.984e-9
-0.157, 1.974e-9
-0.156, 1.958e-9
-0.155, 1.944e-9
-0.154, 1.928e-9
-0.153, 1.918e-9
-0.152, 1.909e-9
-0.151, 1.894e-9
-0.150, 1.880e-9
-0.149, 1.866e-9
-0.148, 1.856e-9
-0.147, 1.847e-9
-0.146, 1.832e-9
-0.145, 1.817e-9
-0.144, 1.805e-9
-0.143, 1.797e-9
-0.142, 1.789e-9
-0.141, 1.773e-9
-0.140, 1.758e-9
-0.139, 1.749e-9
-0.138, 1.739e-9
-0.137, 1.729e-9
-0.136, 1.716e-9
-0.135, 1.702e-9
-0.134, 1.693e-9
-0.133, 1.682e-9
-0.132, 1.670e-9
-0.131, 1.661e-9
-0.130, 1.644e-9
-0.129, 1.633e-9
-0.128, 1.624e-9
-0.127, 1.614e-9
-0.126, 1.601e-9
-0.125, 1.587e-9
-0.124, 1.575e-9
-0.123, 1.569e-9
-0.122, 1.558e-9
-0.121, 1.547e-9
-0.120, 1.533e-9
-0.119, 1.521e-9
-0.118, 1.515e-9
-0.117, 1.505e-9
-0.116, 1.494e-9
-0.115, 1.481e-9
-0.114, 1.468e-9
-0.113, 1.462e-9
-0.112, 1.454e-9
-0.111, 1.441e-9
-0.110, 1.429e-9
-0.109, 1.418e-9
-0.108, 1.408e-9
-0.107, 1.402e-9
-0.106, 1.389e-9
-0.105, 1.375e-9
-0.104, 1.365e-9
-0.103, 1.355e-9
-0.102, 1.345e-9
-0.101, 1.336e-9
-0.100, 1.322e-9
-0.099, 1.314e-9
-0.098, 1.305e-9
-0.097, 1.297e-9
-0.096, 1.286e-9
-0.095, 1.272e-9
-0.094, 1.263e-9
-0.093, 1.256e-9
-0.092, 1.247e-9
-0.091, 1.239e-9
-0.090, 1.224e-9
-0.089, 1.213e-9
-0.088, 1.207e-9
-0.087, 1.197e-9
-0.086, 1.189e-9
-0.085, 1.174e-9
-0.084, 1.162e-9
-0.083, 1.157e-9
-0.082, 1.146e-9
-0.081, 1.135e-9
-0.080, 1.123e-9
-0.079, 1.110e-9
-0.078, 1.103e-9
-0.077, 1.093e-9
-0.076, 1.080e-9
-0.075, 1.068e-9
-0.074, 1.057e-9
-0.073, 1.049e-9
-0.072, 1.040e-9
-0.071, 1.026e-9
-0.070, 1.014e-9
-0.069, 1.003e-9
-0.068, 9.940e-10
-0.067, 9.864e-10
-0.066, 9.733e-10
-0.065, 9.580e-10
-0.064, 9.439e-10
-0.063, 9.371e-10
-0.062, 9.291e-10
-0.061, 9.152e-10
-0.060, 8.980e-10
-0.059, 8.863e-10
-0.058, 8.761e-10
-0.057, 8.650e-10
-0.056, 8.516e-10
-0.055, 8.333e-10
-0.054, 8.232e-10
-0.053, 8.105e-10
-0.052, 7.969e-10
-0.051, 7.833e-10
-0.050, 7.677e-10
-0.049, 7.529e-10
-0.048, 7.444e-10
-0.047, 7.298e-10
-0.046, 7.153e-10
-0.045, 6.962e-10
-0.044, 6.811e-10
-0.043, 6.703e-10
-0.042, 6.543e-10
-0.041, 6.376e-10
-0.040, 6.171e-10
-0.039, 5.960e-10
-0.038, 5.804e-10
-0.037, 5.649e-10
-0.036, 5.437e-10
-0.035, 5.235e-10
-0.034, 5.030e-10
-0.033, 4.892e-10
-0.032, 4.725e-10
-0.031, 4.504e-10
-0.030, 4.290e-10
-0.029, 4.064e-10
-0.028, 3.857e-10
-0.027, 3.672e-10
-0.026, 3.408e-10
-0.025, 3.128e-10
-0.024, 2.928e-10
-0.023, 2.672e-10
-0.022, 2.455e-10
-0.021, 2.201e-10
-0.020, 1.887e-10
-0.019, 1.639e-10
-0.018, 1.354e-10
-0.017, 1.087e-10
-0.016, 7.868e-11
-0.015, 4.324e-11
-0.014, 1.597e-11
-0.013, -1.573e-11
-0.012, -4.773e-11
-0.011, -7.982e-11
-0.010, -1.197e-10
-0.009, -1.551e-10
-0.008, -1.890e-10
-0.007, -2.279e-10
-0.006, -2.667e-10
-0.005, -3.112e-10
-0.004, -3.562e-10
-0.003, -3.935e-10
-0.002, -4.383e-10
-0.001, -4.842e-10
-0.000, -5.546e-10
0.001, -5.979e-10
0.002, -6.394e-10
0.003, -6.883e-10
0.004, -7.453e-10
0.005, -7.999e-10
0.006, -8.582e-10
0.007, -9.133e-10
0.008, -9.698e-10
0.009, -1.035e-9
0.010, -1.099e-9
0.011, -1.164e-9
0.012, -1.232e-9
0.013, -1.298e-9
0.014, -1.372e-9
0.015, -1.448e-9
0.016, -1.525e-9
0.017, -1.601e-9
0.018, -1.680e-9
0.019, -1.764e-9
0.020, -1.854e-9
0.021, -1.938e-9
0.022, -2.029e-9
0.023, -2.118e-9
0.024, -2.215e-9
0.025, -2.319e-9
0.026, -2.418e-9
0.027, -2.517e-9
0.028, -2.623e-9
0.029, -2.730e-9
0.030, -2.846e-9
0.031, -2.958e-9
0.032, -3.073e-9
0.033, -3.193e-9
0.034, -3.318e-9
0.035, -3.443e-9
0.036, -3.565e-9
0.037, -3.689e-9
0.038, -3.825e-9
0.039, -3.962e-9
0.040, -4.103e-9
0.041, -4.247e-9
0.042, -4.384e-9
0.043, -4.534e-9
0.044, -4.685e-9
0.045, -4.836e-9
0.046, -4.992e-9
0.047, -5.148e-9
0.048, -5.303e-9
0.049, -5.468e-9
0.050, -5.630e-9
0.051, -5.800e-9
0.052, -5.970e-9
0.053, -6.133e-9
0.054, -6.310e-9
0.055, -6.484e-9
0.056, -6.657e-9
0.057, -6.831e-9
0.058, -7.004e-9
0.059, -7.182e-9
0.060, -7.373e-9
0.061, -7.545e-9
0.062, -7.724e-9
0.063, -7.899e-9
0.064, -8.083e-9
0.065, -8.270e-9
0.066, -8.442e-9
0.067, -8.619e-9
0.068, -8.797e-9
0.069, -8.969e-9
0.070, -9.153e-9
0.071, -9.318e-9
0.072, -9.486e-9
0.073, -9.659e-9
0.074, -9.820e-9
0.075, -9.993e-9
0.076, -1.016e-8
0.077, -1.031e-8
0.078, -1.047e-8
0.079, -1.063e-8
0.080, -1.078e-8
0.081, -1.092e-8
0.082, -1.106e-8
0.083, -1.121e-8
0.084, -1.134e-8
0.085, -1.147e-8
0.086, -1.160e-8
0.087, -1.172e-8
0.088, -1.183e-8
0.089, -1.195e-8
0.090, -1.206e-8
0.091, -1.217e-8
0.092, -1.227e-8
0.093, -1.236e-8
0.094, -1.245e-8
0.095, -1.254e-8
0.096, -1.262e-8
0.097, -1.270e-8
0.098, -1.277e-8
0.099, -1.283e-8
0.100, -1.290e-8
0.101, -1.295e-8
0.102, -1.301e-8
0.103, -1.306e-8
0.104, -1.310e-8
0.105, -1.315e-8
0.106, -1.318e-8
0.107, -1.321e-8
0.108, -1.324e-8
0.109, -1.326e-8
0.110, -1.328e-8
0.111, -1.330e-8
0.112, -1.331e-8
0.113, -1.332e-8
0.114, -1.332e-8
0.115, -1.333e-8
0.116, -1.333e-8
0.117, -1.332e-8
0.118, -1.331e-8
0.119, -1.330e-8
0.120, -1.329e-8
0.121, -1.328e-8
0.122, -1.326e-8
0.123, -1.324e-8
0.124, -1.322e-8
0.125, -1.319e-8
0.126, -1.318e-8
0.127, -1.314e-8
0.128, -1.311e-8
0.129, -1.309e-8
0.130, -1.306e-8
0.131, -1.302e-8
0.132, -1.299e-8
0.133, -1.295e-8
0.134, -1.292e-8
0.135, -1.288e-8
0.136, -1.284e-8
0.137, -1.280e-8
0.138, -1.276e-8
0.139, -1.272e-8
0.140, -1.268e-8
0.141, -1.264e-8
0.142, -1.260e-8
0.143, -1.255e-8
0.144, -1.251e-8
0.145, -1.247e-8
0.146, -1.243e-8
0.147, -1.238e-8
0.148, -1.234e-8
0.149, -1.229e-8
0.150, -1.225e-8
0.151, -1.221e-8
0.152, -1.216e-8
0.153, -1.212e-8
0.154, -1.208e-8
0.155, -1.204e-8
0.156, -1.200e-8
0.157, -1.195e-8
0.158, -1.191e-8
0.159, -1.187e-8
0.160, -1.183e-8
0.161, -1.179e-8
0.162, -1.174e-8
0.163, -1.170e-8
0.164, -1.166e-8
0.165, -1.162e-8
0.166, -1.158e-8
0.167, -1.155e-8
0.168, -1.150e-8
0.169, -1.147e-8
0.170, -1.143e-8
0.171, -1.140e-8
0.172, -1.136e-8
0.173, -1.132e-8
0.174, -1.129e-8
0.175, -1.126e-8
0.176, -1.122e-8
0.177, -1.118e-8
0.178, -1.114e-8
0.179, -1.112e-8
0.180, -1.109e-8
0.181, -1.105e-8
0.182, -1.102e-8
0.183, -1.098e-8
0.184, -1.095e-8
0.185, -1.092e-8
0.186, -1.089e-8
0.187, -1.086e-8
0.188, -1.083e-8
0.189, -1.080e-8
0.190, -1.078e-8
0.191, -1.075e-8
0.192, -1.072e-8
0.193, -1.069e-8
0.194, -1.066e-8
0.195, -1.064e-8
0.196, -1.062e-8
0.197, -1.059e-8
0.198, -1.056e-8
0.199, -1.054e-8
0.200, -1.052e-8
0.201, -1.049e-8
0.202, -1.046e-8
0.203, -1.044e-8
0.204, -1.042e-8
0.205, -1.040e-8
0.206, -1.038e-8
0.207, -1.035e-8
0.208, -1.033e-8
0.209, -1.031e-8
0.210, -1.030e-8
0.211, -1.028e-8
0.212, -1.026e-8
0.213, -1.023e-8
0.214, -1.022e-8
0.215, -1.020e-8
0.216, -1.018e-8
0.217, -1.016e-8
0.218, -1.014e-8
0.219, -1.012e-8
0.220, -1.011e-8
0.221, -1.009e-8
0.222, -1.007e-8
0.223, -1.005e-8
0.224, -1.004e-8
0.225, -1.003e-8
0.226, -1.001e-8
0.227, -9.991e-9
0.228, -9.976e-9
0.229, -9.960e-9
0.230, -9.952e-9
0.231, -9.937e-9
0.232, -9.919e-9
0.233, -9.906e-9
0.234, -9.891e-9
0.235, -9.882e-9
0.236, -9.867e-9
0.237, -9.852e-9
0.238, -9.839e-9
0.239, -9.830e-9
0.240, -9.820e-9
0.241, -9.810e-9
0.242, -9.793e-9
0.243, -9.782e-9
0.244, -9.776e-9
0.245, -9.766e-9
0.246, -9.755e-9
0.247, -9.741e-9
0.248, -9.726e-9
0.249, -9.723e-9
0.250, -9.713e-9
0.251, -9.703e-9
0.252, -9.693e-9
0.253, -9.679e-9
0.254, -9.674e-9
0.255, -9.668e-9
0.256, -9.658e-9
0.257, -9.649e-9
0.258, -9.638e-9
0.259, -9.633e-9
0.260, -9.628e-9
0.261, -9.618e-9
0.262, -9.608e-9
0.263, -9.600e-9
0.264, -9.594e-9
0.265, -9.590e-9
0.266, -9.579e-9
0.267, -9.570e-9
0.268, -9.564e-9
0.269, -9.558e-9
0.270, -9.554e-9
0.271, -9.547e-9
0.272, -9.536e-9
0.273, -9.530e-9
0.274, -9.524e-9
0.275, -9.522e-9
0.276, -9.516e-9
0.277, -9.505e-9
0.278, -9.500e-9
0.279, -9.497e-9
0.280, -9.493e-9
0.281, -9.491e-9
0.282, -9.483e-9
0.283, -9.476e-9
0.284, -9.475e-9
0.285, -9.470e-9
0.286, -9.466e-9
0.287, -9.459e-9
0.288, -9.454e-9
0.289, -9.452e-9
0.290, -9.449e-9
0.291, -9.445e-9
0.292, -9.440e-9
0.293, -9.433e-9
0.294, -9.434e-9
0.295, -9.433e-9
0.296, -9.427e-9
0.297, -9.423e-9
0.298, -9.418e-9
0.299, -9.417e-9
0.300, -9.211e-9
0.299, -8.650e-9
0.298, -8.496e-9
0.297, -8.425e-9
0.296, -8.368e-9
0.295, -8.320e-9
0.294, -8.275e-9
0.293, -8.228e-9
0.292, -8.189e-9
0.291, -8.158e-9
0.290, -8.127e-9
0.289, -8.095e-9
0.288, -8.060e-9
0.287, -8.029e-9
0.286, -8.007e-9
0.285, -7.981e-9
0.284, -7.955e-9
0.283, -7.929e-9
0.282, -7.903e-9
0.281, -7.885e-9
0.280, -7.867e-9
0.279, -7.842e-9
0.278, -7.822e-9
0.277, -7.800e-9
0.276, -7.782e-9
0.275, -7.766e-9
0.274, -7.744e-9
0.273, -7.724e-9
0.272, -7.706e-9
0.271, -7.690e-9
0.270, -7.677e-9
0.269, -7.655e-9
0.268, -7.636e-9
0.267, -7.621e-9
0.266, -7.607e-9
0.265, -7.594e-9
0.264, -7.575e-9
0.263, -7.558e-9
0.262, -7.546e-9
0.261, -7.531e-9
0.260, -7.519e-9
0.259, -7.505e-9
0.258, -7.484e-9
0.257, -7.472e-9
0.256, -7.459e-9
0.255, -7.448e-9
0.254, -7.436e-9
0.253, -7.419e-9
0.252, -7.406e-9
0.251, -7.397e-9
0.250, -7.385e-9
0.249, -7.372e-9
0.248, -7.358e-9
0.247, -7.342e-9
0.246, -7.333e-9
0.245, -7.321e-9
0.244, -7.306e-9
0.243, -7.290e-9
0.242, -7.276e-9
0.241, -7.266e-9
0.240, -7.255e-9
0.239, -7.237e-9
0.238, -7.223e-9
0.237, -7.207e-9
0.236, -7.198e-9
0.235, -7.187e-9
0.234, -7.172e-9
0.233, -7.158e-9
0.232, -7.145e-9
0.231, -7.134e-9
0.230, -7.125e-9
0.229, -7.109e-9
0.228, -7.095e-9
0.227, -7.084e-9
0.226, -7.074e-9
0.225, -7.066e-9
0.224, -7.050e-9
0.223, -7.033e-9
0.222, -7.020e-9
0.221, -7.009e-9
0.220, -6.999e-9
0.219, -6.982e-9
0.218, -6.965e-9
0.217, -6.952e-9
0.216, -6.941e-9
0.215, -6.928e-9
0.214, -6.916e-9
0.213, -6.897e-9
0.212, -6.882e-9
0.211, -6.872e-9
0.210, -6.858e-9
0.209, -6.842e-9
0.208, -6.823e-9
0.207, -6.806e-9
0.206, -6.795e-9
0.205, -6.778e-9
0.204, -6.758e-9
0.203, -6.741e-9
0.202, -6.723e-9
0.201, -6.710e-9
0.200, -6.695e-9
0.199, -6.673e-9
0.198, -6.655e-9
0.197, -6.636e-9
0.196, -6.621e-9
0.195, -6.606e-9
0.194, -6.581e-9
0.193, -6.562e-9
0.192, -6.540e-9
0.191, -6.521e-9
0.190, -6.504e-9
0.189, -6.478e-9
0.188, -6.455e-9
0.187, -6.432e-9
0.186, -6.410e-9
0.185, -6.390e-9
0.184, -6.365e-9
0.183, -6.337e-9
0.182, -6.313e-9
0.181, -6.288e-9
0.180, -6.263e-9
0.179, -6.231e-9
0.178, -6.199e-9
0.177, -6.171e-9
0.176, -6.145e-9
0.175, -6.118e-9
0.174, -6.088e-9
0.173, -6.052e-9
0.172, -6.018e-9
0.171, -5.989e-9
0.170, -5.954e-9
0.169, -5.916e-9
0.168, -5.877e-9
0.167, -5.837e-9
0.166, -5.801e-9
0.165, -5.761e-9
0.164, -5.716e-9
0.163, -5.670e-9
0.162, -5.625e-9
0.161, -5.586e-9
0.160, -5.540e-9
0.159, -5.486e-9
0.158, -5.436e-9
0.157, -5.384e-9
0.156, -5.333e-9
0.155, -5.283e-9
0.154, -5.221e-9
0.153, -5.163e-9
0.152, -5.103e-9
0.151, -5.046e-9
0.150, -4.987e-9
0.149, -4.915e-9
0.148, -4.849e-9
0.147, -4.782e-9
0.146, -4.713e-9
0.145, -4.644e-9
0.144, -4.569e-9
0.143, -4.488e-9
0.142, -4.409e-9
0.141, -4.327e-9
0.140, -4.247e-9
0.139, -4.160e-9
0.138, -4.063e-9
0.137, -3.974e-9
0.136, -3.884e-9
0.135, -3.787e-9
0.134, -3.691e-9
0.133, -3.583e-9
0.132, -3.483e-9
0.131, -3.391e-9
0.130, -3.278e-9
0.129, -3.167e-9
0.128, -3.044e-9
0.127, -2.925e-9
0.126, -2.812e-9
0.125, -2.688e-9
0.124, -2.560e-9
0.123, -2.432e-9
0.122, -2.303e-9
0.121, -2.174e-9
0.120, -2.036e-9
0.119, -1.895e-9
0.118, -1.752e-9
0.117, -1.604e-9
0.116, -1.461e-9
0.115, -1.311e-9
0.114, -1.155e-9
0.113, -1.006e-9
0.112, -8.500e-10
0.111, -6.935e-10
0.110, -5.348e-10
0.109, -3.681e-10
0.108, -2.017e-10
0.107, -3.454e-11
0.106, 1.366e-10
0.105, 2.988e-10
0.104, 4.761e-10
0.103, 6.636e-10
0.102, 8.413e-10
0.101, 1.016e-9
0.100, 1.186e-9
0.099, 1.362e-9
0.098, 1.545e-9
0.097, 1.719e-9
0.096, 1.896e-9
0.095, 2.074e-9
0.094, 2.252e-9
0.093, 2.430e-9
0.092, 2.601e-9
0.091, 2.769e-9
0.090, 2.954e-9
0.089, 3.125e-9
0.088, 3.300e-9
0.087, 3.472e-9
0.086, 3.630e-9
0.085, 3.798e-9
0.084, 3.964e-9
0.083, 4.122e-9
0.082, 4.287e-9
0.081, 4.431e-9
0.080, 4.583e-9
0.079, 4.735e-9
0.078, 4.879e-9
0.077, 5.026e-9
0.076, 5.164e-9
0.075, 5.294e-9
0.074, 5.433e-9
0.073, 5.552e-9
0.072, 5.676e-9
0.071, 5.796e-9
0.070, 5.899e-9
0.069, 6.014e-9
0.068, 6.121e-9
0.067, 6.220e-9
0.066, 6.315e-9
0.065, 6.402e-9
0.064, 6.492e-9
0.063, 6.578e-9
0.062, 6.647e-9
0.061, 6.718e-9
0.060, 6.783e-9
0.059, 6.852e-9
0.058, 6.915e-9
0.057, 6.963e-9
0.056, 7.011e-9
0.055, 7.062e-9
0.054, 7.105e-9
0.053, 7.146e-9
0.052, 7.179e-9
0.051, 7.205e-9
0.050, 7.233e-9
0.049, 7.255e-9
0.048, 7.276e-9
0.047, 7.292e-9
0.046, 7.297e-9
0.045, 7.308e-9
0.044, 7.315e-9
0.043, 7.320e-9
0.042, 7.321e-9
0.041, 7.310e-9
0.040, 7.305e-9
0.039, 7.301e-9
0.038, 7.291e-9
0.037, 7.282e-9
0.036, 7.261e-9
0.035, 7.242e-9
0.034, 7.231e-9
0.033, 7.209e-9
0.032, 7.185e-9
0.031, 7.161e-9
0.030, 7.131e-9
0.029, 7.110e-9
0.028, 7.082e-9
0.027, 7.053e-9
0.026, 7.020e-9
0.025, 6.988e-9
0.024, 6.959e-9
0.023, 6.928e-9
0.022, 6.890e-9
0.021, 6.855e-9
0.020, 6.818e-9
0.019, 6.784e-9
0.018, 6.752e-9
0.017, 6.713e-9
0.016, 6.675e-9
0.015, 6.638e-9
0.014, 6.601e-9
0.013, 6.570e-9
0.012, 6.530e-9
0.011, 6.489e-9
0.010, 6.453e-9
0.009, 6.417e-9
0.008, 6.382e-9
0.007, 6.345e-9
0.006, 6.302e-9
0.005, 6.265e-9
0.004, 6.231e-9
0.003, 6.195e-9
0.002, 6.160e-9
0.001, 6.120e-9
0.000, 6.101e-9
-0.001, 6.066e-9
-0.002, 6.022e-9
-0.003, 5.984e-9
-0.004, 5.946e-9
-0.005, 5.912e-9
-0.006, 5.883e-9
-0.007, 5.850e-9
-0.008, 5.816e-9
-0.009, 5.782e-9
-0.010, 5.745e-9
-0.011, 5.720e-9
-0.012, 5.687e-9
-0.013, 5.657e-9
-0.014, 5.626e-9
-0.015, 5.592e-9
-0.016, 5.564e-9
-0.017, 5.538e-9
-0.018, 5.507e-9
-0.019, 5.476e-9
-0.020, 5.448e-9
-0.021, 5.424e-9
-0.022, 5.402e-9
-0.023, 5.372e-9
-0.024, 5.345e-9
-0.025, 5.319e-9
-0.026, 5.299e-9
-0.027, 5.275e-9
-0.028, 5.250e-9
-0.029, 5.222e-9
-0.030, 5.201e-9
-0.031, 5.180e-9
-0.032, 5.159e-9
-0.033, 5.139e-9
-0.034, 5.113e-9
-0.035, 5.095e-9
-0.036, 5.076e-9
-0.037, 5.056e-9
-0.038, 5.039e-9
-0.039, 5.016e-9
-0.040, 4.997e-9
-0.041, 4.983e-9
-0.042, 4.965e-9
-0.043, 4.948e-9
-0.044, 4.929e-9
-0.045, 4.912e-9
-0.046, 4.901e-9
-0.047, 4.887e-9
-0.048, 4.869e-9
-0.049, 4.854e-9
-0.050, 4.838e-9
-0.051, 4.828e-9
-0.052, 4.817e-9
-0.053, 4.801e-9
-0.054, 4.786e-9
-0.055, 4.773e-9
-0.056, 4.763e-9
-0.057, 4.753e-9
-0.058, 4.739e-9
-0.059, 4.726e-9
-0.060, 4.716e-9
-0.061, 4.705e-9
-0.062, 4.699e-9
-0.063, 4.687e-9
-0.064, 4.674e-9
-0.065, 4.667e-9
-0.066, 4.658e-9
-0.067, 4.651e-9
-0.068, 4.643e-9
-0.069, 4.630e-9
-0.070, 4.626e-9
-0.071, 4.618e-9
-0.072, 4.613e-9
-0.073, 4.606e-9
-0.074, 4.594e-9
-0.075, 4.589e-9
-0.076, 4.587e-9
-0.077, 4.583e-9
-0.078, 4.575e-9
-0.079, 4.564e-9
-0.080, 4.561e-9
-0.081, 4.560e-9
-0.082, 4.554e-9
-0.083, 4.549e-9
-0.084, 4.541e-9
-0.085, 4.536e-9
-0.086, 4.537e-9
-0.087, 4.533e-9
-0.088, 4.529e-9
-0.089, 4.524e-9
-0.090, 4.519e-9
-0.091, 4.520e-9
-0.092, 4.519e-9
-0.093, 4.514e-9
-0.094, 4.509e-9
-0.095, 4.507e-9
-0.096, 4.508e-9
-0.097, 4.508e-9
-0.098, 4.503e-9
-0.099, 4.500e-9
-0.100, 4.500e-9
-0.101, 4.498e-9
-0.102, 4.505e-9
-0.103, 4.502e-9
-0.104, 4.497e-9
-0.105, 4.499e-9
-0.106, 4.500e-9
-0.107, 4.501e-9
-0.108, 4.501e-9
-0.109, 4.496e-9
-0.110, 4.499e-9
-0.111, 4.501e-9
-0.112, 4.502e-9
-0.113, 4.503e-9
-0.114, 4.498e-9
-0.115, 4.502e-9
-0.116, 4.506e-9
-0.117, 4.508e-9
-0.118, 4.511e-9
-0.119, 4.506e-9
-0.120, 4.508e-9
-0.121, 4.514e-9
-0.122, 4.515e-9
-0.123, 4.519e-9
-0.124, 4.517e-9
-0.125, 4.518e-9
-0.126, 4.526e-9
-0.127, 4.526e-9
-0.128, 4.530e-9
-0.129, 4.531e-9
-0.130, 4.533e-9
-0.131, 4.539e-9
-0.132, 4.543e-9
-0.133, 4.545e-9
-0.134, 4.544e-9
-0.135, 4.548e-9
-0.136, 4.553e-9
-0.137, 4.559e-9
-0.138, 4.559e-9
-0.139, 4.562e-9
-0.140, 4.565e-9
-0.141, 4.573e-9
-0.142, 4.579e-9
-0.143, 4.576e-9
-0.144, 4.577e-9
-0.145, 4.585e-9
-0.146, 4.590e-9
-0.147, 4.597e-9
-0.148, 4.597e-9
-0.149, 4.595e-9
-0.150, 4.602e-9
-0.151, 4.610e-9
-0.152, 4.613e-9
-0.153, 4.617e-9
-0.154, 4.618e-9
-0.155, 4.624e-9
-0.156, 4.630e-9
-0.157, 4.634e-9
-0.158, 4.637e-9
-0.159, 4.637e-9
-0.160, 4.642e-9
-0.161, 4.650e-9
-0.162, 4.653e-9
-0.163, 4.656e-9
-0.164, 4.659e-9
-0.165, 4.663e-9
-0.166, 4.671e-9
-0.167, 4.677e-9
-0.168, 4.677e-9
-0.169, 4.679e-9
-0.170, 4.683e-9
-0.171, 4.690e-9
-0.172, 4.695e-9
-0.173, 4.696e-9
-0.174, 4.698e-9
-0.175, 4.703e-9
-0.176, 4.711e-9
-0.177, 4.717e-9
-0.178, 4.716e-9
-0.179, 4.720e-9
-0.180, 4.726e-9
-0.181, 4.730e-9
-0.182, 4.736e-9
-0.183, 4.737e-9
-0.184, 4.738e-9
-0.185, 4.744e-9
-0.186, 4.748e-9
-0.187, 4.754e-9
-0.188, 4.756e-9
-0.189, 4.755e-9
-0.190, 4.762e-9
-0.191, 4.768e-9
-0.192, 4.773e-9
-0.193, 4.777e-9
-0.194, 4.774e-9
-0.195, 4.779e-9
-0.196, 4.786e-9
-0.197, 4.791e-9
-0.198, 4.792e-9
-0.199, 4.791e-9
