Mar. 16, 2023   08:54:34
Cyclic Voltammetry
File: c:/users/oliverrz/desktop/electrolab/data/2023_03_16\fcmeoh_macros_250_um\electrode2_cv_100mvs_250_um.bin
Data Source:  Experiment
Instrument Model:  CHI760E
Header: CV
Note: 

Init E (V) = -0.2
High E (V) = 0.3
Low E (V) = -0.2
Final E (V) = -0.2
Init P/N = P
Scan Rate (V/s) = 0.1
Segment = 3
Sample Interval (V) = 0.001
Quiet Time (sec) = 2
Sensitivity (A/V) = 1e-7

Results:

Channel 1:
Segment 1:
Ep = 0.113V
ip = -1.750e-8A
Ah = -1.143e-8C

Segment 2:
Ep = 0.046V
ip = 1.616e-8A
Ah = 1.009e-8C

Segment 3:

Potential/V, Current/A

-0.200, 3.230e-9
-0.199, 2.878e-9
-0.198, 2.781e-9
-0.197, 2.703e-9
-0.196, 2.742e-9
-0.195, 2.650e-9
-0.194, 2.675e-9
-0.193, 2.644e-9
-0.192, 2.587e-9
-0.191, 2.634e-9
-0.190, 2.551e-9
-0.189, 2.579e-9
-0.188, 2.556e-9
-0.187, 2.502e-9
-0.186, 2.552e-9
-0.185, 2.464e-9
-0.184, 2.499e-9
-0.183, 2.477e-9
-0.182, 2.422e-9
-0.181, 2.477e-9
-0.180, 2.389e-9
-0.179, 2.422e-9
-0.178, 2.405e-9
-0.177, 2.350e-9
-0.176, 2.407e-9
-0.175, 2.322e-9
-0.174, 2.353e-9
-0.173, 2.341e-9
-0.172, 2.282e-9
-0.171, 2.341e-9
-0.170, 2.258e-9
-0.169, 2.289e-9
-0.168, 2.277e-9
-0.167, 2.223e-9
-0.166, 2.276e-9
-0.165, 2.199e-9
-0.164, 2.228e-9
-0.163, 2.219e-9
-0.162, 2.167e-9
-0.161, 2.217e-9
-0.160, 2.143e-9
-0.159, 2.172e-9
-0.158, 2.161e-9
-0.157, 2.106e-9
-0.156, 2.163e-9
-0.155, 2.085e-9
-0.154, 2.117e-9
-0.153, 2.103e-9
-0.152, 2.053e-9
-0.151, 2.108e-9
-0.150, 2.031e-9
-0.149, 2.062e-9
-0.148, 2.050e-9
-0.147, 2.001e-9
-0.146, 2.055e-9
-0.145, 1.976e-9
-0.144, 2.013e-9
-0.143, 1.999e-9
-0.142, 1.948e-9
-0.141, 2.006e-9
-0.140, 1.924e-9
-0.139, 1.959e-9
-0.138, 1.950e-9
-0.137, 1.897e-9
-0.136, 1.959e-9
-0.135, 1.875e-9
-0.134, 1.909e-9
-0.133, 1.901e-9
-0.132, 1.848e-9
-0.131, 1.910e-9
-0.130, 1.829e-9
-0.129, 1.860e-9
-0.128, 1.853e-9
-0.127, 1.796e-9
-0.126, 1.858e-9
-0.125, 1.784e-9
-0.124, 1.813e-9
-0.123, 1.804e-9
-0.122, 1.755e-9
-0.121, 1.809e-9
-0.120, 1.735e-9
-0.119, 1.770e-9
-0.118, 1.759e-9
-0.117, 1.705e-9
-0.116, 1.763e-9
-0.115, 1.686e-9
-0.114, 1.717e-9
-0.113, 1.709e-9
-0.112, 1.661e-9
-0.111, 1.716e-9
-0.110, 1.638e-9
-0.109, 1.673e-9
-0.108, 1.661e-9
-0.107, 1.610e-9
-0.106, 1.670e-9
-0.105, 1.587e-9
-0.104, 1.623e-9
-0.103, 1.612e-9
-0.102, 1.554e-9
-0.101, 1.618e-9
-0.100, 1.537e-9
-0.099, 1.573e-9
-0.098, 1.564e-9
-0.097, 1.508e-9
-0.096, 1.569e-9
-0.095, 1.492e-9
-0.094, 1.523e-9
-0.093, 1.514e-9
-0.092, 1.457e-9
-0.091, 1.520e-9
-0.090, 1.440e-9
-0.089, 1.468e-9
-0.088, 1.461e-9
-0.087, 1.406e-9
-0.086, 1.467e-9
-0.085, 1.387e-9
-0.084, 1.415e-9
-0.083, 1.411e-9
-0.082, 1.351e-9
-0.081, 1.410e-9
-0.080, 1.336e-9
-0.079, 1.357e-9
-0.078, 1.351e-9
-0.077, 1.292e-9
-0.076, 1.349e-9
-0.075, 1.275e-9
-0.074, 1.301e-9
-0.073, 1.290e-9
-0.072, 1.236e-9
-0.071, 1.292e-9
-0.070, 1.216e-9
-0.069, 1.242e-9
-0.068, 1.231e-9
-0.067, 1.175e-9
-0.066, 1.233e-9
-0.065, 1.149e-9
-0.064, 1.177e-9
-0.063, 1.166e-9
-0.062, 1.104e-9
-0.061, 1.165e-9
-0.060, 1.077e-9
-0.059, 1.106e-9
-0.058, 1.094e-9
-0.057, 1.032e-9
-0.056, 1.090e-9
-0.055, 1.003e-9
-0.054, 1.028e-9
-0.053, 1.019e-9
-0.052, 9.513e-10
-0.051, 1.004e-9
-0.050, 9.219e-10
-0.049, 9.397e-10
-0.048, 9.306e-10
-0.047, 8.618e-10
-0.046, 9.131e-10
-0.045, 8.303e-10
-0.044, 8.445e-10
-0.043, 8.346e-10
-0.042, 7.622e-10
-0.041, 8.103e-10
-0.040, 7.294e-10
-0.039, 7.360e-10
-0.038, 7.243e-10
-0.037, 6.525e-10
-0.036, 6.991e-10
-0.035, 6.103e-10
-0.034, 6.206e-10
-0.033, 5.963e-10
-0.032, 5.257e-10
-0.031, 5.682e-10
-0.030, 4.733e-10
-0.029, 4.829e-10
-0.028, 4.601e-10
-0.027, 3.843e-10
-0.026, 4.197e-10
-0.025, 3.214e-10
-0.024, 3.297e-10
-0.023, 3.004e-10
-0.022, 2.166e-10
-0.021, 2.559e-10
-0.020, 1.532e-10
-0.019, 1.527e-10
-0.018, 1.224e-10
-0.017, 3.054e-11
-0.016, 6.155e-11
-0.015, -4.281e-11
-0.014, -5.058e-11
-0.013, -8.642e-11
-0.012, -1.859e-10
-0.011, -1.563e-10
-0.010, -2.716e-10
-0.009, -2.925e-10
-0.008, -3.291e-10
-0.007, -4.368e-10
-0.006, -4.203e-10
-0.005, -5.394e-10
-0.004, -5.654e-10
-0.003, -6.107e-10
-0.002, -7.294e-10
-0.001, -7.217e-10
-0.000, -8.854e-10
0.001, -9.054e-10
0.002, -9.604e-10
0.003, -1.075e-9
0.004, -1.083e-9
0.005, -1.217e-9
0.006, -1.265e-9
0.007, -1.336e-9
0.008, -1.471e-9
0.009, -1.488e-9
0.010, -1.638e-9
0.011, -1.702e-9
0.012, -1.789e-9
0.013, -1.933e-9
0.014, -1.965e-9
0.015, -2.135e-9
0.016, -2.204e-9
0.017, -2.306e-9
0.018, -2.467e-9
0.019, -2.511e-9
0.020, -2.697e-9
0.021, -2.788e-9
0.022, -2.903e-9
0.023, -3.089e-9
0.024, -3.146e-9
0.025, -3.357e-9
0.026, -3.463e-9
0.027, -3.585e-9
0.028, -3.789e-9
0.029, -3.860e-9
0.030, -4.080e-9
0.031, -4.213e-9
0.032, -4.359e-9
0.033, -4.584e-9
0.034, -4.685e-9
0.035, -4.913e-9
0.036, -5.070e-9
0.037, -5.231e-9
0.038, -5.477e-9
0.039, -5.602e-9
0.040, -5.847e-9
0.041, -6.021e-9
0.042, -6.201e-9
0.043, -6.457e-9
0.044, -6.607e-9
0.045, -6.867e-9
0.046, -7.060e-9
0.047, -7.270e-9
0.048, -7.534e-9
0.049, -7.698e-9
0.050, -7.980e-9
0.051, -8.188e-9
0.052, -8.408e-9
0.053, -8.689e-9
0.054, -8.859e-9
0.055, -9.159e-9
0.056, -9.366e-9
0.057, -9.589e-9
0.058, -9.882e-9
0.059, -1.005e-8
0.060, -1.036e-8
0.061, -1.057e-8
0.062, -1.081e-8
0.063, -1.110e-8
0.064, -1.128e-8
0.065, -1.158e-8
0.066, -1.179e-8
0.067, -1.202e-8
0.068, -1.231e-8
0.069, -1.247e-8
0.070, -1.277e-8
0.071, -1.297e-8
0.072, -1.318e-8
0.073, -1.347e-8
0.074, -1.362e-8
0.075, -1.389e-8
0.076, -1.409e-8
0.077, -1.427e-8
0.078, -1.454e-8
0.079, -1.468e-8
0.080, -1.492e-8
0.081, -1.510e-8
0.082, -1.526e-8
0.083, -1.549e-8
0.084, -1.561e-8
0.085, -1.582e-8
0.086, -1.597e-8
0.087, -1.611e-8
0.088, -1.631e-8
0.089, -1.639e-8
0.090, -1.658e-8
0.091, -1.668e-8
0.092, -1.679e-8
0.093, -1.695e-8
0.094, -1.700e-8
0.095, -1.716e-8
0.096, -1.723e-8
0.097, -1.730e-8
0.098, -1.744e-8
0.099, -1.744e-8
0.100, -1.757e-8
0.101, -1.761e-8
0.102, -1.766e-8
0.103, -1.776e-8
0.104, -1.773e-8
0.105, -1.783e-8
0.106, -1.784e-8
0.107, -1.785e-8
0.108, -1.792e-8
0.109, -1.786e-8
0.110, -1.793e-8
0.111, -1.792e-8
0.112, -1.789e-8
0.113, -1.795e-8
0.114, -1.787e-8
0.115, -1.791e-8
0.116, -1.788e-8
0.117, -1.783e-8
0.118, -1.786e-8
0.119, -1.776e-8
0.120, -1.778e-8
0.121, -1.773e-8
0.122, -1.766e-8
0.123, -1.768e-8
0.124, -1.757e-8
0.125, -1.757e-8
0.126, -1.750e-8
0.127, -1.744e-8
0.128, -1.743e-8
0.129, -1.731e-8
0.130, -1.731e-8
0.131, -1.722e-8
0.132, -1.714e-8
0.133, -1.713e-8
0.134, -1.700e-8
0.135, -1.700e-8
0.136, -1.691e-8
0.137, -1.682e-8
0.138, -1.681e-8
0.139, -1.667e-8
0.140, -1.667e-8
0.141, -1.657e-8
0.142, -1.648e-8
0.143, -1.647e-8
0.144, -1.633e-8
0.145, -1.632e-8
0.146, -1.622e-8
0.147, -1.613e-8
0.148, -1.613e-8
0.149, -1.598e-8
0.150, -1.596e-8
0.151, -1.588e-8
0.152, -1.578e-8
0.153, -1.578e-8
0.154, -1.564e-8
0.155, -1.563e-8
0.156, -1.554e-8
0.157, -1.545e-8
0.158, -1.544e-8
0.159, -1.530e-8
0.160, -1.529e-8
0.161, -1.521e-8
0.162, -1.512e-8
0.163, -1.511e-8
0.164, -1.498e-8
0.165, -1.497e-8
0.166, -1.489e-8
0.167, -1.481e-8
0.168, -1.480e-8
0.169, -1.467e-8
0.170, -1.467e-8
0.171, -1.459e-8
0.172, -1.451e-8
0.173, -1.451e-8
0.174, -1.439e-8
0.175, -1.439e-8
0.176, -1.431e-8
0.177, -1.424e-8
0.178, -1.425e-8
0.179, -1.412e-8
0.180, -1.413e-8
0.181, -1.406e-8
0.182, -1.398e-8
0.183, -1.399e-8
0.184, -1.387e-8
0.185, -1.388e-8
0.186, -1.382e-8
0.187, -1.375e-8
0.188, -1.376e-8
0.189, -1.365e-8
0.190, -1.366e-8
0.191, -1.360e-8
0.192, -1.353e-8
0.193, -1.355e-8
0.194, -1.344e-8
0.195, -1.345e-8
0.196, -1.340e-8
0.197, -1.333e-8
0.198, -1.335e-8
0.199, -1.325e-8
0.200, -1.326e-8
0.201, -1.321e-8
0.202, -1.315e-8
0.203, -1.317e-8
0.204, -1.307e-8
0.205, -1.309e-8
0.206, -1.304e-8
0.207, -1.299e-8
0.208, -1.301e-8
0.209, -1.291e-8
0.210, -1.293e-8
0.211, -1.288e-8
0.212, -1.283e-8
0.213, -1.285e-8
0.214, -1.275e-8
0.215, -1.278e-8
0.216, -1.273e-8
0.217, -1.268e-8
0.218, -1.272e-8
0.219, -1.262e-8
0.220, -1.265e-8
0.221, -1.260e-8
0.222, -1.255e-8
0.223, -1.259e-8
0.224, -1.249e-8
0.225, -1.252e-8
0.226, -1.248e-8
0.227, -1.243e-8
0.228, -1.247e-8
0.229, -1.238e-8
0.230, -1.241e-8
0.231, -1.238e-8
0.232, -1.232e-8
0.233, -1.236e-8
0.234, -1.227e-8
0.235, -1.230e-8
0.236, -1.227e-8
0.237, -1.222e-8
0.238, -1.227e-8
0.239, -1.218e-8
0.240, -1.221e-8
0.241, -1.218e-8
0.242, -1.213e-8
0.243, -1.218e-8
0.244, -1.209e-8
0.245, -1.213e-8
0.246, -1.209e-8
0.247, -1.205e-8
0.248, -1.210e-8
0.249, -1.201e-8
0.250, -1.205e-8
0.251, -1.202e-8
0.252, -1.198e-8
0.253, -1.202e-8
0.254, -1.194e-8
0.255, -1.198e-8
0.256, -1.195e-8
0.257, -1.191e-8
0.258, -1.196e-8
0.259, -1.187e-8
0.260, -1.192e-8
0.261, -1.189e-8
0.262, -1.185e-8
0.263, -1.190e-8
0.264, -1.181e-8
0.265, -1.186e-8
0.266, -1.183e-8
0.267, -1.179e-8
0.268, -1.185e-8
0.269, -1.176e-8
0.270, -1.181e-8
0.271, -1.179e-8
0.272, -1.175e-8
0.273, -1.180e-8
0.274, -1.172e-8
0.275, -1.176e-8
0.276, -1.175e-8
0.277, -1.171e-8
0.278, -1.176e-8
0.279, -1.168e-8
0.280, -1.172e-8
0.281, -1.171e-8
0.282, -1.168e-8
0.283, -1.173e-8
0.284, -1.165e-8
0.285, -1.170e-8
0.286, -1.168e-8
0.287, -1.164e-8
0.288, -1.170e-8
0.289, -1.162e-8
0.290, -1.167e-8
0.291, -1.166e-8
0.292, -1.162e-8
0.293, -1.168e-8
0.294, -1.161e-8
0.295, -1.165e-8
0.296, -1.164e-8
0.297, -1.160e-8
0.298, -1.166e-8
0.299, -1.158e-8
0.300, -1.110e-8
0.299, -1.018e-8
0.298, -9.871e-9
0.297, -9.801e-9
0.296, -9.636e-9
0.295, -9.599e-9
0.294, -9.519e-9
0.293, -9.419e-9
0.292, -9.424e-9
0.291, -9.299e-9
0.290, -9.294e-9
0.289, -9.235e-9
0.288, -9.159e-9
0.287, -9.175e-9
0.286, -9.069e-9
0.285, -9.073e-9
0.284, -9.027e-9
0.283, -8.958e-9
0.282, -8.981e-9
0.281, -8.873e-9
0.280, -8.892e-9
0.279, -8.847e-9
0.278, -8.786e-9
0.277, -8.820e-9
0.276, -8.715e-9
0.275, -8.738e-9
0.274, -8.698e-9
0.273, -8.635e-9
0.272, -8.676e-9
0.271, -8.573e-9
0.270, -8.601e-9
0.269, -8.565e-9
0.268, -8.501e-9
0.267, -8.545e-9
0.266, -8.452e-9
0.265, -8.474e-9
0.264, -8.444e-9
0.263, -8.385e-9
0.262, -8.428e-9
0.261, -8.336e-9
0.260, -8.360e-9
0.259, -8.332e-9
0.258, -8.273e-9
0.257, -8.316e-9
0.256, -8.227e-9
0.255, -8.245e-9
0.254, -8.224e-9
0.253, -8.167e-9
0.252, -8.211e-9
0.251, -8.127e-9
0.250, -8.148e-9
0.249, -8.124e-9
0.248, -8.069e-9
0.247, -8.111e-9
0.246, -8.026e-9
0.245, -8.051e-9
0.244, -8.022e-9
0.243, -7.969e-9
0.242, -8.014e-9
0.241, -7.926e-9
0.240, -7.954e-9
0.239, -7.925e-9
0.238, -7.874e-9
0.237, -7.921e-9
0.236, -7.828e-9
0.235, -7.860e-9
0.234, -7.837e-9
0.233, -7.777e-9
0.232, -7.827e-9
0.231, -7.733e-9
0.230, -7.762e-9
0.229, -7.742e-9
0.228, -7.680e-9
0.227, -7.733e-9
0.226, -7.640e-9
0.225, -7.667e-9
0.224, -7.644e-9
0.223, -7.583e-9
0.222, -7.634e-9
0.221, -7.543e-9
0.220, -7.567e-9
0.219, -7.545e-9
0.218, -7.484e-9
0.217, -7.531e-9
0.216, -7.445e-9
0.215, -7.466e-9
0.214, -7.443e-9
0.213, -7.385e-9
0.212, -7.425e-9
0.211, -7.344e-9
0.210, -7.360e-9
0.209, -7.338e-9
0.208, -7.272e-9
0.207, -7.317e-9
0.206, -7.223e-9
0.205, -7.238e-9
0.204, -7.212e-9
0.203, -7.153e-9
0.202, -7.194e-9
0.201, -7.102e-9
0.200, -7.120e-9
0.199, -7.089e-9
0.198, -7.028e-9
0.197, -7.069e-9
0.196, -6.967e-9
0.195, -6.987e-9
0.194, -6.958e-9
0.193, -6.887e-9
0.192, -6.926e-9
0.191, -6.826e-9
0.190, -6.840e-9
0.189, -6.810e-9
0.188, -6.731e-9
0.187, -6.774e-9
0.186, -6.668e-9
0.185, -6.679e-9
0.184, -6.643e-9
0.183, -6.564e-9
0.182, -6.602e-9
0.181, -6.492e-9
0.180, -6.491e-9
0.179, -6.455e-9
0.178, -6.372e-9
0.177, -6.404e-9
0.176, -6.294e-9
0.175, -6.285e-9
0.174, -6.247e-9
0.173, -6.160e-9
0.172, -6.179e-9
0.171, -6.069e-9
0.170, -6.056e-9
0.169, -6.008e-9
0.168, -5.913e-9
0.167, -5.923e-9
0.166, -5.807e-9
0.165, -5.790e-9
0.164, -5.729e-9
0.163, -5.632e-9
0.162, -5.632e-9
0.161, -5.507e-9
0.160, -5.482e-9
0.159, -5.409e-9
0.158, -5.304e-9
0.157, -5.299e-9
0.156, -5.156e-9
0.155, -5.125e-9
0.154, -5.046e-9
0.153, -4.923e-9
0.152, -4.912e-9
0.151, -4.756e-9
0.150, -4.713e-9
0.149, -4.627e-9
0.148, -4.487e-9
0.147, -4.465e-9
0.146, -4.298e-9
0.145, -4.237e-9
0.144, -4.138e-9
0.143, -3.985e-9
0.142, -3.948e-9
0.141, -3.768e-9
0.140, -3.685e-9
0.139, -3.577e-9
0.138, -3.417e-9
0.137, -3.363e-9
0.136, -3.166e-9
0.135, -3.065e-9
0.134, -2.943e-9
0.133, -2.754e-9
0.132, -2.676e-9
0.131, -2.473e-9
0.130, -2.353e-9
0.129, -2.206e-9
0.128, -2.006e-9
0.127, -1.906e-9
0.126, -1.682e-9
0.125, -1.555e-9
0.124, -1.381e-9
0.123, -1.167e-9
0.122, -1.054e-9
0.121, -8.089e-10
0.120, -6.588e-10
0.119, -4.669e-10
0.118, -2.351e-10
0.117, -9.695e-11
0.116, 1.682e-10
0.115, 3.384e-10
0.114, 5.401e-10
0.113, 8.024e-10
0.112, 9.495e-10
0.111, 1.236e-9
0.110, 1.419e-9
0.109, 1.638e-9
0.108, 1.911e-9
0.107, 2.070e-9
0.106, 2.365e-9
0.105, 2.563e-9
0.104, 2.789e-9
0.103, 3.084e-9
0.102, 3.256e-9
0.101, 3.558e-9
0.100, 3.766e-9
0.099, 3.989e-9
0.098, 4.289e-9
0.097, 4.453e-9
0.096, 4.756e-9
0.095, 4.979e-9
0.094, 5.200e-9
0.093, 5.491e-9
0.092, 5.672e-9
0.091, 5.964e-9
0.090, 6.181e-9
0.089, 6.413e-9
0.088, 6.681e-9
0.087, 6.850e-9
0.086, 7.134e-9
0.085, 7.333e-9
0.084, 7.546e-9
0.083, 7.802e-9
0.082, 7.964e-9
0.081, 8.230e-9
0.080, 8.406e-9
0.079, 8.607e-9
0.078, 8.852e-9
0.077, 8.986e-9
0.076, 9.232e-9
0.075, 9.378e-9
0.074, 9.545e-9
0.073, 9.756e-9
0.072, 9.855e-9
0.071, 1.008e-8
0.070, 1.018e-8
0.069, 1.033e-8
0.068, 1.051e-8
0.067, 1.057e-8
0.066, 1.077e-8
0.065, 1.085e-8
0.064, 1.095e-8
0.063, 1.112e-8
0.062, 1.113e-8
0.061, 1.129e-8
0.060, 1.135e-8
0.059, 1.141e-8
0.058, 1.154e-8
0.057, 1.154e-8
0.056, 1.166e-8
0.055, 1.169e-8
0.054, 1.172e-8
0.053, 1.181e-8
0.052, 1.178e-8
0.051, 1.188e-8
0.050, 1.188e-8
0.049, 1.188e-8
0.048, 1.194e-8
0.047, 1.189e-8
0.046, 1.195e-8
0.045, 1.192e-8
0.044, 1.191e-8
0.043, 1.195e-8
0.042, 1.187e-8
0.041, 1.191e-8
0.040, 1.187e-8
0.039, 1.183e-8
0.038, 1.185e-8
0.037, 1.175e-8
0.036, 1.179e-8
0.035, 1.171e-8
0.034, 1.167e-8
0.033, 1.168e-8
0.032, 1.156e-8
0.031, 1.158e-8
0.030, 1.150e-8
0.029, 1.143e-8
0.028, 1.144e-8
0.027, 1.131e-8
0.026, 1.133e-8
0.025, 1.124e-8
0.024, 1.117e-8
0.023, 1.116e-8
0.022, 1.103e-8
0.021, 1.103e-8
0.020, 1.094e-8
0.019, 1.086e-8
0.018, 1.086e-8
0.017, 1.073e-8
0.016, 1.072e-8
0.015, 1.064e-8
0.014, 1.055e-8
0.013, 1.054e-8
0.012, 1.041e-8
0.011, 1.040e-8
0.010, 1.032e-8
0.009, 1.024e-8
0.008, 1.022e-8
0.007, 1.009e-8
0.006, 1.008e-8
0.005, 9.999e-9
0.004, 9.921e-9
0.003, 9.908e-9
0.002, 9.778e-9
0.001, 9.779e-9
0.000, 9.721e-9
-0.001, 9.635e-9
-0.002, 9.617e-9
-0.003, 9.489e-9
-0.004, 9.490e-9
-0.005, 9.401e-9
-0.006, 9.330e-9
-0.007, 9.326e-9
-0.008, 9.197e-9
-0.009, 9.205e-9
-0.010, 9.119e-9
-0.011, 9.050e-9
-0.012, 9.052e-9
-0.013, 8.930e-9
-0.014, 8.940e-9
-0.015, 8.859e-9
-0.016, 8.792e-9
-0.017, 8.798e-9
-0.018, 8.674e-9
-0.019, 8.689e-9
-0.020, 8.617e-9
-0.021, 8.547e-9
-0.022, 8.561e-9
-0.023, 8.438e-9
-0.024, 8.454e-9
-0.025, 8.386e-9
-0.026, 8.325e-9
-0.027, 8.336e-9
-0.028, 8.229e-9
-0.029, 8.243e-9
-0.030, 8.180e-9
-0.031, 8.125e-9
-0.032, 8.139e-9
-0.033, 8.031e-9
-0.034, 8.054e-9
-0.035, 7.990e-9
-0.036, 7.937e-9
-0.037, 7.955e-9
-0.038, 7.852e-9
-0.039, 7.876e-9
-0.040, 7.815e-9
-0.041, 7.767e-9
-0.042, 7.787e-9
-0.043, 7.687e-9
-0.044, 7.720e-9
-0.045, 7.658e-9
-0.046, 7.613e-9
-0.047, 7.637e-9
-0.048, 7.536e-9
-0.049, 7.573e-9
-0.050, 7.517e-9
-0.051, 7.474e-9
-0.052, 7.503e-9
-0.053, 7.403e-9
-0.054, 7.437e-9
-0.055, 7.387e-9
-0.056, 7.343e-9
-0.057, 7.380e-9
-0.058, 7.277e-9
-0.059, 7.318e-9
-0.060, 7.273e-9
-0.061, 7.228e-9
-0.062, 7.264e-9
-0.063, 7.173e-9
-0.064, 7.213e-9
-0.065, 7.169e-9
-0.066, 7.124e-9
-0.067, 7.165e-9
-0.068, 7.073e-9
-0.069, 7.112e-9
-0.070, 7.070e-9
-0.071, 7.031e-9
-0.072, 7.072e-9
-0.073, 6.986e-9
-0.074, 7.023e-9
-0.075, 6.983e-9
-0.076, 6.950e-9
-0.077, 6.988e-9
-0.078, 6.904e-9
-0.079, 6.947e-9
-0.080, 6.906e-9
-0.081, 6.873e-9
-0.082, 6.913e-9
-0.083, 6.828e-9
-0.084, 6.876e-9
-0.085, 6.837e-9
-0.086, 6.802e-9
-0.087, 6.847e-9
-0.088, 6.760e-9
-0.089, 6.812e-9
-0.090, 6.778e-9
-0.091, 6.740e-9
-0.092, 6.790e-9
-0.093, 6.703e-9
-0.094, 6.754e-9
-0.095, 6.721e-9
-0.096, 6.685e-9
-0.097, 6.737e-9
-0.098, 6.654e-9
-0.099, 6.701e-9
-0.100, 6.672e-9
-0.101, 6.638e-9
-0.102, 6.692e-9
-0.103, 6.609e-9
-0.104, 6.657e-9
-0.105, 6.628e-9
-0.106, 6.593e-9
-0.107, 6.645e-9
-0.108, 6.567e-9
-0.109, 6.616e-9
-0.110, 6.588e-9
-0.111, 6.555e-9
-0.112, 6.606e-9
-0.113, 6.531e-9
-0.114, 6.578e-9
-0.115, 6.551e-9
-0.116, 6.526e-9
-0.117, 6.571e-9
-0.118, 6.498e-9
-0.119, 6.547e-9
-0.120, 6.520e-9
-0.121, 6.494e-9
-0.122, 6.542e-9
-0.123, 6.469e-9
-0.124, 6.522e-9
-0.125, 6.494e-9
-0.126, 6.465e-9
-0.127, 6.519e-9
-0.128, 6.445e-9
-0.129, 6.501e-9
-0.130, 6.471e-9
-0.131, 6.444e-9
-0.132, 6.499e-9
-0.133, 6.421e-9
-0.134, 6.472e-9
-0.135, 6.450e-9
-0.136, 6.420e-9
-0.137, 6.479e-9
-0.138, 6.402e-9
-0.139, 6.452e-9
-0.140, 6.436e-9
-0.141, 6.403e-9
-0.142, 6.461e-9
-0.143, 6.386e-9
-0.144, 6.439e-9
-0.145, 6.420e-9
-0.146, 6.389e-9
-0.147, 6.445e-9
-0.148, 6.377e-9
-0.149, 6.423e-9
-0.150, 6.403e-9
-0.151, 6.376e-9
-0.152, 6.431e-9
-0.153, 6.362e-9
-0.154, 6.415e-9
-0.155, 6.393e-9
-0.156, 6.364e-9
-0.157, 6.420e-9
-0.158, 6.351e-9
-0.159, 6.406e-9
-0.160, 6.383e-9
-0.161, 6.358e-9
-0.162, 6.412e-9
-0.163, 6.340e-9
-0.164, 6.396e-9
-0.165, 6.373e-9
-0.166, 6.348e-9
-0.167, 6.410e-9
-0.168, 6.335e-9
-0.169, 6.392e-9
-0.170, 6.369e-9
-0.171, 6.342e-9
-0.172, 6.405e-9
-0.173, 6.328e-9
-0.174, 6.383e-9
-0.175, 6.367e-9
-0.176, 6.335e-9
-0.177, 6.399e-9
-0.178, 6.325e-9
-0.179, 6.381e-9
-0.180, 6.366e-9
-0.181, 6.333e-9
-0.182, 6.398e-9
-0.183, 6.327e-9
-0.184, 6.380e-9
-0.185, 6.367e-9
-0.186, 6.335e-9
-0.187, 6.398e-9
-0.188, 6.328e-9
-0.189, 6.378e-9
-0.190, 6.365e-9
-0.191, 6.336e-9
-0.192, 6.399e-9
-0.193, 6.330e-9
-0.194, 6.381e-9
-0.195, 6.369e-9
-0.196, 6.343e-9
-0.197, 6.400e-9
-0.198, 6.331e-9
-0.199, 6.389e-9
