Mar. 16, 2023   09:02:12
Cyclic Voltammetry
File: c:/users/oliverrz/desktop/electrolab/data/2023_03_16\fcmeoh_macros_250_um\electrode8_cv_50mvs_250_um.bin
Data Source:  Experiment
Instrument Model:  CHI760E
Header: CV
Note: 

Init E (V) = -0.2
High E (V) = 0.3
Low E (V) = -0.2
Final E (V) = -0.2
Init P/N = P
Scan Rate (V/s) = 0.05
Segment = 3
Sample Interval (V) = 0.001
Quiet Time (sec) = 2
Sensitivity (A/V) = 1e-7

Results:

Channel 1:
Segment 1:
Ep = 0.071V
ip = -8.696e-9A
Ah = -1.114e-8C

Segment 2:
Ep = -0.001V
ip = 1.023e-8A
Ah = 1.323e-8C

Segment 3:

Potential/V, Current/A

-0.200, 9.856e-9
-0.199, 9.431e-9
-0.198, 9.248e-9
-0.197, 9.113e-9
-0.196, 8.992e-9
-0.195, 8.877e-9
-0.194, 8.758e-9
-0.193, 8.645e-9
-0.192, 8.536e-9
-0.191, 8.427e-9
-0.190, 8.325e-9
-0.189, 8.224e-9
-0.188, 8.121e-9
-0.187, 8.028e-9
-0.186, 7.934e-9
-0.185, 7.843e-9
-0.184, 7.751e-9
-0.183, 7.656e-9
-0.182, 7.569e-9
-0.181, 7.484e-9
-0.180, 7.397e-9
-0.179, 7.310e-9
-0.178, 7.222e-9
-0.177, 7.145e-9
-0.176, 7.068e-9
-0.175, 6.986e-9
-0.174, 6.908e-9
-0.173, 6.826e-9
-0.172, 6.749e-9
-0.171, 6.678e-9
-0.170, 6.603e-9
-0.169, 6.527e-9
-0.168, 6.454e-9
-0.167, 6.385e-9
-0.166, 6.316e-9
-0.165, 6.247e-9
-0.164, 6.173e-9
-0.163, 6.104e-9
-0.162, 6.035e-9
-0.161, 5.971e-9
-0.160, 5.908e-9
-0.159, 5.838e-9
-0.158, 5.771e-9
-0.157, 5.708e-9
-0.156, 5.647e-9
-0.155, 5.586e-9
-0.154, 5.519e-9
-0.153, 5.452e-9
-0.152, 5.396e-9
-0.151, 5.337e-9
-0.150, 5.283e-9
-0.149, 5.221e-9
-0.148, 5.157e-9
-0.147, 5.104e-9
-0.146, 5.047e-9
-0.145, 4.992e-9
-0.144, 4.936e-9
-0.143, 4.878e-9
-0.142, 4.825e-9
-0.141, 4.771e-9
-0.140, 4.718e-9
-0.139, 4.666e-9
-0.138, 4.607e-9
-0.137, 4.557e-9
-0.136, 4.509e-9
-0.135, 4.457e-9
-0.134, 4.409e-9
-0.133, 4.359e-9
-0.132, 4.309e-9
-0.131, 4.264e-9
-0.130, 4.214e-9
-0.129, 4.165e-9
-0.128, 4.112e-9
-0.127, 4.066e-9
-0.126, 4.023e-9
-0.125, 3.979e-9
-0.124, 3.929e-9
-0.123, 3.882e-9
-0.122, 3.837e-9
-0.121, 3.796e-9
-0.120, 3.752e-9
-0.119, 3.704e-9
-0.118, 3.659e-9
-0.117, 3.618e-9
-0.116, 3.577e-9
-0.115, 3.538e-9
-0.114, 3.491e-9
-0.113, 3.447e-9
-0.112, 3.408e-9
-0.111, 3.366e-9
-0.110, 3.328e-9
-0.109, 3.287e-9
-0.108, 3.239e-9
-0.107, 3.203e-9
-0.106, 3.163e-9
-0.105, 3.126e-9
-0.104, 3.085e-9
-0.103, 3.041e-9
-0.102, 3.002e-9
-0.101, 2.969e-9
-0.100, 2.928e-9
-0.099, 2.892e-9
-0.098, 2.848e-9
-0.097, 2.810e-9
-0.096, 2.777e-9
-0.095, 2.740e-9
-0.094, 2.700e-9
-0.093, 2.659e-9
-0.092, 2.622e-9
-0.091, 2.591e-9
-0.090, 2.553e-9
-0.089, 2.514e-9
-0.088, 2.475e-9
-0.087, 2.438e-9
-0.086, 2.405e-9
-0.085, 2.369e-9
-0.084, 2.329e-9
-0.083, 2.292e-9
-0.082, 2.257e-9
-0.081, 2.223e-9
-0.080, 2.188e-9
-0.079, 2.146e-9
-0.078, 2.106e-9
-0.077, 2.066e-9
-0.076, 2.031e-9
-0.075, 1.999e-9
-0.074, 1.956e-9
-0.073, 1.915e-9
-0.072, 1.878e-9
-0.071, 1.840e-9
-0.070, 1.804e-9
-0.069, 1.764e-9
-0.068, 1.719e-9
-0.067, 1.682e-9
-0.066, 1.643e-9
-0.065, 1.602e-9
-0.064, 1.559e-9
-0.063, 1.512e-9
-0.062, 1.474e-9
-0.061, 1.432e-9
-0.060, 1.389e-9
-0.059, 1.346e-9
-0.058, 1.295e-9
-0.057, 1.252e-9
-0.056, 1.214e-9
-0.055, 1.168e-9
-0.054, 1.118e-9
-0.053, 1.064e-9
-0.052, 1.015e-9
-0.051, 9.701e-10
-0.050, 9.176e-10
-0.049, 8.612e-10
-0.048, 8.043e-10
-0.047, 7.520e-10
-0.046, 7.038e-10
-0.045, 6.452e-10
-0.044, 5.801e-10
-0.043, 5.175e-10
-0.042, 4.586e-10
-0.041, 4.013e-10
-0.040, 3.376e-10
-0.039, 2.705e-10
-0.038, 2.005e-10
-0.037, 1.358e-10
-0.036, 6.805e-11
-0.035, 3.170e-12
-0.034, -7.313e-11
-0.033, -1.484e-10
-0.032, -2.235e-10
-0.031, -2.991e-10
-0.030, -3.766e-10
-0.029, -4.602e-10
-0.028, -5.483e-10
-0.027, -6.300e-10
-0.026, -7.195e-10
-0.025, -8.072e-10
-0.024, -8.996e-10
-0.023, -1.001e-9
-0.022, -1.092e-9
-0.021, -1.185e-9
-0.020, -1.289e-9
-0.019, -1.388e-9
-0.018, -1.500e-9
-0.017, -1.608e-9
-0.016, -1.715e-9
-0.015, -1.830e-9
-0.014, -1.945e-9
-0.013, -2.072e-9
-0.012, -2.193e-9
-0.011, -2.310e-9
-0.010, -2.433e-9
-0.009, -2.566e-9
-0.008, -2.699e-9
-0.007, -2.833e-9
-0.006, -2.964e-9
-0.005, -3.109e-9
-0.004, -3.251e-9
-0.003, -3.398e-9
-0.002, -3.537e-9
-0.001, -3.685e-9
-0.000, -3.868e-9
0.001, -4.024e-9
0.002, -4.172e-9
0.003, -4.324e-9
0.004, -4.483e-9
0.005, -4.640e-9
0.006, -4.808e-9
0.007, -4.974e-9
0.008, -5.139e-9
0.009, -5.312e-9
0.010, -5.475e-9
0.011, -5.649e-9
0.012, -5.826e-9
0.013, -5.997e-9
0.014, -6.173e-9
0.015, -6.345e-9
0.016, -6.522e-9
0.017, -6.703e-9
0.018, -6.874e-9
0.019, -7.049e-9
0.020, -7.230e-9
0.021, -7.408e-9
0.022, -7.586e-9
0.023, -7.755e-9
0.024, -7.924e-9
0.025, -8.101e-9
0.026, -8.277e-9
0.027, -8.447e-9
0.028, -8.609e-9
0.029, -8.764e-9
0.030, -8.931e-9
0.031, -9.085e-9
0.032, -9.244e-9
0.033, -9.400e-9
0.034, -9.542e-9
0.035, -9.688e-9
0.036, -9.830e-9
0.037, -9.970e-9
0.038, -1.011e-8
0.039, -1.024e-8
0.040, -1.036e-8
0.041, -1.049e-8
0.042, -1.061e-8
0.043, -1.073e-8
0.044, -1.084e-8
0.045, -1.094e-8
0.046, -1.104e-8
0.047, -1.115e-8
0.048, -1.124e-8
0.049, -1.132e-8
0.050, -1.140e-8
0.051, -1.148e-8
0.052, -1.156e-8
0.053, -1.163e-8
0.054, -1.169e-8
0.055, -1.175e-8
0.056, -1.181e-8
0.057, -1.187e-8
0.058, -1.191e-8
0.059, -1.195e-8
0.060, -1.199e-8
0.061, -1.202e-8
0.062, -1.206e-8
0.063, -1.209e-8
0.064, -1.211e-8
0.065, -1.213e-8
0.066, -1.215e-8
0.067, -1.217e-8
0.068, -1.218e-8
0.069, -1.218e-8
0.070, -1.218e-8
0.071, -1.219e-8
0.072, -1.219e-8
0.073, -1.219e-8
0.074, -1.217e-8
0.075, -1.216e-8
0.076, -1.216e-8
0.077, -1.215e-8
0.078, -1.214e-8
0.079, -1.211e-8
0.080, -1.209e-8
0.081, -1.208e-8
0.082, -1.206e-8
0.083, -1.203e-8
0.084, -1.200e-8
0.085, -1.198e-8
0.086, -1.195e-8
0.087, -1.193e-8
0.088, -1.190e-8
0.089, -1.187e-8
0.090, -1.183e-8
0.091, -1.181e-8
0.092, -1.178e-8
0.093, -1.174e-8
0.094, -1.171e-8
0.095, -1.167e-8
0.096, -1.164e-8
0.097, -1.162e-8
0.098, -1.158e-8
0.099, -1.155e-8
0.100, -1.151e-8
0.101, -1.148e-8
0.102, -1.145e-8
0.103, -1.142e-8
0.104, -1.138e-8
0.105, -1.135e-8
0.106, -1.132e-8
0.107, -1.129e-8
0.108, -1.126e-8
0.109, -1.123e-8
0.110, -1.120e-8
0.111, -1.117e-8
0.112, -1.114e-8
0.113, -1.111e-8
0.114, -1.108e-8
0.115, -1.105e-8
0.116, -1.103e-8
0.117, -1.099e-8
0.118, -1.097e-8
0.119, -1.094e-8
0.120, -1.091e-8
0.121, -1.089e-8
0.122, -1.086e-8
0.123, -1.084e-8
0.124, -1.082e-8
0.125, -1.079e-8
0.126, -1.077e-8
0.127, -1.075e-8
0.128, -1.074e-8
0.129, -1.071e-8
0.130, -1.069e-8
0.131, -1.067e-8
0.132, -1.066e-8
0.133, -1.064e-8
0.134, -1.062e-8
0.135, -1.060e-8
0.136, -1.059e-8
0.137, -1.058e-8
0.138, -1.056e-8
0.139, -1.055e-8
0.140, -1.054e-8
0.141, -1.052e-8
0.142, -1.052e-8
0.143, -1.050e-8
0.144, -1.049e-8
0.145, -1.048e-8
0.146, -1.047e-8
0.147, -1.047e-8
0.148, -1.046e-8
0.149, -1.045e-8
0.150, -1.044e-8
0.151, -1.043e-8
0.152, -1.043e-8
0.153, -1.043e-8
0.154, -1.042e-8
0.155, -1.042e-8
0.156, -1.042e-8
0.157, -1.041e-8
0.158, -1.041e-8
0.159, -1.041e-8
0.160, -1.040e-8
0.161, -1.041e-8
0.162, -1.041e-8
0.163, -1.041e-8
0.164, -1.041e-8
0.165, -1.040e-8
0.166, -1.041e-8
0.167, -1.041e-8
0.168, -1.041e-8
0.169, -1.041e-8
0.170, -1.041e-8
0.171, -1.042e-8
0.172, -1.043e-8
0.173, -1.043e-8
0.174, -1.044e-8
0.175, -1.044e-8
0.176, -1.045e-8
0.177, -1.046e-8
0.178, -1.046e-8
0.179, -1.047e-8
0.180, -1.048e-8
0.181, -1.048e-8
0.182, -1.049e-8
0.183, -1.050e-8
0.184, -1.051e-8
0.185, -1.052e-8
0.186, -1.053e-8
0.187, -1.054e-8
0.188, -1.055e-8
0.189, -1.056e-8
0.190, -1.057e-8
0.191, -1.058e-8
0.192, -1.060e-8
0.193, -1.061e-8
0.194, -1.061e-8
0.195, -1.063e-8
0.196, -1.064e-8
0.197, -1.066e-8
0.198, -1.067e-8
0.199, -1.068e-8
0.200, -1.069e-8
0.201, -1.071e-8
0.202, -1.072e-8
0.203, -1.074e-8
0.204, -1.075e-8
0.205, -1.077e-8
0.206, -1.079e-8
0.207, -1.081e-8
0.208, -1.082e-8
0.209, -1.083e-8
0.210, -1.085e-8
0.211, -1.087e-8
0.212, -1.089e-8
0.213, -1.090e-8
0.214, -1.092e-8
0.215, -1.093e-8
0.216, -1.095e-8
0.217, -1.098e-8
0.218, -1.099e-8
0.219, -1.101e-8
0.220, -1.103e-8
0.221, -1.104e-8
0.222, -1.107e-8
0.223, -1.109e-8
0.224, -1.110e-8
0.225, -1.112e-8
0.226, -1.114e-8
0.227, -1.117e-8
0.228, -1.119e-8
0.229, -1.120e-8
0.230, -1.123e-8
0.231, -1.125e-8
0.232, -1.127e-8
0.233, -1.129e-8
0.234, -1.131e-8
0.235, -1.133e-8
0.236, -1.135e-8
0.237, -1.137e-8
0.238, -1.139e-8
0.239, -1.141e-8
0.240, -1.143e-8
0.241, -1.146e-8
0.242, -1.148e-8
0.243, -1.151e-8
0.244, -1.153e-8
0.245, -1.155e-8
0.246, -1.157e-8
0.247, -1.160e-8
0.248, -1.162e-8
0.249, -1.164e-8
0.250, -1.166e-8
0.251, -1.169e-8
0.252, -1.172e-8
0.253, -1.174e-8
0.254, -1.176e-8
0.255, -1.179e-8
0.256, -1.181e-8
0.257, -1.184e-8
0.258, -1.187e-8
0.259, -1.189e-8
0.260, -1.191e-8
0.261, -1.194e-8
0.262, -1.197e-8
0.263, -1.199e-8
0.264, -1.201e-8
0.265, -1.204e-8
0.266, -1.206e-8
0.267, -1.209e-8
0.268, -1.212e-8
0.269, -1.214e-8
0.270, -1.217e-8
0.271, -1.220e-8
0.272, -1.222e-8
0.273, -1.225e-8
0.274, -1.228e-8
0.275, -1.230e-8
0.276, -1.233e-8
0.277, -1.236e-8
0.278, -1.239e-8
0.279, -1.242e-8
0.280, -1.244e-8
0.281, -1.247e-8
0.282, -1.251e-8
0.283, -1.254e-8
0.284, -1.256e-8
0.285, -1.259e-8
0.286, -1.262e-8
0.287, -1.265e-8
0.288, -1.268e-8
0.289, -1.271e-8
0.290, -1.273e-8
0.291, -1.276e-8
0.292, -1.280e-8
0.293, -1.283e-8
0.294, -1.286e-8
0.295, -1.289e-8
0.296, -1.292e-8
0.297, -1.295e-8
0.298, -1.298e-8
0.299, -1.301e-8
0.300, -1.270e-8
0.299, -1.167e-8
0.298, -1.126e-8
0.297, -1.103e-8
0.296, -1.082e-8
0.295, -1.064e-8
0.294, -1.049e-8
0.293, -1.035e-8
0.292, -1.022e-8
0.291, -1.009e-8
0.290, -9.971e-9
0.289, -9.864e-9
0.288, -9.767e-9
0.287, -9.668e-9
0.286, -9.576e-9
0.285, -9.483e-9
0.284, -9.401e-9
0.283, -9.324e-9
0.282, -9.245e-9
0.281, -9.170e-9
0.280, -9.094e-9
0.279, -9.025e-9
0.278, -8.963e-9
0.277, -8.898e-9
0.276, -8.833e-9
0.275, -8.773e-9
0.274, -8.712e-9
0.273, -8.660e-9
0.272, -8.605e-9
0.271, -8.544e-9
0.270, -8.493e-9
0.269, -8.442e-9
0.268, -8.395e-9
0.267, -8.350e-9
0.266, -8.298e-9
0.265, -8.253e-9
0.264, -8.207e-9
0.263, -8.164e-9
0.262, -8.124e-9
0.261, -8.077e-9
0.260, -8.033e-9
0.259, -7.993e-9
0.258, -7.955e-9
0.257, -7.917e-9
0.256, -7.874e-9
0.255, -7.832e-9
0.254, -7.800e-9
0.253, -7.765e-9
0.252, -7.726e-9
0.251, -7.688e-9
0.250, -7.650e-9
0.249, -7.618e-9
0.248, -7.585e-9
0.247, -7.551e-9
0.246, -7.516e-9
0.245, -7.479e-9
0.244, -7.446e-9
0.243, -7.419e-9
0.242, -7.388e-9
0.241, -7.356e-9
0.240, -7.320e-9
0.239, -7.285e-9
0.238, -7.258e-9
0.237, -7.224e-9
0.236, -7.191e-9
0.235, -7.158e-9
0.234, -7.128e-9
0.233, -7.103e-9
0.232, -7.073e-9
0.231, -7.039e-9
0.230, -7.007e-9
0.229, -6.977e-9
0.228, -6.953e-9
0.227, -6.929e-9
0.226, -6.895e-9
0.225, -6.867e-9
0.224, -6.838e-9
0.223, -6.811e-9
0.222, -6.787e-9
0.221, -6.754e-9
0.220, -6.724e-9
0.219, -6.699e-9
0.218, -6.672e-9
0.217, -6.647e-9
0.216, -6.617e-9
0.215, -6.588e-9
0.214, -6.565e-9
0.213, -6.538e-9
0.212, -6.512e-9
0.211, -6.483e-9
0.210, -6.450e-9
0.209, -6.425e-9
0.208, -6.402e-9
0.207, -6.377e-9
0.206, -6.350e-9
0.205, -6.315e-9
0.204, -6.287e-9
0.203, -6.266e-9
0.202, -6.236e-9
0.201, -6.207e-9
0.200, -6.178e-9
0.199, -6.151e-9
0.198, -6.132e-9
0.197, -6.105e-9
0.196, -6.077e-9
0.195, -6.050e-9
0.194, -6.020e-9
0.193, -5.996e-9
0.192, -5.970e-9
0.191, -5.936e-9
0.190, -5.912e-9
0.189, -5.882e-9
0.188, -5.859e-9
0.187, -5.837e-9
0.186, -5.804e-9
0.185, -5.776e-9
0.184, -5.747e-9
0.183, -5.723e-9
0.182, -5.698e-9
0.181, -5.664e-9
0.180, -5.633e-9
0.179, -5.604e-9
0.178, -5.580e-9
0.177, -5.556e-9
0.176, -5.524e-9
0.175, -5.491e-9
0.174, -5.467e-9
0.173, -5.442e-9
0.172, -5.414e-9
0.171, -5.382e-9
0.170, -5.351e-9
0.169, -5.324e-9
0.168, -5.298e-9
0.167, -5.271e-9
0.166, -5.240e-9
0.165, -5.206e-9
0.164, -5.176e-9
0.163, -5.150e-9
0.162, -5.120e-9
0.161, -5.088e-9
0.160, -5.056e-9
0.159, -5.022e-9
0.158, -4.997e-9
0.157, -4.967e-9
0.156, -4.932e-9
0.155, -4.899e-9
0.154, -4.866e-9
0.153, -4.838e-9
0.152, -4.811e-9
0.151, -4.773e-9
0.150, -4.743e-9
0.149, -4.710e-9
0.148, -4.678e-9
0.147, -4.648e-9
0.146, -4.609e-9
0.145, -4.575e-9
0.144, -4.541e-9
0.143, -4.509e-9
0.142, -4.477e-9
0.141, -4.436e-9
0.140, -4.398e-9
0.139, -4.363e-9
0.138, -4.328e-9
0.137, -4.295e-9
0.136, -4.251e-9
0.135, -4.209e-9
0.134, -4.172e-9
0.133, -4.133e-9
0.132, -4.095e-9
0.131, -4.053e-9
0.130, -4.006e-9
0.129, -3.966e-9
0.128, -3.924e-9
0.127, -3.881e-9
0.126, -3.836e-9
0.125, -3.789e-9
0.124, -3.742e-9
0.123, -3.699e-9
0.122, -3.651e-9
0.121, -3.602e-9
0.120, -3.548e-9
0.119, -3.495e-9
0.118, -3.455e-9
0.117, -3.407e-9
0.116, -3.351e-9
0.115, -3.291e-9
0.114, -3.230e-9
0.113, -3.181e-9
0.112, -3.126e-9
0.111, -3.059e-9
0.110, -2.996e-9
0.109, -2.932e-9
0.108, -2.874e-9
0.107, -2.810e-9
0.106, -2.737e-9
0.105, -2.669e-9
0.104, -2.597e-9
0.103, -2.526e-9
0.102, -2.453e-9
0.101, -2.378e-9
0.100, -2.302e-9
0.099, -2.225e-9
0.098, -2.142e-9
0.097, -2.064e-9
0.096, -1.976e-9
0.095, -1.885e-9
0.094, -1.799e-9
0.093, -1.707e-9
0.092, -1.618e-9
0.091, -1.521e-9
0.090, -1.417e-9
0.089, -1.321e-9
0.088, -1.220e-9
0.087, -1.116e-9
0.086, -1.015e-9
0.085, -9.001e-10
0.084, -7.876e-10
0.083, -6.785e-10
0.082, -5.590e-10
0.081, -4.441e-10
0.080, -3.146e-10
0.079, -1.880e-10
0.078, -6.594e-11
0.077, 6.372e-11
0.076, 2.020e-10
0.075, 3.332e-10
0.074, 4.759e-10
0.073, 6.115e-10
0.072, 7.517e-10
0.071, 9.029e-10
0.070, 1.046e-9
0.069, 1.203e-9
0.068, 1.346e-9
0.067, 1.495e-9
0.066, 1.655e-9
0.065, 1.813e-9
0.064, 1.975e-9
0.063, 2.135e-9
0.062, 2.289e-9
0.061, 2.456e-9
0.060, 2.620e-9
0.059, 2.790e-9
0.058, 2.957e-9
0.057, 3.117e-9
0.056, 3.294e-9
0.055, 3.470e-9
0.054, 3.638e-9
0.053, 3.812e-9
0.052, 3.983e-9
0.051, 4.158e-9
0.050, 4.341e-9
0.049, 4.500e-9
0.048, 4.672e-9
0.047, 4.843e-9
0.046, 5.011e-9
0.045, 5.187e-9
0.044, 5.352e-9
0.043, 5.511e-9
0.042, 5.683e-9
0.041, 5.845e-9
0.040, 6.007e-9
0.039, 6.174e-9
0.038, 6.325e-9
0.037, 6.481e-9
0.036, 6.629e-9
0.035, 6.774e-9
0.034, 6.926e-9
0.033, 7.062e-9
0.032, 7.199e-9
0.031, 7.338e-9
0.030, 7.468e-9
0.029, 7.601e-9
0.028, 7.717e-9
0.027, 7.838e-9
0.026, 7.963e-9
0.025, 8.077e-9
0.024, 8.181e-9
0.023, 8.278e-9
0.022, 8.366e-9
0.021, 8.471e-9
0.020, 8.568e-9
0.019, 8.651e-9
0.018, 8.735e-9
0.017, 8.802e-9
0.016, 8.878e-9
0.015, 8.949e-9
0.014, 9.008e-9
0.013, 9.067e-9
0.012, 9.119e-9
0.011, 9.169e-9
0.010, 9.220e-9
0.009, 9.258e-9
0.008, 9.292e-9
0.007, 9.326e-9
0.006, 9.352e-9
0.005, 9.385e-9
0.004, 9.407e-9
0.003, 9.418e-9
0.002, 9.433e-9
0.001, 9.445e-9
0.000, 9.489e-9
-0.001, 9.502e-9
-0.002, 9.482e-9
-0.003, 9.474e-9
-0.004, 9.465e-9
-0.005, 9.461e-9
-0.006, 9.455e-9
-0.007, 9.434e-9
-0.008, 9.419e-9
-0.009, 9.407e-9
-0.010, 9.387e-9
-0.011, 9.370e-9
-0.012, 9.344e-9
-0.013, 9.320e-9
-0.014, 9.301e-9
-0.015, 9.270e-9
-0.016, 9.246e-9
-0.017, 9.214e-9
-0.018, 9.178e-9
-0.019, 9.151e-9
-0.020, 9.119e-9
-0.021, 9.085e-9
-0.022, 9.052e-9
-0.023, 9.011e-9
-0.024, 8.980e-9
-0.025, 8.950e-9
-0.026, 8.913e-9
-0.027, 8.874e-9
-0.028, 8.833e-9
-0.029, 8.795e-9
-0.030, 8.762e-9
-0.031, 8.723e-9
-0.032, 8.682e-9
-0.033, 8.640e-9
-0.034, 8.602e-9
-0.035, 8.568e-9
-0.036, 8.528e-9
-0.037, 8.485e-9
-0.038, 8.445e-9
-0.039, 8.407e-9
-0.040, 8.370e-9
-0.041, 8.334e-9
-0.042, 8.291e-9
-0.043, 8.256e-9
-0.044, 8.221e-9
-0.045, 8.187e-9
-0.046, 8.156e-9
-0.047, 8.115e-9
-0.048, 8.080e-9
-0.049, 8.047e-9
-0.050, 8.015e-9
-0.051, 7.987e-9
-0.052, 7.950e-9
-0.053, 7.913e-9
-0.054, 7.882e-9
-0.055, 7.851e-9
-0.056, 7.821e-9
-0.057, 7.791e-9
-0.058, 7.755e-9
-0.059, 7.730e-9
-0.060, 7.705e-9
-0.061, 7.679e-9
-0.062, 7.650e-9
-0.063, 7.617e-9
-0.064, 7.594e-9
-0.065, 7.572e-9
-0.066, 7.544e-9
-0.067, 7.518e-9
-0.068, 7.490e-9
-0.069, 7.468e-9
-0.070, 7.450e-9
-0.071, 7.425e-9
-0.072, 7.405e-9
-0.073, 7.382e-9
-0.074, 7.361e-9
-0.075, 7.347e-9
-0.076, 7.328e-9
-0.077, 7.310e-9
-0.078, 7.291e-9
-0.079, 7.274e-9
-0.080, 7.259e-9
-0.081, 7.246e-9
-0.082, 7.227e-9
-0.083, 7.210e-9
-0.084, 7.200e-9
-0.085, 7.188e-9
-0.086, 7.177e-9
-0.087, 7.162e-9
-0.088, 7.146e-9
-0.089, 7.138e-9
-0.090, 7.130e-9
-0.091, 7.122e-9
-0.092, 7.109e-9
-0.093, 7.097e-9
-0.094, 7.091e-9
-0.095, 7.084e-9
-0.096, 7.079e-9
-0.097, 7.072e-9
-0.098, 7.057e-9
-0.099, 7.055e-9
-0.100, 7.051e-9
-0.101, 7.048e-9
-0.102, 7.044e-9
-0.103, 7.037e-9
-0.104, 7.032e-9
-0.105, 7.035e-9
-0.106, 7.031e-9
-0.107, 7.031e-9
-0.108, 7.024e-9
-0.109, 7.024e-9
-0.110, 7.029e-9
-0.111, 7.029e-9
-0.112, 7.028e-9
-0.113, 7.027e-9
-0.114, 7.027e-9
-0.115, 7.036e-9
-0.116, 7.040e-9
-0.117, 7.040e-9
-0.118, 7.042e-9
-0.119, 7.043e-9
-0.120, 7.051e-9
-0.121, 7.061e-9
-0.122, 7.063e-9
-0.123, 7.068e-9
-0.124, 7.077e-9
-0.125, 7.085e-9
-0.126, 7.096e-9
-0.127, 7.102e-9
-0.128, 7.108e-9
-0.129, 7.119e-9
-0.130, 7.129e-9
-0.131, 7.141e-9
-0.132, 7.148e-9
-0.133, 7.152e-9
-0.134, 7.168e-9
-0.135, 7.180e-9
-0.136, 7.192e-9
-0.137, 7.203e-9
-0.138, 7.209e-9
-0.139, 7.225e-9
-0.140, 7.241e-9
-0.141, 7.256e-9
-0.142, 7.270e-9
-0.143, 7.278e-9
-0.144, 7.297e-9
-0.145, 7.316e-9
-0.146, 7.331e-9
-0.147, 7.347e-9
-0.148, 7.359e-9
-0.149, 7.377e-9
-0.150, 7.401e-9
-0.151, 7.419e-9
-0.152, 7.435e-9
-0.153, 7.454e-9
-0.154, 7.474e-9
-0.155, 7.495e-9
-0.156, 7.518e-9
-0.157, 7.536e-9
-0.158, 7.557e-9
-0.159, 7.578e-9
-0.160, 7.606e-9
-0.161, 7.633e-9
-0.162, 7.651e-9
-0.163, 7.672e-9
-0.164, 7.695e-9
-0.165, 7.722e-9
-0.166, 7.748e-9
-0.167, 7.772e-9
-0.168, 7.792e-9
-0.169, 7.820e-9
-0.170, 7.847e-9
-0.171, 7.877e-9
-0.172, 7.903e-9
-0.173, 7.927e-9
-0.174, 7.957e-9
-0.175, 7.988e-9
-0.176, 8.019e-9
-0.177, 8.048e-9
-0.178, 8.072e-9
-0.179, 8.108e-9
-0.180, 8.142e-9
-0.181, 8.173e-9
-0.182, 8.205e-9
-0.183, 8.229e-9
-0.184, 8.263e-9
-0.185, 8.300e-9
-0.186, 8.334e-9
-0.187, 8.367e-9
-0.188, 8.397e-9
-0.189, 8.433e-9
-0.190, 8.480e-9
-0.191, 8.518e-9
-0.192, 8.559e-9
-0.193, 8.593e-9
-0.194, 8.630e-9
-0.195, 8.674e-9
-0.196, 8.717e-9
-0.197, 8.752e-9
-0.198, 8.792e-9
-0.199, 8.831e-9
