Mar. 16, 2023   08:54:47
Cyclic Voltammetry
File: c:/users/oliverrz/desktop/electrolab/data/2023_03_16\fcmeoh_macros_250_um\electrode2_cv_150mvs_250_um.bin
Data Source:  Experiment
Instrument Model:  CHI760E
Header: CV
Note: 

Init E (V) = -0.2
High E (V) = 0.3
Low E (V) = -0.2
Final E (V) = -0.2
Init P/N = P
Scan Rate (V/s) = 0.15
Segment = 3
Sample Interval (V) = 0.001
Quiet Time (sec) = 2
Sensitivity (A/V) = 1e-7

Results:

Channel 1:
Segment 1:
Ep = 0.111V
ip = -2.136e-8A
Ah = -9.317e-9C

Segment 2:
Ep = 0.048V
ip = 1.945e-8A
Ah = 7.768e-9C

Segment 3:

Potential/V, Current/A

-0.200, 3.049e-9
-0.199, 2.531e-9
-0.198, 2.701e-9
-0.197, 2.501e-9
-0.196, 2.516e-9
-0.195, 2.580e-9
-0.194, 2.366e-9
-0.193, 2.550e-9
-0.192, 2.387e-9
-0.191, 2.405e-9
-0.190, 2.450e-9
-0.189, 2.276e-9
-0.188, 2.458e-9
-0.187, 2.264e-9
-0.186, 2.333e-9
-0.185, 2.360e-9
-0.184, 2.177e-9
-0.183, 2.388e-9
-0.182, 2.183e-9
-0.181, 2.233e-9
-0.180, 2.300e-9
-0.179, 2.087e-9
-0.178, 2.297e-9
-0.177, 2.121e-9
-0.176, 2.162e-9
-0.175, 2.219e-9
-0.174, 2.027e-9
-0.173, 2.232e-9
-0.172, 2.043e-9
-0.171, 2.101e-9
-0.170, 2.151e-9
-0.169, 1.949e-9
-0.168, 2.179e-9
-0.167, 1.978e-9
-0.166, 2.015e-9
-0.165, 2.102e-9
-0.164, 1.890e-9
-0.163, 2.092e-9
-0.162, 1.938e-9
-0.161, 1.954e-9
-0.160, 2.031e-9
-0.159, 1.844e-9
-0.158, 2.031e-9
-0.157, 1.865e-9
-0.156, 1.920e-9
-0.155, 1.962e-9
-0.154, 1.775e-9
-0.153, 1.989e-9
-0.152, 1.804e-9
-0.151, 1.853e-9
-0.150, 1.921e-9
-0.149, 1.719e-9
-0.148, 1.931e-9
-0.147, 1.754e-9
-0.146, 1.802e-9
-0.145, 1.853e-9
-0.144, 1.684e-9
-0.143, 1.877e-9
-0.142, 1.691e-9
-0.141, 1.757e-9
-0.140, 1.804e-9
-0.139, 1.617e-9
-0.138, 1.843e-9
-0.137, 1.638e-9
-0.136, 1.703e-9
-0.135, 1.772e-9
-0.134, 1.563e-9
-0.133, 1.781e-9
-0.132, 1.608e-9
-0.131, 1.649e-9
-0.130, 1.711e-9
-0.129, 1.521e-9
-0.128, 1.731e-9
-0.127, 1.551e-9
-0.126, 1.605e-9
-0.125, 1.667e-9
-0.124, 1.471e-9
-0.123, 1.693e-9
-0.122, 1.507e-9
-0.121, 1.549e-9
-0.120, 1.629e-9
-0.119, 1.426e-9
-0.118, 1.632e-9
-0.117, 1.466e-9
-0.116, 1.505e-9
-0.115, 1.565e-9
-0.114, 1.388e-9
-0.113, 1.579e-9
-0.112, 1.410e-9
-0.111, 1.469e-9
-0.110, 1.517e-9
-0.109, 1.334e-9
-0.108, 1.546e-9
-0.107, 1.354e-9
-0.106, 1.421e-9
-0.105, 1.475e-9
-0.104, 1.291e-9
-0.103, 1.487e-9
-0.102, 1.313e-9
-0.101, 1.366e-9
-0.100, 1.422e-9
-0.099, 1.239e-9
-0.098, 1.445e-9
-0.097, 1.256e-9
-0.096, 1.327e-9
-0.095, 1.373e-9
-0.094, 1.183e-9
-0.093, 1.406e-9
-0.092, 1.210e-9
-0.091, 1.268e-9
-0.090, 1.333e-9
-0.089, 1.125e-9
-0.088, 1.345e-9
-0.087, 1.166e-9
-0.086, 1.206e-9
-0.085, 1.279e-9
-0.084, 1.085e-9
-0.083, 1.286e-9
-0.082, 1.112e-9
-0.081, 1.154e-9
-0.080, 1.218e-9
-0.079, 1.027e-9
-0.078, 1.231e-9
-0.077, 1.046e-9
-0.076, 1.099e-9
-0.075, 1.154e-9
-0.074, 9.713e-10
-0.073, 1.157e-9
-0.072, 9.911e-10
-0.071, 1.039e-9
-0.070, 1.084e-9
-0.069, 9.060e-10
-0.068, 1.100e-9
-0.067, 9.130e-10
-0.066, 9.770e-10
-0.065, 1.015e-9
-0.064, 8.289e-10
-0.063, 1.036e-9
-0.062, 8.285e-10
-0.061, 8.987e-10
-0.060, 9.434e-10
-0.059, 7.441e-10
-0.058, 9.549e-10
-0.057, 7.523e-10
-0.056, 8.118e-10
-0.055, 8.609e-10
-0.054, 6.574e-10
-0.053, 8.639e-10
-0.052, 6.651e-10
-0.051, 7.111e-10
-0.050, 7.611e-10
-0.049, 5.498e-10
-0.048, 7.665e-10
-0.047, 5.617e-10
-0.046, 6.042e-10
-0.045, 6.626e-10
-0.044, 4.437e-10
-0.043, 6.481e-10
-0.042, 4.530e-10
-0.041, 4.832e-10
-0.040, 5.303e-10
-0.039, 3.280e-10
-0.038, 5.110e-10
-0.037, 3.163e-10
-0.036, 3.563e-10
-0.035, 3.908e-10
-0.034, 1.894e-10
-0.033, 3.674e-10
-0.032, 1.712e-10
-0.031, 2.039e-10
-0.030, 2.278e-10
-0.029, 2.492e-11
-0.028, 2.043e-10
-0.027, -1.170e-12
-0.026, 2.802e-11
-0.025, 4.229e-11
-0.024, -1.610e-10
-0.023, 1.598e-11
-0.022, -2.143e-10
-0.021, -1.692e-10
-0.020, -1.617e-10
-0.019, -3.851e-10
-0.018, -2.060e-10
-0.017, -4.378e-10
-0.016, -4.114e-10
-0.015, -3.997e-10
-0.014, -6.395e-10
-0.013, -4.723e-10
-0.012, -7.011e-10
-0.011, -6.956e-10
-0.010, -6.936e-10
-0.009, -9.251e-10
-0.008, -7.783e-10
-0.007, -1.011e-9
-0.006, -1.019e-9
-0.005, -1.021e-9
-0.004, -1.266e-9
-0.003, -1.125e-9
-0.002, -1.380e-9
-0.001, -1.397e-9
-0.000, -1.470e-9
0.001, -1.686e-9
0.002, -1.562e-9
0.003, -1.811e-9
0.004, -1.843e-9
0.005, -1.888e-9
0.006, -2.140e-9
0.007, -2.046e-9
0.008, -2.315e-9
0.009, -2.350e-9
0.010, -2.415e-9
0.011, -2.689e-9
0.012, -2.603e-9
0.013, -2.900e-9
0.014, -2.954e-9
0.015, -3.032e-9
0.016, -3.331e-9
0.017, -3.257e-9
0.018, -3.573e-9
0.019, -3.638e-9
0.020, -3.742e-9
0.021, -4.052e-9
0.022, -4.001e-9
0.023, -4.352e-9
0.024, -4.428e-9
0.025, -4.564e-9
0.026, -4.905e-9
0.027, -4.857e-9
0.028, -5.241e-9
0.029, -5.342e-9
0.030, -5.475e-9
0.031, -5.869e-9
0.032, -5.833e-9
0.033, -6.216e-9
0.034, -6.379e-9
0.035, -6.524e-9
0.036, -6.922e-9
0.037, -6.941e-9
0.038, -7.335e-9
0.039, -7.522e-9
0.040, -7.696e-9
0.041, -8.103e-9
0.042, -8.156e-9
0.043, -8.572e-9
0.044, -8.756e-9
0.045, -8.966e-9
0.046, -9.398e-9
0.047, -9.460e-9
0.048, -9.882e-9
0.049, -1.010e-8
0.050, -1.033e-8
0.051, -1.078e-8
0.052, -1.086e-8
0.053, -1.130e-8
0.054, -1.152e-8
0.055, -1.178e-8
0.056, -1.219e-8
0.057, -1.230e-8
0.058, -1.277e-8
0.059, -1.298e-8
0.060, -1.324e-8
0.061, -1.368e-8
0.062, -1.375e-8
0.063, -1.424e-8
0.064, -1.445e-8
0.065, -1.469e-8
0.066, -1.515e-8
0.067, -1.522e-8
0.068, -1.568e-8
0.069, -1.590e-8
0.070, -1.612e-8
0.071, -1.655e-8
0.072, -1.661e-8
0.073, -1.705e-8
0.074, -1.723e-8
0.075, -1.744e-8
0.076, -1.786e-8
0.077, -1.789e-8
0.078, -1.830e-8
0.079, -1.848e-8
0.080, -1.860e-8
0.081, -1.902e-8
0.082, -1.903e-8
0.083, -1.935e-8
0.084, -1.953e-8
0.085, -1.964e-8
0.086, -1.997e-8
0.087, -1.997e-8
0.088, -2.028e-8
0.089, -2.036e-8
0.090, -2.050e-8
0.091, -2.076e-8
0.092, -2.070e-8
0.093, -2.099e-8
0.094, -2.102e-8
0.095, -2.110e-8
0.096, -2.133e-8
0.097, -2.123e-8
0.098, -2.148e-8
0.099, -2.147e-8
0.100, -2.151e-8
0.101, -2.171e-8
0.102, -2.157e-8
0.103, -2.181e-8
0.104, -2.174e-8
0.105, -2.171e-8
0.106, -2.191e-8
0.107, -2.171e-8
0.108, -2.189e-8
0.109, -2.181e-8
0.110, -2.176e-8
0.111, -2.192e-8
0.112, -2.168e-8
0.113, -2.184e-8
0.114, -2.175e-8
0.115, -2.166e-8
0.116, -2.179e-8
0.117, -2.154e-8
0.118, -2.166e-8
0.119, -2.155e-8
0.120, -2.143e-8
0.121, -2.154e-8
0.122, -2.128e-8
0.123, -2.138e-8
0.124, -2.123e-8
0.125, -2.112e-8
0.126, -2.120e-8
0.127, -2.094e-8
0.128, -2.103e-8
0.129, -2.086e-8
0.130, -2.076e-8
0.131, -2.081e-8
0.132, -2.053e-8
0.133, -2.062e-8
0.134, -2.043e-8
0.135, -2.033e-8
0.136, -2.038e-8
0.137, -2.008e-8
0.138, -2.019e-8
0.139, -2.000e-8
0.140, -1.987e-8
0.141, -1.995e-8
0.142, -1.963e-8
0.143, -1.973e-8
0.144, -1.955e-8
0.145, -1.940e-8
0.146, -1.949e-8
0.147, -1.918e-8
0.148, -1.926e-8
0.149, -1.909e-8
0.150, -1.896e-8
0.151, -1.904e-8
0.152, -1.872e-8
0.153, -1.883e-8
0.154, -1.865e-8
0.155, -1.852e-8
0.156, -1.860e-8
0.157, -1.828e-8
0.158, -1.839e-8
0.159, -1.823e-8
0.160, -1.807e-8
0.161, -1.817e-8
0.162, -1.788e-8
0.163, -1.796e-8
0.164, -1.782e-8
0.165, -1.769e-8
0.166, -1.776e-8
0.167, -1.749e-8
0.168, -1.758e-8
0.169, -1.741e-8
0.170, -1.731e-8
0.171, -1.739e-8
0.172, -1.710e-8
0.173, -1.722e-8
0.174, -1.705e-8
0.175, -1.695e-8
0.176, -1.703e-8
0.177, -1.676e-8
0.178, -1.688e-8
0.179, -1.672e-8
0.180, -1.662e-8
0.181, -1.671e-8
0.182, -1.643e-8
0.183, -1.657e-8
0.184, -1.640e-8
0.185, -1.630e-8
0.186, -1.642e-8
0.187, -1.613e-8
0.188, -1.626e-8
0.189, -1.612e-8
0.190, -1.601e-8
0.191, -1.614e-8
0.192, -1.586e-8
0.193, -1.598e-8
0.194, -1.586e-8
0.195, -1.575e-8
0.196, -1.586e-8
0.197, -1.561e-8
0.198, -1.573e-8
0.199, -1.561e-8
0.200, -1.551e-8
0.201, -1.563e-8
0.202, -1.537e-8
0.203, -1.551e-8
0.204, -1.538e-8
0.205, -1.530e-8
0.206, -1.541e-8
0.207, -1.515e-8
0.208, -1.529e-8
0.209, -1.517e-8
0.210, -1.508e-8
0.211, -1.520e-8
0.212, -1.496e-8
0.213, -1.509e-8
0.214, -1.497e-8
0.215, -1.491e-8
0.216, -1.500e-8
0.217, -1.477e-8
0.218, -1.493e-8
0.219, -1.479e-8
0.220, -1.472e-8
0.221, -1.485e-8
0.222, -1.459e-8
0.223, -1.476e-8
0.224, -1.464e-8
0.225, -1.455e-8
0.226, -1.471e-8
0.227, -1.445e-8
0.228, -1.460e-8
0.229, -1.449e-8
0.230, -1.442e-8
0.231, -1.455e-8
0.232, -1.431e-8
0.233, -1.447e-8
0.234, -1.435e-8
0.235, -1.429e-8
0.236, -1.443e-8
0.237, -1.418e-8
0.238, -1.435e-8
0.239, -1.424e-8
0.240, -1.415e-8
0.241, -1.430e-8
0.242, -1.407e-8
0.243, -1.423e-8
0.244, -1.412e-8
0.245, -1.406e-8
0.246, -1.419e-8
0.247, -1.397e-8
0.248, -1.412e-8
0.249, -1.401e-8
0.250, -1.397e-8
0.251, -1.410e-8
0.252, -1.386e-8
0.253, -1.403e-8
0.254, -1.392e-8
0.255, -1.387e-8
0.256, -1.401e-8
0.257, -1.378e-8
0.258, -1.395e-8
0.259, -1.384e-8
0.260, -1.379e-8
0.261, -1.393e-8
0.262, -1.370e-8
0.263, -1.388e-8
0.264, -1.376e-8
0.265, -1.372e-8
0.266, -1.387e-8
0.267, -1.362e-8
0.268, -1.381e-8
0.269, -1.370e-8
0.270, -1.365e-8
0.271, -1.381e-8
0.272, -1.356e-8
0.273, -1.374e-8
0.274, -1.365e-8
0.275, -1.359e-8
0.276, -1.375e-8
0.277, -1.353e-8
0.278, -1.369e-8
0.279, -1.360e-8
0.280, -1.355e-8
0.281, -1.370e-8
0.282, -1.349e-8
0.283, -1.366e-8
0.284, -1.355e-8
0.285, -1.352e-8
0.286, -1.367e-8
0.287, -1.344e-8
0.288, -1.362e-8
0.289, -1.353e-8
0.290, -1.348e-8
0.291, -1.363e-8
0.292, -1.342e-8
0.293, -1.359e-8
0.294, -1.350e-8
0.295, -1.347e-8
0.296, -1.360e-8
0.297, -1.339e-8
0.298, -1.358e-8
0.299, -1.347e-8
0.300, -1.193e-8
0.299, -1.122e-8
0.298, -1.079e-8
0.297, -1.084e-8
0.296, -1.065e-8
0.295, -1.049e-8
0.294, -1.057e-8
0.293, -1.028e-8
0.292, -1.037e-8
0.291, -1.023e-8
0.290, -1.012e-8
0.289, -1.020e-8
0.288, -9.947e-9
0.287, -1.007e-8
0.286, -9.918e-9
0.285, -9.837e-9
0.284, -9.941e-9
0.283, -9.678e-9
0.282, -9.825e-9
0.281, -9.680e-9
0.280, -9.610e-9
0.279, -9.723e-9
0.278, -9.469e-9
0.277, -9.617e-9
0.276, -9.480e-9
0.275, -9.417e-9
0.274, -9.535e-9
0.273, -9.279e-9
0.272, -9.446e-9
0.271, -9.308e-9
0.270, -9.240e-9
0.269, -9.372e-9
0.268, -9.108e-9
0.267, -9.279e-9
0.266, -9.159e-9
0.265, -9.080e-9
0.264, -9.220e-9
0.263, -8.969e-9
0.262, -9.126e-9
0.261, -9.021e-9
0.260, -8.938e-9
0.259, -9.075e-9
0.258, -8.849e-9
0.257, -8.984e-9
0.256, -8.875e-9
0.255, -8.819e-9
0.254, -8.939e-9
0.253, -8.700e-9
0.252, -8.872e-9
0.251, -8.741e-9
0.250, -8.694e-9
0.249, -8.818e-9
0.248, -8.569e-9
0.247, -8.751e-9
0.246, -8.627e-9
0.245, -8.559e-9
0.244, -8.695e-9
0.243, -8.462e-9
0.242, -8.619e-9
0.241, -8.501e-9
0.240, -8.448e-9
0.239, -8.571e-9
0.238, -8.345e-9
0.237, -8.511e-9
0.236, -8.373e-9
0.235, -8.343e-9
0.234, -8.467e-9
0.233, -8.208e-9
0.232, -8.397e-9
0.231, -8.266e-9
0.230, -8.206e-9
0.229, -8.351e-9
0.228, -8.093e-9
0.227, -8.275e-9
0.226, -8.158e-9
0.225, -8.088e-9
0.224, -8.226e-9
0.223, -7.990e-9
0.222, -8.152e-9
0.221, -8.032e-9
0.220, -7.969e-9
0.219, -8.114e-9
0.218, -7.862e-9
0.217, -8.020e-9
0.216, -7.912e-9
0.215, -7.845e-9
0.214, -7.979e-9
0.213, -7.744e-9
0.212, -7.892e-9
0.211, -7.777e-9
0.210, -7.731e-9
0.209, -7.833e-9
0.208, -7.613e-9
0.207, -7.770e-9
0.206, -7.638e-9
0.205, -7.584e-9
0.204, -7.694e-9
0.203, -7.463e-9
0.202, -7.632e-9
0.201, -7.488e-9
0.200, -7.436e-9
0.199, -7.563e-9
0.198, -7.299e-9
0.197, -7.471e-9
0.196, -7.337e-9
0.195, -7.271e-9
0.194, -7.398e-9
0.193, -7.136e-9
0.192, -7.295e-9
0.191, -7.162e-9
0.190, -7.098e-9
0.189, -7.207e-9
0.188, -6.945e-9
0.187, -7.117e-9
0.186, -6.964e-9
0.185, -6.896e-9
0.184, -7.016e-9
0.183, -6.745e-9
0.182, -6.896e-9
0.181, -6.763e-9
0.180, -6.662e-9
0.179, -6.791e-9
0.178, -6.527e-9
0.177, -6.648e-9
0.176, -6.520e-9
0.175, -6.439e-9
0.174, -6.522e-9
0.173, -6.271e-9
0.172, -6.392e-9
0.171, -6.240e-9
0.170, -6.155e-9
0.169, -6.236e-9
0.168, -5.965e-9
0.167, -6.088e-9
0.166, -5.929e-9
0.165, -5.828e-9
0.164, -5.909e-9
0.163, -5.627e-9
0.162, -5.736e-9
0.161, -5.561e-9
0.160, -5.465e-9
0.159, -5.524e-9
0.158, -5.229e-9
0.157, -5.338e-9
0.156, -5.137e-9
0.155, -5.035e-9
0.154, -5.086e-9
0.153, -4.766e-9
0.152, -4.871e-9
0.151, -4.668e-9
0.150, -4.535e-9
0.149, -4.579e-9
0.148, -4.242e-9
0.147, -4.338e-9
0.146, -4.112e-9
0.145, -3.960e-9
0.144, -3.995e-9
0.143, -3.646e-9
0.142, -3.712e-9
0.141, -3.474e-9
0.140, -3.314e-9
0.139, -3.329e-9
0.138, -2.961e-9
0.137, -2.995e-9
0.136, -2.756e-9
0.135, -2.556e-9
0.134, -2.548e-9
0.133, -2.180e-9
0.132, -2.174e-9
0.131, -1.922e-9
0.130, -1.709e-9
0.129, -1.659e-9
0.128, -1.278e-9
0.127, -1.261e-9
0.126, -9.567e-10
0.125, -7.535e-10
0.124, -6.631e-10
0.123, -2.616e-10
0.122, -2.448e-10
0.121, 1.090e-10
0.120, 3.332e-10
0.119, 4.272e-10
0.118, 8.790e-10
0.117, 9.307e-10
0.116, 1.278e-9
0.115, 1.544e-9
0.114, 1.655e-9
0.113, 2.118e-9
0.112, 2.191e-9
0.111, 2.561e-9
0.110, 2.832e-9
0.109, 2.971e-9
0.108, 3.458e-9
0.107, 3.528e-9
0.106, 3.924e-9
0.105, 4.222e-9
0.104, 4.353e-9
0.103, 4.873e-9
0.102, 4.973e-9
0.101, 5.343e-9
0.100, 5.684e-9
0.099, 5.808e-9
0.098, 6.306e-9
0.097, 6.450e-9
0.096, 6.804e-9
0.095, 7.131e-9
0.094, 7.306e-9
0.093, 7.769e-9
0.092, 7.906e-9
0.091, 8.286e-9
0.090, 8.591e-9
0.089, 8.757e-9
0.088, 9.240e-9
0.087, 9.332e-9
0.086, 9.713e-9
0.085, 1.000e-8
0.084, 1.015e-8
0.083, 1.058e-8
0.082, 1.069e-8
0.081, 1.105e-8
0.080, 1.129e-8
0.079, 1.143e-8
0.078, 1.185e-8
0.077, 1.190e-8
0.076, 1.226e-8
0.075, 1.245e-8
0.074, 1.254e-8
0.073, 1.296e-8
0.072, 1.295e-8
0.071, 1.326e-8
0.070, 1.345e-8
0.069, 1.348e-8
0.068, 1.388e-8
0.067, 1.383e-8
0.066, 1.409e-8
0.065, 1.425e-8
0.064, 1.426e-8
0.063, 1.457e-8
0.062, 1.451e-8
0.061, 1.471e-8
0.060, 1.485e-8
0.059, 1.479e-8
0.058, 1.508e-8
0.057, 1.498e-8
0.056, 1.514e-8
0.055, 1.524e-8
0.054, 1.514e-8
0.053, 1.539e-8
0.052, 1.527e-8
0.051, 1.539e-8
0.050, 1.543e-8
0.049, 1.533e-8
0.048, 1.553e-8
0.047, 1.536e-8
0.046, 1.547e-8
0.045, 1.546e-8
0.044, 1.533e-8
0.043, 1.551e-8
0.042, 1.531e-8
0.041, 1.540e-8
0.040, 1.537e-8
0.039, 1.521e-8
0.038, 1.537e-8
0.037, 1.512e-8
0.036, 1.521e-8
0.035, 1.514e-8
0.034, 1.497e-8
0.033, 1.512e-8
0.032, 1.485e-8
0.031, 1.492e-8
0.030, 1.485e-8
0.029, 1.465e-8
0.028, 1.480e-8
0.027, 1.453e-8
0.026, 1.457e-8
0.025, 1.451e-8
0.024, 1.429e-8
0.023, 1.441e-8
0.022, 1.415e-8
0.021, 1.417e-8
0.020, 1.412e-8
0.019, 1.387e-8
0.018, 1.401e-8
0.017, 1.374e-8
0.016, 1.375e-8
0.015, 1.368e-8
0.014, 1.346e-8
0.013, 1.358e-8
0.012, 1.331e-8
0.011, 1.332e-8
0.010, 1.326e-8
0.009, 1.304e-8
0.008, 1.315e-8
0.007, 1.289e-8
0.006, 1.290e-8
0.005, 1.283e-8
0.004, 1.262e-8
0.003, 1.273e-8
0.002, 1.245e-8
0.001, 1.250e-8
0.000, 1.247e-8
-0.001, 1.222e-8
-0.002, 1.234e-8
-0.003, 1.206e-8
-0.004, 1.211e-8
-0.005, 1.204e-8
-0.006, 1.181e-8
-0.007, 1.196e-8
-0.008, 1.169e-8
-0.009, 1.171e-8
-0.010, 1.166e-8
-0.011, 1.145e-8
-0.012, 1.158e-8
-0.013, 1.132e-8
-0.014, 1.136e-8
-0.015, 1.131e-8
-0.016, 1.110e-8
-0.017, 1.124e-8
-0.018, 1.098e-8
-0.019, 1.103e-8
-0.020, 1.098e-8
-0.021, 1.077e-8
-0.022, 1.093e-8
-0.023, 1.067e-8
-0.024, 1.071e-8
-0.025, 1.069e-8
-0.026, 1.048e-8
-0.027, 1.062e-8
-0.028, 1.039e-8
-0.029, 1.043e-8
-0.030, 1.039e-8
-0.031, 1.022e-8
-0.032, 1.035e-8
-0.033, 1.010e-8
-0.034, 1.019e-8
-0.035, 1.013e-8
-0.036, 9.946e-9
-0.037, 1.011e-8
-0.038, 9.860e-9
-0.039, 9.930e-9
-0.040, 9.901e-9
-0.041, 9.706e-9
-0.042, 9.879e-9
-0.043, 9.643e-9
-0.044, 9.711e-9
-0.045, 9.668e-9
-0.046, 9.505e-9
-0.047, 9.668e-9
-0.048, 9.423e-9
-0.049, 9.513e-9
-0.050, 9.476e-9
-0.051, 9.299e-9
-0.052, 9.493e-9
-0.053, 9.237e-9
-0.054, 9.314e-9
-0.055, 9.311e-9
-0.056, 9.116e-9
-0.057, 9.298e-9
-0.058, 9.075e-9
-0.059, 9.148e-9
-0.060, 9.133e-9
-0.061, 8.960e-9
-0.062, 9.132e-9
-0.063, 8.915e-9
-0.064, 8.999e-9
-0.065, 8.974e-9
-0.066, 8.812e-9
-0.067, 8.993e-9
-0.068, 8.774e-9
-0.069, 8.850e-9
-0.070, 8.836e-9
-0.071, 8.679e-9
-0.072, 8.851e-9
-0.073, 8.633e-9
-0.074, 8.726e-9
-0.075, 8.707e-9
-0.076, 8.559e-9
-0.077, 8.732e-9
-0.078, 8.505e-9
-0.079, 8.616e-9
-0.080, 8.587e-9
-0.081, 8.422e-9
-0.082, 8.630e-9
-0.083, 8.387e-9
-0.084, 8.506e-9
-0.085, 8.480e-9
-0.086, 8.317e-9
-0.087, 8.527e-9
-0.088, 8.297e-9
-0.089, 8.399e-9
-0.090, 8.383e-9
-0.091, 8.232e-9
-0.092, 8.426e-9
-0.093, 8.199e-9
-0.094, 8.310e-9
-0.095, 8.301e-9
-0.096, 8.138e-9
-0.097, 8.342e-9
-0.098, 8.126e-9
-0.099, 8.223e-9
-0.100, 8.231e-9
-0.101, 8.061e-9
-0.102, 8.262e-9
-0.103, 8.060e-9
-0.104, 8.149e-9
-0.105, 8.145e-9
-0.106, 8.004e-9
-0.107, 8.188e-9
-0.108, 7.986e-9
-0.109, 8.085e-9
-0.110, 8.075e-9
-0.111, 7.936e-9
-0.112, 8.130e-9
-0.113, 7.913e-9
-0.114, 8.029e-9
-0.115, 8.021e-9
-0.116, 7.877e-9
-0.117, 8.073e-9
-0.118, 7.859e-9
-0.119, 7.972e-9
-0.120, 7.966e-9
-0.121, 7.825e-9
-0.122, 8.017e-9
-0.123, 7.810e-9
-0.124, 7.928e-9
-0.125, 7.901e-9
-0.126, 7.774e-9
-0.127, 7.978e-9
-0.128, 7.758e-9
-0.129, 7.879e-9
-0.130, 7.875e-9
-0.131, 7.718e-9
-0.132, 7.944e-9
-0.133, 7.717e-9
-0.134, 7.818e-9
-0.135, 7.845e-9
-0.136, 7.684e-9
-0.137, 7.885e-9
-0.138, 7.695e-9
-0.139, 7.794e-9
-0.140, 7.793e-9
-0.141, 7.665e-9
-0.142, 7.850e-9
-0.143, 7.653e-9
-0.144, 7.767e-9
-0.145, 7.763e-9
-0.146, 7.618e-9
-0.147, 7.829e-9
-0.148, 7.625e-9
-0.149, 7.724e-9
-0.150, 7.742e-9
-0.151, 7.595e-9
-0.152, 7.792e-9
-0.153, 7.606e-9
-0.154, 7.710e-9
-0.155, 7.696e-9
-0.156, 7.587e-9
-0.157, 7.770e-9
-0.158, 7.564e-9
-0.159, 7.705e-9
-0.160, 7.674e-9
-0.161, 7.546e-9
-0.162, 7.764e-9
-0.163, 7.536e-9
-0.164, 7.668e-9
-0.165, 7.673e-9
-0.166, 7.525e-9
-0.167, 7.739e-9
-0.168, 7.538e-9
-0.169, 7.645e-9
-0.170, 7.647e-9
-0.171, 7.517e-9
-0.172, 7.724e-9
-0.173, 7.508e-9
-0.174, 7.642e-9
-0.175, 7.637e-9
-0.176, 7.496e-9
-0.177, 7.714e-9
-0.178, 7.509e-9
-0.179, 7.620e-9
-0.180, 7.637e-9
-0.181, 7.486e-9
-0.182, 7.696e-9
-0.183, 7.506e-9
-0.184, 7.611e-9
-0.185, 7.616e-9
-0.186, 7.487e-9
-0.187, 7.692e-9
-0.188, 7.496e-9
-0.189, 7.610e-9
-0.190, 7.607e-9
-0.191, 7.487e-9
-0.192, 7.691e-9
-0.193, 7.483e-9
-0.194, 7.613e-9
-0.195, 7.608e-9
-0.196, 7.483e-9
-0.197, 7.686e-9
-0.198, 7.485e-9
-0.199, 7.618e-9
