Mar. 16, 2023   08:56:56
Cyclic Voltammetry
File: c:/users/oliverrz/desktop/electrolab/data/2023_03_16\fcmeoh_macros_250_um\electrode4_cv_50mvs_250_um.bin
Data Source:  Experiment
Instrument Model:  CHI760E
Header: CV
Note: 

Init E (V) = -0.2
High E (V) = 0.3
Low E (V) = -0.2
Final E (V) = -0.2
Init P/N = P
Scan Rate (V/s) = 0.05
Segment = 3
Sample Interval (V) = 0.001
Quiet Time (sec) = 2
Sensitivity (A/V) = 1e-7

Results:

Channel 1:
Segment 1:
Ep = 0.141V
ip = -1.371e-8A
Ah = -1.816e-8C

Segment 2:
Ep = 0.056V
ip = 1.143e-8A
Ah = 1.551e-8C

Segment 3:

Potential/V, Current/A

-0.200, 3.082e-9
-0.199, 2.801e-9
-0.198, 2.731e-9
-0.197, 2.694e-9
-0.196, 2.661e-9
-0.195, 2.630e-9
-0.194, 2.595e-9
-0.193, 2.564e-9
-0.192, 2.538e-9
-0.191, 2.510e-9
-0.190, 2.484e-9
-0.189, 2.455e-9
-0.188, 2.425e-9
-0.187, 2.404e-9
-0.186, 2.379e-9
-0.185, 2.354e-9
-0.184, 2.328e-9
-0.183, 2.302e-9
-0.182, 2.284e-9
-0.181, 2.263e-9
-0.180, 2.239e-9
-0.179, 2.215e-9
-0.178, 2.190e-9
-0.177, 2.172e-9
-0.176, 2.154e-9
-0.175, 2.130e-9
-0.174, 2.107e-9
-0.173, 2.084e-9
-0.172, 2.068e-9
-0.171, 2.052e-9
-0.170, 2.032e-9
-0.169, 2.011e-9
-0.168, 1.993e-9
-0.167, 1.975e-9
-0.166, 1.960e-9
-0.165, 1.943e-9
-0.164, 1.920e-9
-0.163, 1.904e-9
-0.162, 1.889e-9
-0.161, 1.877e-9
-0.160, 1.861e-9
-0.159, 1.840e-9
-0.158, 1.823e-9
-0.157, 1.812e-9
-0.156, 1.798e-9
-0.155, 1.786e-9
-0.154, 1.765e-9
-0.153, 1.752e-9
-0.152, 1.742e-9
-0.151, 1.730e-9
-0.150, 1.719e-9
-0.149, 1.701e-9
-0.148, 1.686e-9
-0.147, 1.678e-9
-0.146, 1.667e-9
-0.145, 1.654e-9
-0.144, 1.641e-9
-0.143, 1.626e-9
-0.142, 1.618e-9
-0.141, 1.607e-9
-0.140, 1.596e-9
-0.139, 1.584e-9
-0.138, 1.569e-9
-0.137, 1.564e-9
-0.136, 1.557e-9
-0.135, 1.544e-9
-0.134, 1.533e-9
-0.133, 1.522e-9
-0.132, 1.515e-9
-0.131, 1.509e-9
-0.130, 1.500e-9
-0.129, 1.488e-9
-0.128, 1.477e-9
-0.127, 1.472e-9
-0.126, 1.466e-9
-0.125, 1.458e-9
-0.124, 1.448e-9
-0.123, 1.439e-9
-0.122, 1.432e-9
-0.121, 1.429e-9
-0.120, 1.420e-9
-0.119, 1.410e-9
-0.118, 1.403e-9
-0.117, 1.399e-9
-0.116, 1.392e-9
-0.115, 1.387e-9
-0.114, 1.375e-9
-0.113, 1.366e-9
-0.112, 1.366e-9
-0.111, 1.361e-9
-0.110, 1.357e-9
-0.109, 1.346e-9
-0.108, 1.338e-9
-0.107, 1.337e-9
-0.106, 1.333e-9
-0.105, 1.328e-9
-0.104, 1.320e-9
-0.103, 1.311e-9
-0.102, 1.308e-9
-0.101, 1.306e-9
-0.100, 1.301e-9
-0.099, 1.297e-9
-0.098, 1.288e-9
-0.097, 1.286e-9
-0.096, 1.287e-9
-0.095, 1.279e-9
-0.094, 1.273e-9
-0.093, 1.268e-9
-0.092, 1.266e-9
-0.091, 1.264e-9
-0.090, 1.259e-9
-0.089, 1.251e-9
-0.088, 1.246e-9
-0.087, 1.246e-9
-0.086, 1.244e-9
-0.085, 1.240e-9
-0.084, 1.231e-9
-0.083, 1.227e-9
-0.082, 1.226e-9
-0.081, 1.223e-9
-0.080, 1.223e-9
-0.079, 1.212e-9
-0.078, 1.208e-9
-0.077, 1.205e-9
-0.076, 1.202e-9
-0.075, 1.199e-9
-0.074, 1.191e-9
-0.073, 1.186e-9
-0.072, 1.185e-9
-0.071, 1.182e-9
-0.070, 1.180e-9
-0.069, 1.170e-9
-0.068, 1.164e-9
-0.067, 1.166e-9
-0.066, 1.161e-9
-0.065, 1.157e-9
-0.064, 1.149e-9
-0.063, 1.141e-9
-0.062, 1.142e-9
-0.061, 1.139e-9
-0.060, 1.133e-9
-0.059, 1.126e-9
-0.058, 1.118e-9
-0.057, 1.117e-9
-0.056, 1.116e-9
-0.055, 1.108e-9
-0.054, 1.100e-9
-0.053, 1.095e-9
-0.052, 1.090e-9
-0.051, 1.088e-9
-0.050, 1.081e-9
-0.049, 1.071e-9
-0.048, 1.066e-9
-0.047, 1.062e-9
-0.046, 1.059e-9
-0.045, 1.053e-9
-0.044, 1.041e-9
-0.043, 1.036e-9
-0.042, 1.031e-9
-0.041, 1.026e-9
-0.040, 1.021e-9
-0.039, 1.009e-9
-0.038, 1.000e-9
-0.037, 9.967e-10
-0.036, 9.908e-10
-0.035, 9.853e-10
-0.034, 9.728e-10
-0.033, 9.648e-10
-0.032, 9.600e-10
-0.031, 9.528e-10
-0.030, 9.447e-10
-0.029, 9.320e-10
-0.028, 9.199e-10
-0.027, 9.161e-10
-0.026, 9.054e-10
-0.025, 8.944e-10
-0.024, 8.810e-10
-0.023, 8.682e-10
-0.022, 8.634e-10
-0.021, 8.535e-10
-0.020, 8.398e-10
-0.019, 8.274e-10
-0.018, 8.120e-10
-0.017, 8.031e-10
-0.016, 7.938e-10
-0.015, 7.776e-10
-0.014, 7.623e-10
-0.013, 7.490e-10
-0.012, 7.345e-10
-0.011, 7.249e-10
-0.010, 7.098e-10
-0.009, 6.915e-10
-0.008, 6.779e-10
-0.007, 6.597e-10
-0.006, 6.470e-10
-0.005, 6.278e-10
-0.004, 6.025e-10
-0.003, 5.836e-10
-0.002, 5.653e-10
-0.001, 5.445e-10
-0.000, 5.080e-10
0.001, 4.913e-10
0.002, 4.759e-10
0.003, 4.558e-10
0.004, 4.349e-10
0.005, 4.138e-10
0.006, 3.828e-10
0.007, 3.568e-10
0.008, 3.345e-10
0.009, 3.089e-10
0.010, 2.806e-10
0.011, 2.477e-10
0.012, 2.156e-10
0.013, 1.888e-10
0.014, 1.569e-10
0.015, 1.240e-10
0.016, 8.784e-11
0.017, 4.983e-11
0.018, 1.892e-11
0.019, -1.731e-11
0.020, -5.747e-11
0.021, -9.695e-11
0.022, -1.422e-10
0.023, -1.815e-10
0.024, -2.236e-10
0.025, -2.732e-10
0.026, -3.222e-10
0.027, -3.733e-10
0.028, -4.216e-10
0.029, -4.690e-10
0.030, -5.242e-10
0.031, -5.813e-10
0.032, -6.411e-10
0.033, -7.005e-10
0.034, -7.560e-10
0.035, -8.192e-10
0.036, -8.904e-10
0.037, -9.557e-10
0.038, -1.025e-9
0.039, -1.093e-9
0.040, -1.164e-9
0.041, -1.248e-9
0.042, -1.322e-9
0.043, -1.400e-9
0.044, -1.482e-9
0.045, -1.566e-9
0.046, -1.663e-9
0.047, -1.753e-9
0.048, -1.841e-9
0.049, -1.938e-9
0.050, -2.035e-9
0.051, -2.145e-9
0.052, -2.250e-9
0.053, -2.353e-9
0.054, -2.459e-9
0.055, -2.573e-9
0.056, -2.691e-9
0.057, -2.813e-9
0.058, -2.929e-9
0.059, -3.053e-9
0.060, -3.185e-9
0.061, -3.317e-9
0.062, -3.450e-9
0.063, -3.577e-9
0.064, -3.719e-9
0.065, -3.864e-9
0.066, -4.010e-9
0.067, -4.160e-9
0.068, -4.312e-9
0.069, -4.461e-9
0.070, -4.623e-9
0.071, -4.783e-9
0.072, -4.944e-9
0.073, -5.112e-9
0.074, -5.272e-9
0.075, -5.443e-9
0.076, -5.620e-9
0.077, -5.796e-9
0.078, -5.973e-9
0.079, -6.145e-9
0.080, -6.320e-9
0.081, -6.511e-9
0.082, -6.691e-9
0.083, -6.875e-9
0.084, -7.054e-9
0.085, -7.242e-9
0.086, -7.442e-9
0.087, -7.624e-9
0.088, -7.810e-9
0.089, -8.000e-9
0.090, -8.184e-9
0.091, -8.377e-9
0.092, -8.562e-9
0.093, -8.741e-9
0.094, -8.926e-9
0.095, -9.107e-9
0.096, -9.288e-9
0.097, -9.472e-9
0.098, -9.639e-9
0.099, -9.813e-9
0.100, -9.993e-9
0.101, -1.016e-8
0.102, -1.033e-8
0.103, -1.050e-8
0.104, -1.065e-8
0.105, -1.081e-8
0.106, -1.096e-8
0.107, -1.111e-8
0.108, -1.126e-8
0.109, -1.139e-8
0.110, -1.153e-8
0.111, -1.166e-8
0.112, -1.179e-8
0.113, -1.191e-8
0.114, -1.202e-8
0.115, -1.214e-8
0.116, -1.225e-8
0.117, -1.235e-8
0.118, -1.245e-8
0.119, -1.254e-8
0.120, -1.262e-8
0.121, -1.271e-8
0.122, -1.278e-8
0.123, -1.286e-8
0.124, -1.293e-8
0.125, -1.298e-8
0.126, -1.305e-8
0.127, -1.310e-8
0.128, -1.315e-8
0.129, -1.319e-8
0.130, -1.323e-8
0.131, -1.327e-8
0.132, -1.330e-8
0.133, -1.332e-8
0.134, -1.334e-8
0.135, -1.336e-8
0.136, -1.338e-8
0.137, -1.339e-8
0.138, -1.339e-8
0.139, -1.339e-8
0.140, -1.340e-8
0.141, -1.340e-8
0.142, -1.340e-8
0.143, -1.338e-8
0.144, -1.337e-8
0.145, -1.336e-8
0.146, -1.334e-8
0.147, -1.333e-8
0.148, -1.330e-8
0.149, -1.328e-8
0.150, -1.325e-8
0.151, -1.323e-8
0.152, -1.320e-8
0.153, -1.317e-8
0.154, -1.314e-8
0.155, -1.311e-8
0.156, -1.308e-8
0.157, -1.304e-8
0.158, -1.300e-8
0.159, -1.296e-8
0.160, -1.293e-8
0.161, -1.289e-8
0.162, -1.285e-8
0.163, -1.281e-8
0.164, -1.277e-8
0.165, -1.272e-8
0.166, -1.269e-8
0.167, -1.265e-8
0.168, -1.260e-8
0.169, -1.256e-8
0.170, -1.252e-8
0.171, -1.248e-8
0.172, -1.244e-8
0.173, -1.239e-8
0.174, -1.235e-8
0.175, -1.230e-8
0.176, -1.226e-8
0.177, -1.222e-8
0.178, -1.217e-8
0.179, -1.214e-8
0.180, -1.210e-8
0.181, -1.206e-8
0.182, -1.202e-8
0.183, -1.198e-8
0.184, -1.193e-8
0.185, -1.190e-8
0.186, -1.186e-8
0.187, -1.182e-8
0.188, -1.179e-8
0.189, -1.174e-8
0.190, -1.171e-8
0.191, -1.167e-8
0.192, -1.163e-8
0.193, -1.160e-8
0.194, -1.156e-8
0.195, -1.153e-8
0.196, -1.150e-8
0.197, -1.147e-8
0.198, -1.143e-8
0.199, -1.139e-8
0.200, -1.136e-8
0.201, -1.134e-8
0.202, -1.131e-8
0.203, -1.128e-8
0.204, -1.125e-8
0.205, -1.122e-8
0.206, -1.119e-8
0.207, -1.116e-8
0.208, -1.113e-8
0.209, -1.110e-8
0.210, -1.107e-8
0.211, -1.105e-8
0.212, -1.103e-8
0.213, -1.099e-8
0.214, -1.097e-8
0.215, -1.094e-8
0.216, -1.092e-8
0.217, -1.090e-8
0.218, -1.087e-8
0.219, -1.085e-8
0.220, -1.083e-8
0.221, -1.081e-8
0.222, -1.079e-8
0.223, -1.077e-8
0.224, -1.074e-8
0.225, -1.073e-8
0.226, -1.071e-8
0.227, -1.069e-8
0.228, -1.067e-8
0.229, -1.065e-8
0.230, -1.063e-8
0.231, -1.062e-8
0.232, -1.060e-8
0.233, -1.058e-8
0.234, -1.056e-8
0.235, -1.055e-8
0.236, -1.054e-8
0.237, -1.052e-8
0.238, -1.050e-8
0.239, -1.048e-8
0.240, -1.047e-8
0.241, -1.046e-8
0.242, -1.045e-8
0.243, -1.043e-8
0.244, -1.042e-8
0.245, -1.041e-8
0.246, -1.040e-8
0.247, -1.038e-8
0.248, -1.037e-8
0.249, -1.036e-8
0.250, -1.035e-8
0.251, -1.034e-8
0.252, -1.033e-8
0.253, -1.031e-8
0.254, -1.030e-8
0.255, -1.029e-8
0.256, -1.029e-8
0.257, -1.028e-8
0.258, -1.027e-8
0.259, -1.026e-8
0.260, -1.025e-8
0.261, -1.024e-8
0.262, -1.024e-8
0.263, -1.022e-8
0.264, -1.021e-8
0.265, -1.021e-8
0.266, -1.020e-8
0.267, -1.020e-8
0.268, -1.019e-8
0.269, -1.018e-8
0.270, -1.018e-8
0.271, -1.018e-8
0.272, -1.017e-8
0.273, -1.016e-8
0.274, -1.015e-8
0.275, -1.015e-8
0.276, -1.015e-8
0.277, -1.014e-8
0.278, -1.014e-8
0.279, -1.013e-8
0.280, -1.013e-8
0.281, -1.013e-8
0.282, -1.012e-8
0.283, -1.012e-8
0.284, -1.011e-8
0.285, -1.011e-8
0.286, -1.011e-8
0.287, -1.011e-8
0.288, -1.010e-8
0.289, -1.010e-8
0.290, -1.010e-8
0.291, -1.010e-8
0.292, -1.009e-8
0.293, -1.009e-8
0.294, -1.009e-8
0.295, -1.009e-8
0.296, -1.009e-8
0.297, -1.009e-8
0.298, -1.008e-8
0.299, -1.008e-8
0.300, -9.844e-9
0.299, -9.207e-9
0.298, -9.022e-9
0.297, -8.927e-9
0.296, -8.850e-9
0.295, -8.784e-9
0.294, -8.728e-9
0.293, -8.669e-9
0.292, -8.614e-9
0.291, -8.566e-9
0.290, -8.521e-9
0.289, -8.484e-9
0.288, -8.441e-9
0.287, -8.398e-9
0.286, -8.360e-9
0.285, -8.324e-9
0.284, -8.294e-9
0.283, -8.260e-9
0.282, -8.224e-9
0.281, -8.191e-9
0.280, -8.162e-9
0.279, -8.135e-9
0.278, -8.106e-9
0.277, -8.073e-9
0.276, -8.044e-9
0.275, -8.020e-9
0.274, -7.997e-9
0.273, -7.970e-9
0.272, -7.942e-9
0.271, -7.914e-9
0.270, -7.892e-9
0.269, -7.872e-9
0.268, -7.846e-9
0.267, -7.822e-9
0.266, -7.796e-9
0.265, -7.777e-9
0.264, -7.757e-9
0.263, -7.734e-9
0.262, -7.710e-9
0.261, -7.686e-9
0.260, -7.667e-9
0.259, -7.651e-9
0.258, -7.627e-9
0.257, -7.604e-9
0.256, -7.579e-9
0.255, -7.561e-9
0.254, -7.546e-9
0.253, -7.524e-9
0.252, -7.500e-9
0.251, -7.481e-9
0.250, -7.460e-9
0.249, -7.448e-9
0.248, -7.427e-9
0.247, -7.403e-9
0.246, -7.386e-9
0.245, -7.367e-9
0.244, -7.350e-9
0.243, -7.330e-9
0.242, -7.305e-9
0.241, -7.284e-9
0.240, -7.265e-9
0.239, -7.247e-9
0.238, -7.224e-9
0.237, -7.201e-9
0.236, -7.179e-9
0.235, -7.161e-9
0.234, -7.143e-9
0.233, -7.125e-9
0.232, -7.103e-9
0.231, -7.079e-9
0.230, -7.061e-9
0.229, -7.045e-9
0.228, -7.023e-9
0.227, -7.001e-9
0.226, -6.978e-9
0.225, -6.961e-9
0.224, -6.942e-9
0.223, -6.919e-9
0.222, -6.896e-9
0.221, -6.871e-9
0.220, -6.853e-9
0.219, -6.835e-9
0.218, -6.807e-9
0.217, -6.782e-9
0.216, -6.757e-9
0.215, -6.734e-9
0.214, -6.718e-9
0.213, -6.689e-9
0.212, -6.663e-9
0.211, -6.640e-9
0.210, -6.615e-9
0.209, -6.595e-9
0.208, -6.567e-9
0.207, -6.534e-9
0.206, -6.509e-9
0.205, -6.480e-9
0.204, -6.454e-9
0.203, -6.426e-9
0.202, -6.390e-9
0.201, -6.364e-9
0.200, -6.335e-9
0.199, -6.307e-9
0.198, -6.275e-9
0.197, -6.239e-9
0.196, -6.204e-9
0.195, -6.174e-9
0.194, -6.143e-9
0.193, -6.110e-9
0.192, -6.070e-9
0.191, -6.032e-9
0.190, -5.999e-9
0.189, -5.961e-9
0.188, -5.922e-9
0.187, -5.882e-9
0.186, -5.837e-9
0.185, -5.798e-9
0.184, -5.757e-9
0.183, -5.710e-9
0.182, -5.667e-9
0.181, -5.618e-9
0.180, -5.573e-9
0.179, -5.526e-9
0.178, -5.471e-9
0.177, -5.420e-9
0.176, -5.366e-9
0.175, -5.315e-9
0.174, -5.265e-9
0.173, -5.204e-9
0.172, -5.144e-9
0.171, -5.084e-9
0.170, -5.021e-9
0.169, -4.962e-9
0.168, -4.896e-9
0.167, -4.826e-9
0.166, -4.758e-9
0.165, -4.690e-9
0.164, -4.620e-9
0.163, -4.548e-9
0.162, -4.465e-9
0.161, -4.388e-9
0.160, -4.309e-9
0.159, -4.231e-9
0.158, -4.145e-9
0.157, -4.055e-9
0.156, -3.967e-9
0.155, -3.877e-9
0.154, -3.785e-9
0.153, -3.689e-9
0.152, -3.585e-9
0.151, -3.486e-9
0.150, -3.397e-9
0.149, -3.291e-9
0.148, -3.180e-9
0.147, -3.070e-9
0.146, -2.953e-9
0.145, -2.842e-9
0.144, -2.726e-9
0.143, -2.602e-9
0.142, -2.478e-9
0.141, -2.348e-9
0.140, -2.224e-9
0.139, -2.099e-9
0.138, -1.957e-9
0.137, -1.824e-9
0.136, -1.683e-9
0.135, -1.543e-9
0.134, -1.406e-9
0.133, -1.255e-9
0.132, -1.104e-9
0.131, -9.591e-10
0.130, -8.013e-10
0.129, -6.486e-10
0.128, -4.836e-10
0.127, -3.204e-10
0.126, -1.622e-10
0.125, 4.056e-12
0.124, 1.638e-10
0.123, 3.351e-10
0.122, 5.103e-10
0.121, 6.825e-10
0.120, 8.575e-10
0.119, 1.030e-9
0.118, 1.202e-9
0.117, 1.384e-9
0.116, 1.563e-9
0.115, 1.736e-9
0.114, 1.915e-9
0.113, 2.091e-9
0.112, 2.268e-9
0.111, 2.446e-9
0.110, 2.617e-9
0.109, 2.794e-9
0.108, 2.971e-9
0.107, 3.146e-9
0.106, 3.329e-9
0.105, 3.491e-9
0.104, 3.665e-9
0.103, 3.840e-9
0.102, 4.014e-9
0.101, 4.179e-9
0.100, 4.337e-9
0.099, 4.488e-9
0.098, 4.654e-9
0.097, 4.807e-9
0.096, 4.963e-9
0.095, 5.113e-9
0.094, 5.252e-9
0.093, 5.403e-9
0.092, 5.541e-9
0.091, 5.679e-9
0.090, 5.819e-9
0.089, 5.936e-9
0.088, 6.065e-9
0.087, 6.189e-9
0.086, 6.303e-9
0.085, 6.415e-9
0.084, 6.518e-9
0.083, 6.623e-9
0.082, 6.725e-9
0.081, 6.818e-9
0.080, 6.906e-9
0.079, 6.993e-9
0.078, 7.079e-9
0.077, 7.167e-9
0.076, 7.237e-9
0.075, 7.299e-9
0.074, 7.364e-9
0.073, 7.421e-9
0.072, 7.483e-9
0.071, 7.535e-9
0.070, 7.576e-9
0.069, 7.622e-9
0.068, 7.666e-9
0.067, 7.700e-9
0.066, 7.735e-9
0.065, 7.757e-9
0.064, 7.786e-9
0.063, 7.811e-9
0.062, 7.823e-9
0.061, 7.843e-9
0.060, 7.850e-9
0.059, 7.859e-9
0.058, 7.871e-9
0.057, 7.871e-9
0.056, 7.872e-9
0.055, 7.872e-9
0.054, 7.859e-9
0.053, 7.860e-9
0.052, 7.855e-9
0.051, 7.845e-9
0.050, 7.830e-9
0.049, 7.808e-9
0.048, 7.795e-9
0.047, 7.781e-9
0.046, 7.759e-9
0.045, 7.737e-9
0.044, 7.710e-9
0.043, 7.685e-9
0.042, 7.666e-9
0.041, 7.638e-9
0.040, 7.607e-9
0.039, 7.580e-9
0.038, 7.549e-9
0.037, 7.521e-9
0.036, 7.490e-9
0.035, 7.453e-9
0.034, 7.423e-9
0.033, 7.390e-9
0.032, 7.358e-9
0.031, 7.327e-9
0.030, 7.287e-9
0.029, 7.254e-9
0.028, 7.220e-9
0.027, 7.186e-9
0.026, 7.157e-9
0.025, 7.119e-9
0.024, 7.079e-9
0.023, 7.048e-9
0.022, 7.012e-9
0.021, 6.979e-9
0.020, 6.938e-9
0.019, 6.900e-9
0.018, 6.868e-9
0.017, 6.834e-9
0.016, 6.799e-9
0.015, 6.764e-9
0.014, 6.724e-9
0.013, 6.696e-9
0.012, 6.665e-9
0.011, 6.631e-9
0.010, 6.595e-9
0.009, 6.557e-9
0.008, 6.528e-9
0.007, 6.501e-9
0.006, 6.464e-9
0.005, 6.433e-9
0.004, 6.401e-9
0.003, 6.371e-9
0.002, 6.343e-9
0.001, 6.312e-9
0.000, 6.295e-9
-0.001, 6.260e-9
-0.002, 6.222e-9
-0.003, 6.197e-9
-0.004, 6.168e-9
-0.005, 6.136e-9
-0.006, 6.107e-9
-0.007, 6.079e-9
-0.008, 6.053e-9
-0.009, 6.028e-9
-0.010, 5.995e-9
-0.011, 5.967e-9
-0.012, 5.948e-9
-0.013, 5.925e-9
-0.014, 5.903e-9
-0.015, 5.873e-9
-0.016, 5.848e-9
-0.017, 5.826e-9
-0.018, 5.803e-9
-0.019, 5.783e-9
-0.020, 5.754e-9
-0.021, 5.727e-9
-0.022, 5.710e-9
-0.023, 5.689e-9
-0.024, 5.667e-9
-0.025, 5.646e-9
-0.026, 5.623e-9
-0.027, 5.604e-9
-0.028, 5.586e-9
-0.029, 5.565e-9
-0.030, 5.543e-9
-0.031, 5.521e-9
-0.032, 5.503e-9
-0.033, 5.488e-9
-0.034, 5.466e-9
-0.035, 5.447e-9
-0.036, 5.427e-9
-0.037, 5.412e-9
-0.038, 5.400e-9
-0.039, 5.382e-9
-0.040, 5.363e-9
-0.041, 5.346e-9
-0.042, 5.331e-9
-0.043, 5.317e-9
-0.044, 5.301e-9
-0.045, 5.281e-9
-0.046, 5.266e-9
-0.047, 5.251e-9
-0.048, 5.239e-9
-0.049, 5.227e-9
-0.050, 5.207e-9
-0.051, 5.194e-9
-0.052, 5.184e-9
-0.053, 5.171e-9
-0.054, 5.158e-9
-0.055, 5.139e-9
-0.056, 5.125e-9
-0.057, 5.116e-9
-0.058, 5.104e-9
-0.059, 5.095e-9
-0.060, 5.077e-9
-0.061, 5.061e-9
-0.062, 5.054e-9
-0.063, 5.045e-9
-0.064, 5.035e-9
-0.065, 5.020e-9
-0.066, 5.004e-9
-0.067, 4.997e-9
-0.068, 4.988e-9
-0.069, 4.976e-9
-0.070, 4.965e-9
-0.071, 4.952e-9
-0.072, 4.945e-9
-0.073, 4.938e-9
-0.074, 4.927e-9
-0.075, 4.914e-9
-0.076, 4.905e-9
-0.077, 4.899e-9
-0.078, 4.892e-9
-0.079, 4.882e-9
-0.080, 4.871e-9
-0.081, 4.862e-9
-0.082, 4.854e-9
-0.083, 4.851e-9
-0.084, 4.840e-9
-0.085, 4.828e-9
-0.086, 4.820e-9
-0.087, 4.813e-9
-0.088, 4.807e-9
-0.089, 4.802e-9
-0.090, 4.789e-9
-0.091, 4.781e-9
-0.092, 4.777e-9
-0.093, 4.770e-9
-0.094, 4.764e-9
-0.095, 4.753e-9
-0.096, 4.744e-9
-0.097, 4.742e-9
-0.098, 4.735e-9
-0.099, 4.730e-9
-0.100, 4.719e-9
-0.101, 4.712e-9
-0.102, 4.712e-9
-0.103, 4.707e-9
-0.104, 4.700e-9
-0.105, 4.692e-9
-0.106, 4.682e-9
-0.107, 4.682e-9
-0.108, 4.678e-9
-0.109, 4.671e-9
-0.110, 4.665e-9
-0.111, 4.656e-9
-0.112, 4.656e-9
-0.113, 4.654e-9
-0.114, 4.647e-9
-0.115, 4.640e-9
-0.116, 4.636e-9
-0.117, 4.632e-9
-0.118, 4.632e-9
-0.119, 4.626e-9
-0.120, 4.619e-9
-0.121, 4.614e-9
-0.122, 4.612e-9
-0.123, 4.611e-9
-0.124, 4.608e-9
-0.125, 4.599e-9
-0.126, 4.596e-9
-0.127, 4.594e-9
-0.128, 4.596e-9
-0.129, 4.594e-9
-0.130, 4.584e-9
-0.131, 4.581e-9
-0.132, 4.583e-9
-0.133, 4.581e-9
-0.134, 4.579e-9
-0.135, 4.571e-9
-0.136, 4.568e-9
-0.137, 4.571e-9
-0.138, 4.569e-9
-0.139, 4.568e-9
-0.140, 4.562e-9
-0.141, 4.559e-9
-0.142, 4.562e-9
-0.143, 4.561e-9
-0.144, 4.557e-9
-0.145, 4.555e-9
-0.146, 4.551e-9
-0.147, 4.555e-9
-0.148, 4.557e-9
-0.149, 4.553e-9
-0.150, 4.551e-9
-0.151, 4.548e-9
-0.152, 4.551e-9
-0.153, 4.555e-9
-0.154, 4.554e-9
-0.155, 4.551e-9
-0.156, 4.550e-9
-0.157, 4.555e-9
-0.158, 4.558e-9
-0.159, 4.558e-9
-0.160, 4.554e-9
-0.161, 4.556e-9
-0.162, 4.559e-9
-0.163, 4.564e-9
-0.164, 4.564e-9
-0.165, 4.562e-9
-0.166, 4.564e-9
-0.167, 4.569e-9
-0.168, 4.574e-9
-0.169, 4.575e-9
-0.170, 4.573e-9
-0.171, 4.576e-9
-0.172, 4.584e-9
-0.173, 4.586e-9
-0.174, 4.590e-9
-0.175, 4.588e-9
-0.176, 4.591e-9
-0.177, 4.600e-9
-0.178, 4.604e-9
-0.179, 4.610e-9
-0.180, 4.611e-9
-0.181, 4.613e-9
-0.182, 4.623e-9
-0.183, 4.627e-9
-0.184, 4.634e-9
-0.185, 4.636e-9
-0.186, 4.639e-9
-0.187, 4.649e-9
-0.188, 4.659e-9
-0.189, 4.663e-9
-0.190, 4.667e-9
-0.191, 4.672e-9
-0.192, 4.685e-9
-0.193, 4.694e-9
-0.194, 4.700e-9
-0.195, 4.704e-9
-0.196, 4.711e-9
-0.197, 4.722e-9
-0.198, 4.734e-9
-0.199, 4.742e-9
