Mar. 16, 2023   08:57:35
Cyclic Voltammetry
File: c:/users/oliverrz/desktop/electrolab/data/2023_03_16\fcmeoh_macros_250_um\electrode4_cv_200mvs_250_um.bin
Data Source:  Experiment
Instrument Model:  CHI760E
Header: CV
Note: 

Init E (V) = -0.2
High E (V) = 0.3
Low E (V) = -0.2
Final E (V) = -0.2
Init P/N = P
Scan Rate (V/s) = 0.2
Segment = 3
Sample Interval (V) = 0.001
Quiet Time (sec) = 2
Sensitivity (A/V) = 1e-7

Results:

Channel 1:
Segment 1:
Ep = 0.093V
ip = -2.463e-8A
Ah = -7.380e-9C

Segment 2:
Ep = 0.032V
ip = 2.258e-8A
Ah = 7.013e-9C

Segment 3:

Potential/V, Current/A

-0.200, 2.663e-9
-0.199, 2.298e-9
-0.198, 2.087e-9
-0.197, 1.917e-9
-0.196, 2.087e-9
-0.195, 2.053e-9
-0.194, 1.814e-9
-0.193, 1.903e-9
-0.192, 2.015e-9
-0.191, 1.785e-9
-0.190, 1.740e-9
-0.189, 1.956e-9
-0.188, 1.776e-9
-0.187, 1.643e-9
-0.186, 1.835e-9
-0.185, 1.798e-9
-0.184, 1.573e-9
-0.183, 1.693e-9
-0.182, 1.785e-9
-0.181, 1.578e-9
-0.180, 1.539e-9
-0.179, 1.750e-9
-0.178, 1.593e-9
-0.177, 1.444e-9
-0.176, 1.644e-9
-0.175, 1.635e-9
-0.174, 1.385e-9
-0.173, 1.524e-9
-0.172, 1.615e-9
-0.171, 1.412e-9
-0.170, 1.383e-9
-0.169, 1.581e-9
-0.168, 1.435e-9
-0.167, 1.296e-9
-0.166, 1.477e-9
-0.165, 1.491e-9
-0.164, 1.238e-9
-0.163, 1.376e-9
-0.162, 1.480e-9
-0.161, 1.264e-9
-0.160, 1.246e-9
-0.159, 1.460e-9
-0.158, 1.294e-9
-0.157, 1.175e-9
-0.156, 1.352e-9
-0.155, 1.356e-9
-0.154, 1.118e-9
-0.153, 1.248e-9
-0.152, 1.348e-9
-0.151, 1.153e-9
-0.150, 1.119e-9
-0.149, 1.339e-9
-0.148, 1.179e-9
-0.147, 1.054e-9
-0.146, 1.245e-9
-0.145, 1.233e-9
-0.144, 1.013e-9
-0.143, 1.149e-9
-0.142, 1.238e-9
-0.141, 1.046e-9
-0.140, 1.013e-9
-0.139, 1.234e-9
-0.138, 1.085e-9
-0.137, 9.450e-10
-0.136, 1.149e-9
-0.135, 1.146e-9
-0.134, 8.960e-10
-0.133, 1.051e-9
-0.132, 1.144e-9
-0.131, 9.449e-10
-0.130, 9.226e-10
-0.129, 1.139e-9
-0.128, 9.794e-10
-0.127, 8.543e-10
-0.126, 1.041e-9
-0.125, 1.058e-9
-0.124, 8.060e-10
-0.123, 9.506e-10
-0.122, 1.058e-9
-0.121, 8.454e-10
-0.120, 8.220e-10
-0.119, 1.049e-9
-0.118, 8.846e-10
-0.117, 7.685e-10
-0.116, 9.486e-10
-0.115, 9.590e-10
-0.114, 7.282e-10
-0.113, 8.504e-10
-0.112, 9.671e-10
-0.111, 7.653e-10
-0.110, 7.245e-10
-0.109, 9.625e-10
-0.108, 7.913e-10
-0.107, 6.727e-10
-0.106, 8.672e-10
-0.105, 8.576e-10
-0.104, 6.306e-10
-0.103, 7.601e-10
-0.102, 8.588e-10
-0.101, 6.654e-10
-0.100, 6.320e-10
-0.099, 8.590e-10
-0.098, 7.033e-10
-0.097, 5.547e-10
-0.096, 7.709e-10
-0.095, 7.630e-10
-0.094, 5.158e-10
-0.093, 6.721e-10
-0.092, 7.586e-10
-0.091, 5.533e-10
-0.090, 5.296e-10
-0.089, 7.432e-10
-0.088, 5.945e-10
-0.087, 4.605e-10
-0.086, 6.436e-10
-0.085, 6.524e-10
-0.084, 4.042e-10
-0.083, 5.389e-10
-0.082, 6.553e-10
-0.081, 4.263e-10
-0.080, 4.144e-10
-0.079, 6.211e-10
-0.078, 4.639e-10
-0.077, 3.195e-10
-0.076, 5.162e-10
-0.075, 5.044e-10
-0.074, 2.804e-10
-0.073, 3.850e-10
-0.072, 5.054e-10
-0.071, 2.914e-10
-0.070, 2.510e-10
-0.069, 4.705e-10
-0.068, 3.043e-10
-0.067, 1.629e-10
-0.066, 3.624e-10
-0.065, 3.316e-10
-0.064, 1.039e-10
-0.063, 2.204e-10
-0.062, 3.128e-10
-0.061, 1.074e-10
-0.060, 6.874e-11
-0.059, 2.610e-10
-0.058, 1.148e-10
-0.057, -5.501e-11
-0.056, 1.511e-10
-0.055, 1.167e-10
-0.054, -1.210e-10
-0.053, -1.179e-11
-0.052, 7.681e-11
-0.051, -1.507e-10
-0.050, -1.793e-10
-0.049, -1.359e-12
-0.048, -1.549e-10
-0.047, -3.251e-10
-0.046, -1.422e-10
-0.045, -1.724e-10
-0.044, -4.278e-10
-0.043, -3.252e-10
-0.042, -2.311e-10
-0.041, -4.936e-10
-0.040, -5.112e-10
-0.039, -3.583e-10
-0.038, -5.292e-10
-0.037, -7.018e-10
-0.036, -5.274e-10
-0.035, -5.842e-10
-0.034, -8.284e-10
-0.033, -7.726e-10
-0.032, -6.675e-10
-0.031, -9.392e-10
-0.030, -1.000e-9
-0.029, -8.360e-10
-0.028, -1.030e-9
-0.027, -1.216e-9
-0.026, -1.067e-9
-0.025, -1.148e-9
-0.024, -1.400e-9
-0.023, -1.348e-9
-0.022, -1.293e-9
-0.021, -1.568e-9
-0.020, -1.649e-9
-0.019, -1.518e-9
-0.018, -1.709e-9
-0.017, -1.953e-9
-0.016, -1.808e-9
-0.015, -1.907e-9
-0.014, -2.207e-9
-0.013, -2.173e-9
-0.012, -2.149e-9
-0.011, -2.457e-9
-0.010, -2.539e-9
-0.009, -2.463e-9
-0.008, -2.683e-9
-0.007, -2.939e-9
-0.006, -2.846e-9
-0.005, -2.966e-9
-0.004, -3.310e-9
-0.003, -3.309e-9
-0.002, -3.305e-9
-0.001, -3.661e-9
-0.000, -3.879e-9
0.001, -3.764e-9
0.002, -4.034e-9
0.003, -4.306e-9
0.004, -4.268e-9
0.005, -4.440e-9
0.006, -4.784e-9
0.007, -4.873e-9
0.008, -4.896e-9
0.009, -5.296e-9
0.010, -5.483e-9
0.011, -5.470e-9
0.012, -5.804e-9
0.013, -6.137e-9
0.014, -6.123e-9
0.015, -6.378e-9
0.016, -6.768e-9
0.017, -6.899e-9
0.018, -6.984e-9
0.019, -7.432e-9
0.020, -7.685e-9
0.021, -7.730e-9
0.022, -8.091e-9
0.023, -8.512e-9
0.024, -8.532e-9
0.025, -8.842e-9
0.026, -9.309e-9
0.027, -9.460e-9
0.028, -9.632e-9
0.029, -1.011e-8
0.030, -1.039e-8
0.031, -1.053e-8
0.032, -1.092e-8
0.033, -1.137e-8
0.034, -1.147e-8
0.035, -1.180e-8
0.036, -1.232e-8
0.037, -1.253e-8
0.038, -1.272e-8
0.039, -1.326e-8
0.040, -1.357e-8
0.041, -1.372e-8
0.042, -1.419e-8
0.043, -1.463e-8
0.044, -1.479e-8
0.045, -1.512e-8
0.046, -1.565e-8
0.047, -1.591e-8
0.048, -1.610e-8
0.049, -1.665e-8
0.050, -1.697e-8
0.051, -1.712e-8
0.052, -1.761e-8
0.053, -1.804e-8
0.054, -1.816e-8
0.055, -1.852e-8
0.056, -1.900e-8
0.057, -1.920e-8
0.058, -1.941e-8
0.059, -1.990e-8
0.060, -2.023e-8
0.061, -2.030e-8
0.062, -2.072e-8
0.063, -2.115e-8
0.064, -2.120e-8
0.065, -2.151e-8
0.066, -2.195e-8
0.067, -2.208e-8
0.068, -2.223e-8
0.069, -2.263e-8
0.070, -2.287e-8
0.071, -2.291e-8
0.072, -2.323e-8
0.073, -2.357e-8
0.074, -2.357e-8
0.075, -2.376e-8
0.076, -2.413e-8
0.077, -2.419e-8
0.078, -2.421e-8
0.079, -2.457e-8
0.080, -2.466e-8
0.081, -2.462e-8
0.082, -2.487e-8
0.083, -2.506e-8
0.084, -2.499e-8
0.085, -2.507e-8
0.086, -2.533e-8
0.087, -2.530e-8
0.088, -2.522e-8
0.089, -2.549e-8
0.090, -2.552e-8
0.091, -2.535e-8
0.092, -2.552e-8
0.093, -2.563e-8
0.094, -2.544e-8
0.095, -2.548e-8
0.096, -2.562e-8
0.097, -2.552e-8
0.098, -2.539e-8
0.099, -2.553e-8
0.100, -2.552e-8
0.101, -2.526e-8
0.102, -2.537e-8
0.103, -2.546e-8
0.104, -2.517e-8
0.105, -2.512e-8
0.106, -2.526e-8
0.107, -2.506e-8
0.108, -2.488e-8
0.109, -2.499e-8
0.110, -2.490e-8
0.111, -2.464e-8
0.112, -2.465e-8
0.113, -2.471e-8
0.114, -2.440e-8
0.115, -2.431e-8
0.116, -2.443e-8
0.117, -2.420e-8
0.118, -2.396e-8
0.119, -2.408e-8
0.120, -2.397e-8
0.121, -2.365e-8
0.122, -2.368e-8
0.123, -2.369e-8
0.124, -2.339e-8
0.125, -2.326e-8
0.126, -2.336e-8
0.127, -2.315e-8
0.128, -2.289e-8
0.129, -2.299e-8
0.130, -2.288e-8
0.131, -2.255e-8
0.132, -2.258e-8
0.133, -2.259e-8
0.134, -2.227e-8
0.135, -2.218e-8
0.136, -2.226e-8
0.137, -2.202e-8
0.138, -2.181e-8
0.139, -2.188e-8
0.140, -2.180e-8
0.141, -2.147e-8
0.142, -2.150e-8
0.143, -2.154e-8
0.144, -2.121e-8
0.145, -2.111e-8
0.146, -2.123e-8
0.147, -2.099e-8
0.148, -2.078e-8
0.149, -2.086e-8
0.150, -2.078e-8
0.151, -2.049e-8
0.152, -2.051e-8
0.153, -2.055e-8
0.154, -2.026e-8
0.155, -2.015e-8
0.156, -2.029e-8
0.157, -2.006e-8
0.158, -1.985e-8
0.159, -1.997e-8
0.160, -1.989e-8
0.161, -1.958e-8
0.162, -1.966e-8
0.163, -1.968e-8
0.164, -1.941e-8
0.165, -1.932e-8
0.166, -1.946e-8
0.167, -1.926e-8
0.168, -1.906e-8
0.169, -1.918e-8
0.170, -1.912e-8
0.171, -1.883e-8
0.172, -1.890e-8
0.173, -1.895e-8
0.174, -1.868e-8
0.175, -1.861e-8
0.176, -1.875e-8
0.177, -1.856e-8
0.178, -1.838e-8
0.179, -1.851e-8
0.180, -1.847e-8
0.181, -1.818e-8
0.182, -1.825e-8
0.183, -1.834e-8
0.184, -1.806e-8
0.185, -1.800e-8
0.186, -1.817e-8
0.187, -1.797e-8
0.188, -1.781e-8
0.189, -1.793e-8
0.190, -1.791e-8
0.191, -1.764e-8
0.192, -1.772e-8
0.193, -1.780e-8
0.194, -1.756e-8
0.195, -1.748e-8
0.196, -1.768e-8
0.197, -1.748e-8
0.198, -1.731e-8
0.199, -1.748e-8
0.200, -1.744e-8
0.201, -1.717e-8
0.202, -1.728e-8
0.203, -1.735e-8
0.204, -1.713e-8
0.205, -1.707e-8
0.206, -1.726e-8
0.207, -1.709e-8
0.208, -1.692e-8
0.209, -1.707e-8
0.210, -1.707e-8
0.211, -1.679e-8
0.212, -1.691e-8
0.213, -1.699e-8
0.214, -1.676e-8
0.215, -1.672e-8
0.216, -1.690e-8
0.217, -1.674e-8
0.218, -1.660e-8
0.219, -1.675e-8
0.220, -1.675e-8
0.221, -1.649e-8
0.222, -1.660e-8
0.223, -1.671e-8
0.224, -1.647e-8
0.225, -1.643e-8
0.226, -1.664e-8
0.227, -1.646e-8
0.228, -1.633e-8
0.229, -1.649e-8
0.230, -1.649e-8
0.231, -1.625e-8
0.232, -1.635e-8
0.233, -1.646e-8
0.234, -1.625e-8
0.235, -1.621e-8
0.236, -1.641e-8
0.237, -1.624e-8
0.238, -1.611e-8
0.239, -1.629e-8
0.240, -1.628e-8
0.241, -1.604e-8
0.242, -1.617e-8
0.243, -1.626e-8
0.244, -1.606e-8
0.245, -1.602e-8
0.246, -1.622e-8
0.247, -1.609e-8
0.248, -1.594e-8
0.249, -1.612e-8
0.250, -1.614e-8
0.251, -1.588e-8
0.252, -1.603e-8
0.253, -1.612e-8
0.254, -1.590e-8
0.255, -1.590e-8
0.256, -1.610e-8
0.257, -1.595e-8
0.258, -1.583e-8
0.259, -1.600e-8
0.260, -1.602e-8
0.261, -1.578e-8
0.262, -1.591e-8
0.263, -1.603e-8
0.264, -1.582e-8
0.265, -1.579e-8
0.266, -1.602e-8
0.267, -1.586e-8
0.268, -1.575e-8
0.269, -1.593e-8
0.270, -1.595e-8
0.271, -1.573e-8
0.272, -1.585e-8
0.273, -1.597e-8
0.274, -1.578e-8
0.275, -1.575e-8
0.276, -1.598e-8
0.277, -1.584e-8
0.278, -1.571e-8
0.279, -1.591e-8
0.280, -1.592e-8
0.281, -1.570e-8
0.282, -1.585e-8
0.283, -1.596e-8
0.284, -1.577e-8
0.285, -1.575e-8
0.286, -1.598e-8
0.287, -1.584e-8
0.288, -1.573e-8
0.289, -1.592e-8
0.290, -1.595e-8
0.291, -1.572e-8
0.292, -1.587e-8
0.293, -1.600e-8
0.294, -1.580e-8
0.295, -1.580e-8
0.296, -1.602e-8
0.297, -1.590e-8
0.298, -1.579e-8
0.299, -1.598e-8
0.300, -1.404e-8
0.299, -1.229e-8
0.298, -1.213e-8
0.297, -1.201e-8
0.296, -1.165e-8
0.295, -1.146e-8
0.294, -1.156e-8
0.293, -1.130e-8
0.292, -1.106e-8
0.291, -1.116e-8
0.290, -1.108e-8
0.289, -1.074e-8
0.288, -1.082e-8
0.287, -1.084e-8
0.286, -1.057e-8
0.285, -1.048e-8
0.284, -1.062e-8
0.283, -1.043e-8
0.282, -1.025e-8
0.281, -1.036e-8
0.280, -1.033e-8
0.279, -1.004e-8
0.278, -1.013e-8
0.277, -1.021e-8
0.276, -9.933e-9
0.275, -9.885e-9
0.274, -1.005e-8
0.273, -9.865e-9
0.272, -9.706e-9
0.271, -9.844e-9
0.270, -9.817e-9
0.269, -9.554e-9
0.268, -9.638e-9
0.267, -9.738e-9
0.266, -9.502e-9
0.265, -9.432e-9
0.264, -9.623e-9
0.263, -9.447e-9
0.262, -9.286e-9
0.261, -9.453e-9
0.260, -9.420e-9
0.259, -9.177e-9
0.258, -9.266e-9
0.257, -9.356e-9
0.256, -9.125e-9
0.255, -9.071e-9
0.254, -9.272e-9
0.253, -9.112e-9
0.252, -8.934e-9
0.251, -9.124e-9
0.250, -9.096e-9
0.249, -8.846e-9
0.248, -8.944e-9
0.247, -9.047e-9
0.246, -8.813e-9
0.245, -8.783e-9
0.244, -8.950e-9
0.243, -8.811e-9
0.242, -8.649e-9
0.241, -8.812e-9
0.240, -8.813e-9
0.239, -8.553e-9
0.238, -8.657e-9
0.237, -8.781e-9
0.236, -8.519e-9
0.235, -8.507e-9
0.234, -8.686e-9
0.233, -8.526e-9
0.232, -8.375e-9
0.231, -8.549e-9
0.230, -8.526e-9
0.229, -8.301e-9
0.228, -8.375e-9
0.227, -8.517e-9
0.226, -8.266e-9
0.225, -8.236e-9
0.224, -8.424e-9
0.223, -8.273e-9
0.222, -8.110e-9
0.221, -8.298e-9
0.220, -8.264e-9
0.219, -8.040e-9
0.218, -8.129e-9
0.217, -8.243e-9
0.216, -8.004e-9
0.215, -7.981e-9
0.214, -8.161e-9
0.213, -8.021e-9
0.212, -7.839e-9
0.211, -8.041e-9
0.210, -8.015e-9
0.209, -7.768e-9
0.208, -7.880e-9
0.207, -7.984e-9
0.206, -7.731e-9
0.205, -7.711e-9
0.204, -7.877e-9
0.203, -7.753e-9
0.202, -7.579e-9
0.201, -7.750e-9
0.200, -7.741e-9
0.199, -7.497e-9
0.198, -7.580e-9
0.197, -7.710e-9
0.196, -7.444e-9
0.195, -7.430e-9
0.194, -7.605e-9
0.193, -7.446e-9
0.192, -7.273e-9
0.191, -7.460e-9
0.190, -7.424e-9
0.189, -7.189e-9
0.188, -7.254e-9
0.187, -7.391e-9
0.186, -7.129e-9
0.185, -7.089e-9
0.184, -7.266e-9
0.183, -7.108e-9
0.182, -6.932e-9
0.181, -7.100e-9
0.180, -7.059e-9
0.179, -6.824e-9
0.178, -6.902e-9
0.177, -6.994e-9
0.176, -6.750e-9
0.175, -6.695e-9
0.174, -6.862e-9
0.173, -6.713e-9
0.172, -6.504e-9
0.171, -6.690e-9
0.170, -6.640e-9
0.169, -6.378e-9
0.168, -6.456e-9
0.167, -6.544e-9
0.166, -6.273e-9
0.165, -6.224e-9
0.164, -6.360e-9
0.163, -6.201e-9
0.162, -6.013e-9
0.161, -6.149e-9
0.160, -6.108e-9
0.159, -5.821e-9
0.158, -5.875e-9
0.157, -5.971e-9
0.156, -5.663e-9
0.155, -5.608e-9
0.154, -5.735e-9
0.153, -5.542e-9
0.152, -5.347e-9
0.151, -5.461e-9
0.150, -5.394e-9
0.149, -5.105e-9
0.148, -5.117e-9
0.147, -5.200e-9
0.146, -4.893e-9
0.145, -4.788e-9
0.144, -4.906e-9
0.143, -4.674e-9
0.142, -4.461e-9
0.141, -4.553e-9
0.140, -4.448e-9
0.139, -4.145e-9
0.138, -4.149e-9
0.137, -4.155e-9
0.136, -3.845e-9
0.135, -3.710e-9
0.134, -3.806e-9
0.133, -3.542e-9
0.132, -3.279e-9
0.131, -3.354e-9
0.130, -3.231e-9
0.129, -2.847e-9
0.128, -2.832e-9
0.127, -2.799e-9
0.126, -2.455e-9
0.125, -2.289e-9
0.124, -2.315e-9
0.123, -2.033e-9
0.122, -1.733e-9
0.121, -1.730e-9
0.120, -1.576e-9
0.119, -1.152e-9
0.118, -1.099e-9
0.117, -1.032e-9
0.116, -6.091e-10
0.115, -3.962e-10
0.114, -4.019e-10
0.113, -2.991e-11
0.112, 2.882e-10
0.111, 3.597e-10
0.110, 5.557e-10
0.109, 1.030e-9
0.108, 1.163e-9
0.107, 1.277e-9
0.106, 1.719e-9
0.105, 2.008e-9
0.104, 2.061e-9
0.103, 2.485e-9
0.102, 2.865e-9
0.101, 2.962e-9
0.100, 3.244e-9
0.099, 3.719e-9
0.098, 3.891e-9
0.097, 4.095e-9
0.096, 4.570e-9
0.095, 4.897e-9
0.094, 4.991e-9
0.093, 5.435e-9
0.092, 5.914e-9
0.091, 6.009e-9
0.090, 6.334e-9
0.089, 6.880e-9
0.088, 7.066e-9
0.087, 7.311e-9
0.086, 7.806e-9
0.085, 8.159e-9
0.084, 8.312e-9
0.083, 8.770e-9
0.082, 9.210e-9
0.081, 9.402e-9
0.080, 9.675e-9
0.079, 1.027e-8
0.078, 1.045e-8
0.077, 1.069e-8
0.076, 1.121e-8
0.075, 1.153e-8
0.074, 1.167e-8
0.073, 1.213e-8
0.072, 1.253e-8
0.071, 1.270e-8
0.070, 1.295e-8
0.069, 1.350e-8
0.068, 1.368e-8
0.067, 1.383e-8
0.066, 1.433e-8
0.065, 1.463e-8
0.064, 1.470e-8
0.063, 1.510e-8
0.062, 1.547e-8
0.061, 1.554e-8
0.060, 1.579e-8
0.059, 1.623e-8
0.058, 1.632e-8
0.057, 1.645e-8
0.056, 1.683e-8
0.055, 1.706e-8
0.054, 1.705e-8
0.053, 1.735e-8
0.052, 1.768e-8
0.051, 1.764e-8
0.050, 1.778e-8
0.049, 1.816e-8
0.048, 1.814e-8
0.047, 1.817e-8
0.046, 1.847e-8
0.045, 1.857e-8
0.044, 1.851e-8
0.043, 1.868e-8
0.042, 1.890e-8
0.041, 1.880e-8
0.040, 1.883e-8
0.039, 1.913e-8
0.038, 1.903e-8
0.037, 1.893e-8
0.036, 1.918e-8
0.035, 1.919e-8
0.034, 1.901e-8
0.033, 1.916e-8
0.032, 1.926e-8
0.031, 1.908e-8
0.030, 1.904e-8
0.029, 1.922e-8
0.028, 1.911e-8
0.027, 1.891e-8
0.026, 1.911e-8
0.025, 1.906e-8
0.024, 1.880e-8
0.023, 1.888e-8
0.022, 1.895e-8
0.021, 1.867e-8
0.020, 1.862e-8
0.019, 1.874e-8
0.018, 1.855e-8
0.017, 1.835e-8
0.016, 1.847e-8
0.015, 1.839e-8
0.014, 1.810e-8
0.013, 1.813e-8
0.012, 1.819e-8
0.011, 1.787e-8
0.010, 1.778e-8
0.009, 1.790e-8
0.008, 1.768e-8
0.007, 1.744e-8
0.006, 1.755e-8
0.005, 1.742e-8
0.004, 1.717e-8
0.003, 1.714e-8
0.002, 1.719e-8
0.001, 1.689e-8
0.000, 1.686e-8
-0.001, 1.690e-8
-0.002, 1.666e-8
-0.003, 1.640e-8
-0.004, 1.654e-8
-0.005, 1.640e-8
-0.006, 1.609e-8
-0.007, 1.611e-8
-0.008, 1.614e-8
-0.009, 1.583e-8
-0.010, 1.572e-8
-0.011, 1.582e-8
-0.012, 1.562e-8
-0.013, 1.536e-8
-0.014, 1.547e-8
-0.015, 1.538e-8
-0.016, 1.507e-8
-0.017, 1.509e-8
-0.018, 1.514e-8
-0.019, 1.482e-8
-0.020, 1.474e-8
-0.021, 1.483e-8
-0.022, 1.464e-8
-0.023, 1.440e-8
-0.024, 1.452e-8
-0.025, 1.444e-8
-0.026, 1.415e-8
-0.027, 1.415e-8
-0.028, 1.423e-8
-0.029, 1.392e-8
-0.030, 1.384e-8
-0.031, 1.396e-8
-0.032, 1.376e-8
-0.033, 1.353e-8
-0.034, 1.367e-8
-0.035, 1.358e-8
-0.036, 1.332e-8
-0.037, 1.334e-8
-0.038, 1.342e-8
-0.039, 1.313e-8
-0.040, 1.305e-8
-0.041, 1.319e-8
-0.042, 1.300e-8
-0.043, 1.277e-8
-0.044, 1.294e-8
-0.045, 1.286e-8
-0.046, 1.258e-8
-0.047, 1.265e-8
-0.048, 1.270e-8
-0.049, 1.245e-8
-0.050, 1.237e-8
-0.051, 1.252e-8
-0.052, 1.235e-8
-0.053, 1.214e-8
-0.054, 1.229e-8
-0.055, 1.225e-8
-0.056, 1.197e-8
-0.057, 1.204e-8
-0.058, 1.212e-8
-0.059, 1.186e-8
-0.060, 1.180e-8
-0.061, 1.196e-8
-0.062, 1.179e-8
-0.063, 1.161e-8
-0.064, 1.175e-8
-0.065, 1.172e-8
-0.066, 1.144e-8
-0.067, 1.153e-8
-0.068, 1.161e-8
-0.069, 1.136e-8
-0.070, 1.129e-8
-0.071, 1.149e-8
-0.072, 1.130e-8
-0.073, 1.113e-8
-0.074, 1.128e-8
-0.075, 1.126e-8
-0.076, 1.100e-8
-0.077, 1.109e-8
-0.078, 1.117e-8
-0.079, 1.095e-8
-0.080, 1.087e-8
-0.081, 1.107e-8
-0.082, 1.089e-8
-0.083, 1.073e-8
-0.084, 1.090e-8
-0.085, 1.087e-8
-0.086, 1.061e-8
-0.087, 1.072e-8
-0.088, 1.081e-8
-0.089, 1.059e-8
-0.090, 1.053e-8
-0.091, 1.072e-8
-0.092, 1.056e-8
-0.093, 1.039e-8
-0.094, 1.056e-8
-0.095, 1.056e-8
-0.096, 1.029e-8
-0.097, 1.040e-8
-0.098, 1.049e-8
-0.099, 1.027e-8
-0.100, 1.023e-8
-0.101, 1.041e-8
-0.102, 1.027e-8
-0.103, 1.011e-8
-0.104, 1.027e-8
-0.105, 1.028e-8
-0.106, 1.001e-8
-0.107, 1.012e-8
-0.108, 1.023e-8
-0.109, 1.001e-8
-0.110, 9.952e-9
-0.111, 1.018e-8
-0.112, 1.000e-8
-0.113, 9.862e-9
-0.114, 1.004e-8
-0.115, 1.003e-8
-0.116, 9.796e-9
-0.117, 9.890e-9
-0.118, 9.990e-9
-0.119, 9.797e-9
-0.120, 9.735e-9
-0.121, 9.953e-9
-0.122, 9.793e-9
-0.123, 9.641e-9
-0.124, 9.837e-9
-0.125, 9.820e-9
-0.126, 9.581e-9
-0.127, 9.708e-9
-0.128, 9.802e-9
-0.129, 9.604e-9
-0.130, 9.549e-9
-0.131, 9.762e-9
-0.132, 9.620e-9
-0.133, 9.465e-9
-0.134, 9.640e-9
-0.135, 9.660e-9
-0.136, 9.410e-9
-0.137, 9.538e-9
-0.138, 9.642e-9
-0.139, 9.432e-9
-0.140, 9.404e-9
-0.141, 9.602e-9
-0.142, 9.456e-9
-0.143, 9.324e-9
-0.144, 9.500e-9
-0.145, 9.511e-9
-0.146, 9.275e-9
-0.147, 9.385e-9
-0.148, 9.511e-9
-0.149, 9.289e-9
-0.150, 9.259e-9
-0.151, 9.490e-9
-0.152, 9.331e-9
-0.153, 9.192e-9
-0.154, 9.382e-9
-0.155, 9.385e-9
-0.156, 9.163e-9
-0.157, 9.268e-9
-0.158, 9.387e-9
-0.159, 9.186e-9
-0.160, 9.153e-9
-0.161, 9.373e-9
-0.162, 9.228e-9
-0.163, 9.080e-9
-0.164, 9.294e-9
-0.165, 9.282e-9
-0.166, 9.055e-9
-0.167, 9.186e-9
-0.168, 9.294e-9
-0.169, 9.099e-9
-0.170, 9.067e-9
-0.171, 9.281e-9
-0.172, 9.161e-9
-0.173, 8.997e-9
-0.174, 9.203e-9
-0.175, 9.219e-9
-0.176, 8.979e-9
-0.177, 9.114e-9
-0.178, 9.238e-9
-0.179, 9.025e-9
-0.180, 9.020e-9
-0.181, 9.223e-9
-0.182, 9.089e-9
-0.183, 8.950e-9
-0.184, 9.154e-9
-0.185, 9.159e-9
-0.186, 8.945e-9
-0.187, 9.053e-9
-0.188, 9.206e-9
-0.189, 8.974e-9
-0.190, 8.968e-9
-0.191, 9.186e-9
-0.192, 9.056e-9
-0.193, 8.915e-9
-0.194, 9.126e-9
-0.195, 9.118e-9
-0.196, 8.925e-9
-0.197, 9.026e-9
-0.198, 9.165e-9
-0.199, 8.969e-9
