Mar. 16, 2023   09:02:41
Cyclic Voltammetry
File: c:/users/oliverrz/desktop/electrolab/data/2023_03_16\fcmeoh_macros_250_um\electrode8_cv_150mvs_250_um.bin
Data Source:  Experiment
Instrument Model:  CHI760E
Header: CV
Note: 

Init E (V) = -0.2
High E (V) = 0.3
Low E (V) = -0.2
Final E (V) = -0.2
Init P/N = P
Scan Rate (V/s) = 0.15
Segment = 3
Sample Interval (V) = 0.001
Quiet Time (sec) = 2
Sensitivity (A/V) = 1e-7

Results:

Channel 1:
Segment 1:
Ep = 0.066V
ip = -1.574e-8A
Ah = -6.511e-9C

Segment 2:
Ep = 0.000V
ip = 1.817e-8A
Ah = 7.655e-9C

Segment 3:

Potential/V, Current/A

-0.200, 8.868e-9
-0.199, 7.970e-9
-0.198, 7.988e-9
-0.197, 7.604e-9
-0.196, 7.557e-9
-0.195, 7.451e-9
-0.194, 7.155e-9
-0.193, 7.241e-9
-0.192, 6.927e-9
-0.191, 6.901e-9
-0.190, 6.824e-9
-0.189, 6.549e-9
-0.188, 6.671e-9
-0.187, 6.354e-9
-0.186, 6.369e-9
-0.185, 6.271e-9
-0.184, 6.019e-9
-0.183, 6.163e-9
-0.182, 5.834e-9
-0.181, 5.863e-9
-0.180, 5.794e-9
-0.179, 5.524e-9
-0.178, 5.677e-9
-0.177, 5.370e-9
-0.176, 5.404e-9
-0.175, 5.338e-9
-0.174, 5.081e-9
-0.173, 5.239e-9
-0.172, 4.940e-9
-0.171, 4.962e-9
-0.170, 4.926e-9
-0.169, 4.651e-9
-0.168, 4.831e-9
-0.167, 4.532e-9
-0.166, 4.544e-9
-0.165, 4.529e-9
-0.164, 4.275e-9
-0.163, 4.424e-9
-0.162, 4.160e-9
-0.161, 4.169e-9
-0.160, 4.156e-9
-0.159, 3.905e-9
-0.158, 4.062e-9
-0.157, 3.795e-9
-0.156, 3.817e-9
-0.155, 3.794e-9
-0.154, 3.546e-9
-0.153, 3.715e-9
-0.152, 3.443e-9
-0.151, 3.476e-9
-0.150, 3.447e-9
-0.149, 3.213e-9
-0.148, 3.386e-9
-0.147, 3.120e-9
-0.146, 3.150e-9
-0.145, 3.122e-9
-0.144, 2.905e-9
-0.143, 3.071e-9
-0.142, 2.798e-9
-0.141, 2.839e-9
-0.140, 2.816e-9
-0.139, 2.586e-9
-0.138, 2.776e-9
-0.137, 2.486e-9
-0.136, 2.555e-9
-0.135, 2.542e-9
-0.134, 2.278e-9
-0.133, 2.492e-9
-0.132, 2.218e-9
-0.131, 2.248e-9
-0.130, 2.262e-9
-0.129, 1.997e-9
-0.128, 2.199e-9
-0.127, 1.942e-9
-0.126, 1.969e-9
-0.125, 1.974e-9
-0.124, 1.742e-9
-0.123, 1.922e-9
-0.122, 1.672e-9
-0.121, 1.704e-9
-0.120, 1.708e-9
-0.119, 1.468e-9
-0.118, 1.661e-9
-0.117, 1.410e-9
-0.116, 1.434e-9
-0.115, 1.449e-9
-0.114, 1.207e-9
-0.113, 1.390e-9
-0.112, 1.165e-9
-0.111, 1.182e-9
-0.110, 1.180e-9
-0.109, 9.695e-10
-0.108, 1.141e-9
-0.107, 8.872e-10
-0.106, 9.447e-10
-0.105, 9.244e-10
-0.104, 7.039e-10
-0.103, 8.962e-10
-0.102, 6.211e-10
-0.101, 6.764e-10
-0.100, 6.886e-10
-0.099, 4.369e-10
-0.098, 6.416e-10
-0.097, 3.750e-10
-0.096, 4.169e-10
-0.095, 4.336e-10
-0.094, 1.863e-10
-0.093, 3.811e-10
-0.092, 1.234e-10
-0.091, 1.658e-10
-0.090, 1.729e-10
-0.089, -7.804e-11
-0.088, 1.376e-10
-0.087, -1.270e-10
-0.086, -1.076e-10
-0.085, -7.560e-11
-0.084, -3.333e-10
-0.083, -1.392e-10
-0.082, -3.837e-10
-0.081, -3.712e-10
-0.080, -3.460e-10
-0.079, -5.902e-10
-0.078, -4.161e-10
-0.077, -6.686e-10
-0.076, -6.446e-10
-0.075, -6.387e-10
-0.074, -8.781e-10
-0.073, -7.098e-10
-0.072, -9.528e-10
-0.071, -9.329e-10
-0.070, -9.361e-10
-0.069, -1.183e-9
-0.068, -1.007e-9
-0.067, -1.254e-9
-0.066, -1.244e-9
-0.065, -1.257e-9
-0.064, -1.496e-9
-0.063, -1.332e-9
-0.062, -1.610e-9
-0.061, -1.577e-9
-0.060, -1.596e-9
-0.059, -1.864e-9
-0.058, -1.676e-9
-0.057, -1.974e-9
-0.056, -1.960e-9
-0.055, -1.957e-9
-0.054, -2.263e-9
-0.053, -2.078e-9
-0.052, -2.356e-9
-0.051, -2.387e-9
-0.050, -2.380e-9
-0.049, -2.689e-9
-0.048, -2.509e-9
-0.047, -2.803e-9
-0.046, -2.838e-9
-0.045, -2.850e-9
-0.044, -3.150e-9
-0.043, -3.011e-9
-0.042, -3.309e-9
-0.041, -3.355e-9
-0.040, -3.367e-9
-0.039, -3.692e-9
-0.038, -3.564e-9
-0.037, -3.854e-9
-0.036, -3.932e-9
-0.035, -3.962e-9
-0.034, -4.284e-9
-0.033, -4.198e-9
-0.032, -4.477e-9
-0.031, -4.573e-9
-0.030, -4.653e-9
-0.029, -4.961e-9
-0.028, -4.886e-9
-0.027, -5.223e-9
-0.026, -5.311e-9
-0.025, -5.409e-9
-0.024, -5.753e-9
-0.023, -5.662e-9
-0.022, -6.052e-9
-0.021, -6.148e-9
-0.020, -6.237e-9
-0.019, -6.624e-9
-0.018, -6.570e-9
-0.017, -6.952e-9
-0.016, -7.079e-9
-0.015, -7.207e-9
-0.014, -7.611e-9
-0.013, -7.583e-9
-0.012, -7.993e-9
-0.011, -8.129e-9
-0.010, -8.273e-9
-0.009, -8.705e-9
-0.008, -8.673e-9
-0.007, -9.103e-9
-0.006, -9.293e-9
-0.005, -9.423e-9
-0.004, -9.897e-9
-0.003, -9.894e-9
-0.002, -1.032e-8
-0.001, -1.056e-8
-0.000, -1.085e-8
0.001, -1.122e-8
0.002, -1.126e-8
0.003, -1.168e-8
0.004, -1.191e-8
0.005, -1.210e-8
0.006, -1.256e-8
0.007, -1.264e-8
0.008, -1.308e-8
0.009, -1.330e-8
0.010, -1.352e-8
0.011, -1.399e-8
0.012, -1.407e-8
0.013, -1.452e-8
0.014, -1.476e-8
0.015, -1.499e-8
0.016, -1.545e-8
0.017, -1.553e-8
0.018, -1.601e-8
0.019, -1.622e-8
0.020, -1.645e-8
0.021, -1.691e-8
0.022, -1.694e-8
0.023, -1.744e-8
0.024, -1.763e-8
0.025, -1.784e-8
0.026, -1.834e-8
0.027, -1.834e-8
0.028, -1.879e-8
0.029, -1.899e-8
0.030, -1.915e-8
0.031, -1.962e-8
0.032, -1.957e-8
0.033, -2.002e-8
0.034, -2.021e-8
0.035, -2.032e-8
0.036, -2.075e-8
0.037, -2.072e-8
0.038, -2.110e-8
0.039, -2.127e-8
0.040, -2.134e-8
0.041, -2.174e-8
0.042, -2.168e-8
0.043, -2.198e-8
0.044, -2.213e-8
0.045, -2.217e-8
0.046, -2.250e-8
0.047, -2.244e-8
0.048, -2.269e-8
0.049, -2.277e-8
0.050, -2.282e-8
0.051, -2.310e-8
0.052, -2.296e-8
0.053, -2.323e-8
0.054, -2.323e-8
0.055, -2.325e-8
0.056, -2.348e-8
0.057, -2.330e-8
0.058, -2.353e-8
0.059, -2.352e-8
0.060, -2.344e-8
0.061, -2.367e-8
0.062, -2.346e-8
0.063, -2.363e-8
0.064, -2.359e-8
0.065, -2.350e-8
0.066, -2.371e-8
0.067, -2.343e-8
0.068, -2.361e-8
0.069, -2.352e-8
0.070, -2.339e-8
0.071, -2.359e-8
0.072, -2.327e-8
0.073, -2.341e-8
0.074, -2.334e-8
0.075, -2.316e-8
0.076, -2.334e-8
0.077, -2.304e-8
0.078, -2.313e-8
0.079, -2.306e-8
0.080, -2.285e-8
0.081, -2.299e-8
0.082, -2.270e-8
0.083, -2.277e-8
0.084, -2.267e-8
0.085, -2.248e-8
0.086, -2.260e-8
0.087, -2.229e-8
0.088, -2.235e-8
0.089, -2.225e-8
0.090, -2.207e-8
0.091, -2.217e-8
0.092, -2.185e-8
0.093, -2.192e-8
0.094, -2.179e-8
0.095, -2.161e-8
0.096, -2.171e-8
0.097, -2.139e-8
0.098, -2.148e-8
0.099, -2.132e-8
0.100, -2.114e-8
0.101, -2.126e-8
0.102, -2.094e-8
0.103, -2.102e-8
0.104, -2.089e-8
0.105, -2.067e-8
0.106, -2.081e-8
0.107, -2.048e-8
0.108, -2.056e-8
0.109, -2.043e-8
0.110, -2.024e-8
0.111, -2.036e-8
0.112, -2.003e-8
0.113, -2.012e-8
0.114, -2.001e-8
0.115, -1.980e-8
0.116, -1.995e-8
0.117, -1.961e-8
0.118, -1.969e-8
0.119, -1.960e-8
0.120, -1.938e-8
0.121, -1.953e-8
0.122, -1.923e-8
0.123, -1.929e-8
0.124, -1.921e-8
0.125, -1.902e-8
0.126, -1.916e-8
0.127, -1.886e-8
0.128, -1.894e-8
0.129, -1.885e-8
0.130, -1.867e-8
0.131, -1.880e-8
0.132, -1.850e-8
0.133, -1.861e-8
0.134, -1.849e-8
0.135, -1.834e-8
0.136, -1.848e-8
0.137, -1.818e-8
0.138, -1.829e-8
0.139, -1.820e-8
0.140, -1.803e-8
0.141, -1.819e-8
0.142, -1.790e-8
0.143, -1.801e-8
0.144, -1.792e-8
0.145, -1.776e-8
0.146, -1.793e-8
0.147, -1.763e-8
0.148, -1.776e-8
0.149, -1.767e-8
0.150, -1.750e-8
0.151, -1.770e-8
0.152, -1.739e-8
0.153, -1.752e-8
0.154, -1.747e-8
0.155, -1.728e-8
0.156, -1.748e-8
0.157, -1.720e-8
0.158, -1.730e-8
0.159, -1.727e-8
0.160, -1.710e-8
0.161, -1.728e-8
0.162, -1.702e-8
0.163, -1.714e-8
0.164, -1.707e-8
0.165, -1.693e-8
0.166, -1.713e-8
0.167, -1.686e-8
0.168, -1.698e-8
0.169, -1.694e-8
0.170, -1.678e-8
0.171, -1.699e-8
0.172, -1.674e-8
0.173, -1.684e-8
0.174, -1.681e-8
0.175, -1.669e-8
0.176, -1.685e-8
0.177, -1.662e-8
0.178, -1.676e-8
0.179, -1.672e-8
0.180, -1.658e-8
0.181, -1.679e-8
0.182, -1.652e-8
0.183, -1.668e-8
0.184, -1.665e-8
0.185, -1.649e-8
0.186, -1.673e-8
0.187, -1.647e-8
0.188, -1.661e-8
0.189, -1.660e-8
0.190, -1.645e-8
0.191, -1.668e-8
0.192, -1.643e-8
0.193, -1.658e-8
0.194, -1.658e-8
0.195, -1.642e-8
0.196, -1.666e-8
0.197, -1.642e-8
0.198, -1.656e-8
0.199, -1.657e-8
0.200, -1.641e-8
0.201, -1.665e-8
0.202, -1.644e-8
0.203, -1.658e-8
0.204, -1.659e-8
0.205, -1.646e-8
0.206, -1.667e-8
0.207, -1.647e-8
0.208, -1.661e-8
0.209, -1.661e-8
0.210, -1.649e-8
0.211, -1.672e-8
0.212, -1.651e-8
0.213, -1.666e-8
0.214, -1.667e-8
0.215, -1.656e-8
0.216, -1.678e-8
0.217, -1.658e-8
0.218, -1.674e-8
0.219, -1.675e-8
0.220, -1.663e-8
0.221, -1.687e-8
0.222, -1.666e-8
0.223, -1.683e-8
0.224, -1.684e-8
0.225, -1.672e-8
0.226, -1.699e-8
0.227, -1.676e-8
0.228, -1.694e-8
0.229, -1.697e-8
0.230, -1.684e-8
0.231, -1.711e-8
0.232, -1.690e-8
0.233, -1.705e-8
0.234, -1.711e-8
0.235, -1.697e-8
0.236, -1.723e-8
0.237, -1.703e-8
0.238, -1.719e-8
0.239, -1.725e-8
0.240, -1.712e-8
0.241, -1.738e-8
0.242, -1.719e-8
0.243, -1.736e-8
0.244, -1.740e-8
0.245, -1.729e-8
0.246, -1.755e-8
0.247, -1.736e-8
0.248, -1.751e-8
0.249, -1.757e-8
0.250, -1.748e-8
0.251, -1.772e-8
0.252, -1.754e-8
0.253, -1.771e-8
0.254, -1.775e-8
0.255, -1.766e-8
0.256, -1.793e-8
0.257, -1.772e-8
0.258, -1.792e-8
0.259, -1.795e-8
0.260, -1.785e-8
0.261, -1.813e-8
0.262, -1.793e-8
0.263, -1.812e-8
0.264, -1.816e-8
0.265, -1.805e-8
0.266, -1.834e-8
0.267, -1.815e-8
0.268, -1.833e-8
0.269, -1.839e-8
0.270, -1.828e-8
0.271, -1.857e-8
0.272, -1.837e-8
0.273, -1.856e-8
0.274, -1.862e-8
0.275, -1.850e-8
0.276, -1.881e-8
0.277, -1.862e-8
0.278, -1.878e-8
0.279, -1.888e-8
0.280, -1.875e-8
0.281, -1.905e-8
0.282, -1.889e-8
0.283, -1.904e-8
0.284, -1.913e-8
0.285, -1.902e-8
0.286, -1.929e-8
0.287, -1.915e-8
0.288, -1.931e-8
0.289, -1.938e-8
0.290, -1.931e-8
0.291, -1.958e-8
0.292, -1.941e-8
0.293, -1.960e-8
0.294, -1.969e-8
0.295, -1.959e-8
0.296, -1.987e-8
0.297, -1.972e-8
0.298, -1.991e-8
0.299, -1.998e-8
0.300, -1.711e-8
0.299, -1.535e-8
0.298, -1.451e-8
0.297, -1.414e-8
0.296, -1.378e-8
0.295, -1.328e-8
0.294, -1.322e-8
0.293, -1.273e-8
0.292, -1.260e-8
0.291, -1.241e-8
0.290, -1.202e-8
0.289, -1.207e-8
0.288, -1.168e-8
0.287, -1.159e-8
0.286, -1.148e-8
0.285, -1.117e-8
0.284, -1.123e-8
0.283, -1.090e-8
0.282, -1.088e-8
0.281, -1.075e-8
0.280, -1.050e-8
0.279, -1.060e-8
0.278, -1.027e-8
0.277, -1.029e-8
0.276, -1.020e-8
0.275, -9.945e-9
0.274, -1.009e-8
0.273, -9.765e-9
0.272, -9.789e-9
0.271, -9.749e-9
0.270, -9.484e-9
0.269, -9.640e-9
0.268, -9.335e-9
0.267, -9.386e-9
0.266, -9.337e-9
0.265, -9.097e-9
0.264, -9.265e-9
0.263, -8.975e-9
0.262, -9.018e-9
0.261, -9.004e-9
0.260, -8.744e-9
0.259, -8.949e-9
0.258, -8.662e-9
0.257, -8.690e-9
0.256, -8.690e-9
0.255, -8.460e-9
0.254, -8.626e-9
0.253, -8.381e-9
0.252, -8.415e-9
0.251, -8.417e-9
0.250, -8.191e-9
0.249, -8.366e-9
0.248, -8.117e-9
0.247, -8.170e-9
0.246, -8.167e-9
0.245, -7.952e-9
0.244, -8.119e-9
0.243, -7.882e-9
0.242, -7.936e-9
0.241, -7.922e-9
0.240, -7.726e-9
0.239, -7.911e-9
0.238, -7.655e-9
0.237, -7.727e-9
0.236, -7.711e-9
0.235, -7.522e-9
0.234, -7.711e-9
0.233, -7.443e-9
0.232, -7.523e-9
0.231, -7.521e-9
0.230, -7.308e-9
0.229, -7.519e-9
0.228, -7.251e-9
0.227, -7.343e-9
0.226, -7.346e-9
0.225, -7.118e-9
0.224, -7.344e-9
0.223, -7.080e-9
0.222, -7.147e-9
0.221, -7.170e-9
0.220, -6.944e-9
0.219, -7.158e-9
0.218, -6.907e-9
0.217, -6.969e-9
0.216, -7.001e-9
0.215, -6.784e-9
0.214, -6.979e-9
0.213, -6.758e-9
0.212, -6.795e-9
0.211, -6.841e-9
0.210, -6.629e-9
0.209, -6.809e-9
0.208, -6.604e-9
0.207, -6.656e-9
0.206, -6.662e-9
0.205, -6.468e-9
0.204, -6.651e-9
0.203, -6.434e-9
0.202, -6.505e-9
0.201, -6.510e-9
0.200, -6.308e-9
0.199, -6.520e-9
0.198, -6.273e-9
0.197, -6.341e-9
0.196, -6.366e-9
0.195, -6.154e-9
0.194, -6.366e-9
0.193, -6.125e-9
0.192, -6.186e-9
0.191, -6.216e-9
0.190, -6.012e-9
0.189, -6.213e-9
0.188, -5.971e-9
0.187, -6.055e-9
0.186, -6.068e-9
0.185, -5.849e-9
0.184, -6.077e-9
0.183, -5.828e-9
0.182, -5.890e-9
0.181, -5.935e-9
0.180, -5.684e-9
0.179, -5.914e-9
0.178, -5.684e-9
0.177, -5.726e-9
0.176, -5.777e-9
0.175, -5.554e-9
0.174, -5.741e-9
0.173, -5.539e-9
0.172, -5.578e-9
0.171, -5.606e-9
0.170, -5.407e-9
0.169, -5.599e-9
0.168, -5.361e-9
0.167, -5.426e-9
0.166, -5.452e-9
0.165, -5.231e-9
0.164, -5.436e-9
0.163, -5.210e-9
0.162, -5.252e-9
0.161, -5.283e-9
0.160, -5.074e-9
0.159, -5.258e-9
0.158, -5.035e-9
0.157, -5.087e-9
0.156, -5.098e-9
0.155, -4.896e-9
0.154, -5.083e-9
0.153, -4.839e-9
0.152, -4.893e-9
0.151, -4.924e-9
0.150, -4.686e-9
0.149, -4.901e-9
0.148, -4.644e-9
0.147, -4.702e-9
0.146, -4.727e-9
0.145, -4.483e-9
0.144, -4.690e-9
0.143, -4.441e-9
0.142, -4.478e-9
0.141, -4.501e-9
0.140, -4.255e-9
0.139, -4.464e-9
0.138, -4.217e-9
0.137, -4.228e-9
0.136, -4.272e-9
0.135, -4.014e-9
0.134, -4.194e-9
0.133, -3.965e-9
0.132, -3.964e-9
0.131, -4.006e-9
0.130, -3.748e-9
0.129, -3.909e-9
0.128, -3.669e-9
0.127, -3.696e-9
0.126, -3.680e-9
0.125, -3.449e-9
0.124, -3.605e-9
0.123, -3.361e-9
0.122, -3.366e-9
0.121, -3.357e-9
0.120, -3.111e-9
0.119, -3.261e-9
0.118, -2.990e-9
0.117, -2.984e-9
0.116, -2.979e-9
0.115, -2.707e-9
0.114, -2.855e-9
0.113, -2.581e-9
0.112, -2.570e-9
0.111, -2.540e-9
0.110, -2.263e-9
0.109, -2.407e-9
0.108, -2.088e-9
0.107, -2.083e-9
0.106, -2.057e-9
0.105, -1.734e-9
0.104, -1.881e-9
0.103, -1.553e-9
0.102, -1.507e-9
0.101, -1.487e-9
0.100, -1.136e-9
0.099, -1.277e-9
0.098, -9.629e-10
0.097, -8.709e-10
0.096, -8.327e-10
0.095, -5.001e-10
0.094, -5.767e-10
0.093, -2.542e-10
0.092, -1.512e-10
0.091, -9.430e-11
0.090, 2.617e-10
0.089, 2.034e-10
0.088, 5.584e-10
0.087, 6.577e-10
0.086, 7.484e-10
0.085, 1.134e-9
0.084, 1.097e-9
0.083, 1.442e-9
0.082, 1.586e-9
0.081, 1.716e-9
0.080, 2.080e-9
0.079, 2.092e-9
0.078, 2.456e-9
0.077, 2.617e-9
0.076, 2.778e-9
0.075, 3.153e-9
0.074, 3.161e-9
0.073, 3.602e-9
0.072, 3.746e-9
0.071, 3.906e-9
0.070, 4.353e-9
0.069, 4.366e-9
0.068, 4.805e-9
0.067, 4.981e-9
0.066, 5.145e-9
0.065, 5.632e-9
0.064, 5.653e-9
0.063, 6.102e-9
0.062, 6.314e-9
0.061, 6.491e-9
0.060, 6.981e-9
0.059, 7.009e-9
0.058, 7.470e-9
0.057, 7.705e-9
0.056, 7.879e-9
0.055, 8.379e-9
0.054, 8.415e-9
0.053, 8.891e-9
0.052, 9.151e-9
0.051, 9.319e-9
0.050, 9.802e-9
0.049, 9.891e-9
0.048, 1.030e-8
0.047, 1.056e-8
0.046, 1.074e-8
0.045, 1.120e-8
0.044, 1.128e-8
0.043, 1.169e-8
0.042, 1.192e-8
0.041, 1.210e-8
0.040, 1.255e-8
0.039, 1.260e-8
0.038, 1.301e-8
0.037, 1.320e-8
0.036, 1.338e-8
0.035, 1.377e-8
0.034, 1.381e-8
0.033, 1.422e-8
0.032, 1.436e-8
0.031, 1.450e-8
0.030, 1.489e-8
0.029, 1.487e-8
0.028, 1.526e-8
0.027, 1.537e-8
0.026, 1.547e-8
0.025, 1.586e-8
0.024, 1.578e-8
0.023, 1.611e-8
0.022, 1.621e-8
0.021, 1.625e-8
0.020, 1.661e-8
0.019, 1.650e-8
0.018, 1.677e-8
0.017, 1.686e-8
0.016, 1.683e-8
0.015, 1.715e-8
0.014, 1.702e-8
0.013, 1.726e-8
0.012, 1.731e-8
0.011, 1.724e-8
0.010, 1.752e-8
0.009, 1.734e-8
0.008, 1.756e-8
0.007, 1.756e-8
0.006, 1.747e-8
0.005, 1.771e-8
0.004, 1.752e-8
0.003, 1.767e-8
0.002, 1.764e-8
0.001, 1.757e-8
0.000, 1.786e-8
-0.001, 1.756e-8
-0.002, 1.769e-8
-0.003, 1.761e-8
-0.004, 1.752e-8
-0.005, 1.766e-8
-0.006, 1.740e-8
-0.007, 1.756e-8
-0.008, 1.745e-8
-0.009, 1.731e-8
-0.010, 1.748e-8
-0.011, 1.718e-8
-0.012, 1.732e-8
-0.013, 1.722e-8
-0.014, 1.705e-8
-0.015, 1.721e-8
-0.016, 1.692e-8
-0.017, 1.701e-8
-0.018, 1.692e-8
-0.019, 1.673e-8
-0.020, 1.689e-8
-0.021, 1.657e-8
-0.022, 1.669e-8
-0.023, 1.658e-8
-0.024, 1.638e-8
-0.025, 1.655e-8
-0.026, 1.623e-8
-0.027, 1.631e-8
-0.028, 1.624e-8
-0.029, 1.602e-8
-0.030, 1.616e-8
-0.031, 1.588e-8
-0.032, 1.594e-8
-0.033, 1.584e-8
-0.034, 1.567e-8
-0.035, 1.579e-8
-0.036, 1.551e-8
-0.037, 1.559e-8
-0.038, 1.549e-8
-0.039, 1.531e-8
-0.040, 1.545e-8
-0.041, 1.516e-8
-0.042, 1.525e-8
-0.043, 1.515e-8
-0.044, 1.498e-8
-0.045, 1.511e-8
-0.046, 1.483e-8
-0.047, 1.493e-8
-0.048, 1.483e-8
-0.049, 1.465e-8
-0.050, 1.481e-8
-0.051, 1.453e-8
-0.052, 1.464e-8
-0.053, 1.454e-8
-0.054, 1.437e-8
-0.055, 1.454e-8
-0.056, 1.425e-8
-0.057, 1.436e-8
-0.058, 1.429e-8
-0.059, 1.411e-8
-0.060, 1.430e-8
-0.061, 1.401e-8
-0.062, 1.412e-8
-0.063, 1.406e-8
-0.064, 1.389e-8
-0.065, 1.407e-8
-0.066, 1.380e-8
-0.067, 1.391e-8
-0.068, 1.387e-8
-0.069, 1.368e-8
-0.070, 1.388e-8
-0.071, 1.363e-8
-0.072, 1.373e-8
-0.073, 1.369e-8
-0.074, 1.353e-8
-0.075, 1.372e-8
-0.076, 1.347e-8
-0.077, 1.359e-8
-0.078, 1.355e-8
-0.079, 1.341e-8
-0.080, 1.358e-8
-0.081, 1.335e-8
-0.082, 1.348e-8
-0.083, 1.343e-8
-0.084, 1.331e-8
-0.085, 1.350e-8
-0.086, 1.324e-8
-0.087, 1.341e-8
-0.088, 1.336e-8
-0.089, 1.321e-8
-0.090, 1.345e-8
-0.091, 1.319e-8
-0.092, 1.334e-8
-0.093, 1.331e-8
-0.094, 1.317e-8
-0.095, 1.339e-8
-0.096, 1.316e-8
-0.097, 1.330e-8
-0.098, 1.328e-8
-0.099, 1.315e-8
-0.100, 1.338e-8
-0.101, 1.314e-8
-0.102, 1.331e-8
-0.103, 1.329e-8
-0.104, 1.315e-8
-0.105, 1.339e-8
-0.106, 1.316e-8
-0.107, 1.331e-8
-0.108, 1.333e-8
-0.109, 1.317e-8
-0.110, 1.341e-8
-0.111, 1.322e-8
-0.112, 1.335e-8
-0.113, 1.336e-8
-0.114, 1.325e-8
-0.115, 1.347e-8
-0.116, 1.328e-8
-0.117, 1.342e-8
-0.118, 1.343e-8
-0.119, 1.332e-8
-0.120, 1.356e-8
-0.121, 1.335e-8
-0.122, 1.352e-8
-0.123, 1.353e-8
-0.124, 1.342e-8
-0.125, 1.365e-8
-0.126, 1.346e-8
-0.127, 1.364e-8
-0.128, 1.365e-8
-0.129, 1.354e-8
-0.130, 1.379e-8
-0.131, 1.358e-8
-0.132, 1.377e-8
-0.133, 1.379e-8
-0.134, 1.366e-8
-0.135, 1.395e-8
-0.136, 1.374e-8
-0.137, 1.391e-8
-0.138, 1.395e-8
-0.139, 1.383e-8
-0.140, 1.412e-8
-0.141, 1.392e-8
-0.142, 1.408e-8
-0.143, 1.414e-8
-0.144, 1.402e-8
-0.145, 1.430e-8
-0.146, 1.411e-8
-0.147, 1.429e-8
-0.148, 1.434e-8
-0.149, 1.422e-8
-0.150, 1.450e-8
-0.151, 1.433e-8
-0.152, 1.450e-8
-0.153, 1.456e-8
-0.154, 1.446e-8
-0.155, 1.473e-8
-0.156, 1.458e-8
-0.157, 1.473e-8
-0.158, 1.480e-8
-0.159, 1.472e-8
-0.160, 1.497e-8
-0.161, 1.482e-8
-0.162, 1.502e-8
-0.163, 1.505e-8
-0.164, 1.499e-8
-0.165, 1.526e-8
-0.166, 1.509e-8
-0.167, 1.531e-8
-0.168, 1.535e-8
-0.169, 1.526e-8
-0.170, 1.558e-8
-0.171, 1.540e-8
-0.172, 1.561e-8
-0.173, 1.567e-8
-0.174, 1.558e-8
-0.175, 1.589e-8
-0.176, 1.574e-8
-0.177, 1.593e-8
-0.178, 1.601e-8
-0.179, 1.594e-8
-0.180, 1.624e-8
-0.181, 1.608e-8
-0.182, 1.630e-8
-0.183, 1.639e-8
-0.184, 1.629e-8
-0.185, 1.663e-8
-0.186, 1.647e-8
-0.187, 1.667e-8
-0.188, 1.680e-8
-0.189, 1.669e-8
-0.190, 1.702e-8
-0.191, 1.691e-8
-0.192, 1.709e-8
-0.193, 1.720e-8
-0.194, 1.714e-8
-0.195, 1.744e-8
-0.196, 1.734e-8
-0.197, 1.754e-8
-0.198, 1.764e-8
-0.199, 1.759e-8
