Mar. 16, 2023   09:00:13
Cyclic Voltammetry
File: c:/users/oliverrz/desktop/electrolab/data/2023_03_16\fcmeoh_macros_250_um\electrode6_cv_200mvs_250_um.bin
Data Source:  Experiment
Instrument Model:  CHI760E
Header: CV
Note: 

Init E (V) = -0.2
High E (V) = 0.3
Low E (V) = -0.2
Final E (V) = -0.2
Init P/N = P
Scan Rate (V/s) = 0.2
Segment = 3
Sample Interval (V) = 0.001
Quiet Time (sec) = 2
Sensitivity (A/V) = 1e-7

Results:

Channel 1:
Segment 1:
Ep = 0.068V
ip = -2.426e-8A
Ah = -7.366e-9C

Segment 2:
Ep = 0.007V
ip = 2.307e-8A
Ah = 7.210e-9C

Segment 3:

Potential/V, Current/A

-0.200, 2.634e-9
-0.199, 1.915e-9
-0.198, 1.835e-9
-0.197, 2.012e-9
-0.196, 1.837e-9
-0.195, 1.705e-9
-0.194, 1.870e-9
-0.193, 1.836e-9
-0.192, 1.611e-9
-0.191, 1.732e-9
-0.190, 1.803e-9
-0.189, 1.616e-9
-0.188, 1.573e-9
-0.187, 1.770e-9
-0.186, 1.618e-9
-0.185, 1.478e-9
-0.184, 1.669e-9
-0.183, 1.651e-9
-0.182, 1.418e-9
-0.181, 1.547e-9
-0.180, 1.631e-9
-0.179, 1.430e-9
-0.178, 1.407e-9
-0.177, 1.600e-9
-0.176, 1.455e-9
-0.175, 1.331e-9
-0.174, 1.502e-9
-0.173, 1.502e-9
-0.172, 1.267e-9
-0.171, 1.399e-9
-0.170, 1.495e-9
-0.169, 1.289e-9
-0.168, 1.273e-9
-0.167, 1.468e-9
-0.166, 1.310e-9
-0.165, 1.202e-9
-0.164, 1.368e-9
-0.163, 1.365e-9
-0.162, 1.143e-9
-0.161, 1.264e-9
-0.160, 1.367e-9
-0.159, 1.172e-9
-0.158, 1.140e-9
-0.157, 1.353e-9
-0.156, 1.186e-9
-0.155, 1.070e-9
-0.154, 1.253e-9
-0.153, 1.236e-9
-0.152, 1.030e-9
-0.151, 1.154e-9
-0.150, 1.236e-9
-0.149, 1.053e-9
-0.148, 1.020e-9
-0.147, 1.238e-9
-0.146, 1.082e-9
-0.145, 9.535e-10
-0.144, 1.145e-9
-0.143, 1.131e-9
-0.142, 9.017e-10
-0.141, 1.047e-9
-0.140, 1.127e-9
-0.139, 9.350e-10
-0.138, 9.141e-10
-0.137, 1.110e-9
-0.136, 9.647e-10
-0.135, 8.415e-10
-0.134, 1.020e-9
-0.133, 1.023e-9
-0.132, 7.902e-10
-0.131, 9.226e-10
-0.130, 1.021e-9
-0.129, 8.144e-10
-0.128, 7.943e-10
-0.127, 9.994e-10
-0.126, 8.408e-10
-0.125, 7.316e-10
-0.124, 9.003e-10
-0.123, 8.990e-10
-0.122, 6.750e-10
-0.121, 7.992e-10
-0.120, 8.927e-10
-0.119, 7.033e-10
-0.118, 6.633e-10
-0.117, 8.795e-10
-0.116, 7.118e-10
-0.115, 5.945e-10
-0.114, 7.787e-10
-0.113, 7.637e-10
-0.112, 5.429e-10
-0.111, 6.770e-10
-0.110, 7.518e-10
-0.109, 5.672e-10
-0.108, 5.227e-10
-0.107, 7.372e-10
-0.106, 5.818e-10
-0.105, 4.433e-10
-0.104, 6.367e-10
-0.103, 6.109e-10
-0.102, 3.829e-10
-0.101, 5.183e-10
-0.100, 5.942e-10
-0.099, 3.986e-10
-0.098, 3.701e-10
-0.097, 5.638e-10
-0.096, 4.053e-10
-0.095, 2.808e-10
-0.094, 4.518e-10
-0.093, 4.453e-10
-0.092, 1.976e-10
-0.091, 3.341e-10
-0.090, 4.059e-10
-0.089, 1.941e-10
-0.088, 1.763e-10
-0.087, 3.655e-10
-0.086, 2.006e-10
-0.085, 6.844e-11
-0.084, 2.281e-10
-0.083, 2.174e-10
-0.082, -1.662e-11
-0.081, 9.049e-11
-0.080, 1.726e-10
-0.079, -3.975e-11
-0.078, -8.415e-11
-0.077, 9.758e-11
-0.076, -6.988e-11
-0.075, -2.050e-10
-0.074, -4.212e-11
-0.073, -8.376e-11
-0.072, -3.126e-10
-0.071, -2.123e-10
-0.070, -1.476e-10
-0.069, -3.681e-10
-0.068, -4.132e-10
-0.067, -2.390e-10
-0.066, -4.100e-10
-0.065, -5.926e-10
-0.064, -4.128e-10
-0.063, -4.674e-10
-0.062, -7.161e-10
-0.061, -6.185e-10
-0.060, -5.747e-10
-0.059, -8.087e-10
-0.058, -8.519e-10
-0.057, -7.166e-10
-0.056, -8.921e-10
-0.055, -1.066e-9
-0.054, -9.377e-10
-0.053, -9.874e-10
-0.052, -1.265e-9
-0.051, -1.194e-9
-0.050, -1.144e-9
-0.049, -1.413e-9
-0.048, -1.468e-9
-0.047, -1.346e-9
-0.046, -1.562e-9
-0.045, -1.748e-9
-0.044, -1.637e-9
-0.043, -1.722e-9
-0.042, -2.000e-9
-0.041, -1.977e-9
-0.040, -1.940e-9
-0.039, -2.244e-9
-0.038, -2.337e-9
-0.037, -2.229e-9
-0.036, -2.467e-9
-0.035, -2.698e-9
-0.034, -2.589e-9
-0.033, -2.738e-9
-0.032, -3.027e-9
-0.031, -3.034e-9
-0.030, -3.051e-9
-0.029, -3.371e-9
-0.028, -3.492e-9
-0.027, -3.444e-9
-0.026, -3.703e-9
-0.025, -3.991e-9
-0.024, -3.915e-9
-0.023, -4.092e-9
-0.022, -4.441e-9
-0.021, -4.484e-9
-0.020, -4.541e-9
-0.019, -4.901e-9
-0.018, -5.069e-9
-0.017, -5.082e-9
-0.016, -5.370e-9
-0.015, -5.702e-9
-0.014, -5.691e-9
-0.013, -5.914e-9
-0.012, -6.306e-9
-0.011, -6.402e-9
-0.010, -6.494e-9
-0.009, -6.940e-9
-0.008, -7.144e-9
-0.007, -7.201e-9
-0.006, -7.574e-9
-0.005, -7.928e-9
-0.004, -7.991e-9
-0.003, -8.263e-9
-0.002, -8.692e-9
-0.001, -8.873e-9
-0.000, -9.142e-9
0.001, -9.540e-9
0.002, -9.804e-9
0.003, -9.880e-9
0.004, -1.032e-8
0.005, -1.072e-8
0.006, -1.082e-8
0.007, -1.117e-8
0.008, -1.162e-8
0.009, -1.183e-8
0.010, -1.205e-8
0.011, -1.255e-8
0.012, -1.287e-8
0.013, -1.301e-8
0.014, -1.346e-8
0.015, -1.394e-8
0.016, -1.402e-8
0.017, -1.440e-8
0.018, -1.492e-8
0.019, -1.513e-8
0.020, -1.538e-8
0.021, -1.591e-8
0.022, -1.621e-8
0.023, -1.641e-8
0.024, -1.684e-8
0.025, -1.731e-8
0.026, -1.744e-8
0.027, -1.778e-8
0.028, -1.830e-8
0.029, -1.848e-8
0.030, -1.872e-8
0.031, -1.923e-8
0.032, -1.949e-8
0.033, -1.964e-8
0.034, -2.007e-8
0.035, -2.046e-8
0.036, -2.058e-8
0.037, -2.086e-8
0.038, -2.132e-8
0.039, -2.150e-8
0.040, -2.162e-8
0.041, -2.209e-8
0.042, -2.231e-8
0.043, -2.236e-8
0.044, -2.274e-8
0.045, -2.305e-8
0.046, -2.308e-8
0.047, -2.333e-8
0.048, -2.365e-8
0.049, -2.374e-8
0.050, -2.381e-8
0.051, -2.416e-8
0.052, -2.432e-8
0.053, -2.428e-8
0.054, -2.452e-8
0.055, -2.479e-8
0.056, -2.467e-8
0.057, -2.483e-8
0.058, -2.509e-8
0.059, -2.505e-8
0.060, -2.505e-8
0.061, -2.528e-8
0.062, -2.533e-8
0.063, -2.522e-8
0.064, -2.538e-8
0.065, -2.552e-8
0.066, -2.536e-8
0.067, -2.538e-8
0.068, -2.558e-8
0.069, -2.546e-8
0.070, -2.534e-8
0.071, -2.554e-8
0.072, -2.548e-8
0.073, -2.528e-8
0.074, -2.537e-8
0.075, -2.545e-8
0.076, -2.522e-8
0.077, -2.519e-8
0.078, -2.531e-8
0.079, -2.515e-8
0.080, -2.495e-8
0.081, -2.509e-8
0.082, -2.500e-8
0.083, -2.473e-8
0.084, -2.479e-8
0.085, -2.482e-8
0.086, -2.452e-8
0.087, -2.447e-8
0.088, -2.454e-8
0.089, -2.433e-8
0.090, -2.414e-8
0.091, -2.421e-8
0.092, -2.412e-8
0.093, -2.382e-8
0.094, -2.382e-8
0.095, -2.386e-8
0.096, -2.353e-8
0.097, -2.345e-8
0.098, -2.354e-8
0.099, -2.328e-8
0.100, -2.309e-8
0.101, -2.316e-8
0.102, -2.304e-8
0.103, -2.275e-8
0.104, -2.274e-8
0.105, -2.275e-8
0.106, -2.245e-8
0.107, -2.233e-8
0.108, -2.243e-8
0.109, -2.218e-8
0.110, -2.197e-8
0.111, -2.206e-8
0.112, -2.194e-8
0.113, -2.163e-8
0.114, -2.167e-8
0.115, -2.167e-8
0.116, -2.137e-8
0.117, -2.127e-8
0.118, -2.136e-8
0.119, -2.114e-8
0.120, -2.092e-8
0.121, -2.101e-8
0.122, -2.092e-8
0.123, -2.060e-8
0.124, -2.066e-8
0.125, -2.066e-8
0.126, -2.037e-8
0.127, -2.030e-8
0.128, -2.039e-8
0.129, -2.017e-8
0.130, -1.997e-8
0.131, -2.007e-8
0.132, -1.999e-8
0.133, -1.969e-8
0.134, -1.974e-8
0.135, -1.978e-8
0.136, -1.949e-8
0.137, -1.941e-8
0.138, -1.954e-8
0.139, -1.931e-8
0.140, -1.915e-8
0.141, -1.925e-8
0.142, -1.918e-8
0.143, -1.890e-8
0.144, -1.896e-8
0.145, -1.900e-8
0.146, -1.874e-8
0.147, -1.866e-8
0.148, -1.881e-8
0.149, -1.859e-8
0.150, -1.842e-8
0.151, -1.855e-8
0.152, -1.848e-8
0.153, -1.821e-8
0.154, -1.831e-8
0.155, -1.834e-8
0.156, -1.809e-8
0.157, -1.803e-8
0.158, -1.817e-8
0.159, -1.798e-8
0.160, -1.782e-8
0.161, -1.794e-8
0.162, -1.791e-8
0.163, -1.763e-8
0.164, -1.773e-8
0.165, -1.777e-8
0.166, -1.754e-8
0.167, -1.750e-8
0.168, -1.764e-8
0.169, -1.745e-8
0.170, -1.731e-8
0.171, -1.743e-8
0.172, -1.741e-8
0.173, -1.714e-8
0.174, -1.725e-8
0.175, -1.732e-8
0.176, -1.706e-8
0.177, -1.703e-8
0.178, -1.721e-8
0.179, -1.701e-8
0.180, -1.688e-8
0.181, -1.702e-8
0.182, -1.698e-8
0.183, -1.675e-8
0.184, -1.684e-8
0.185, -1.691e-8
0.186, -1.669e-8
0.187, -1.665e-8
0.188, -1.683e-8
0.189, -1.663e-8
0.190, -1.651e-8
0.191, -1.667e-8
0.192, -1.664e-8
0.193, -1.640e-8
0.194, -1.652e-8
0.195, -1.658e-8
0.196, -1.637e-8
0.197, -1.633e-8
0.198, -1.651e-8
0.199, -1.634e-8
0.200, -1.622e-8
0.201, -1.637e-8
0.202, -1.636e-8
0.203, -1.610e-8
0.204, -1.624e-8
0.205, -1.632e-8
0.206, -1.609e-8
0.207, -1.608e-8
0.208, -1.625e-8
0.209, -1.609e-8
0.210, -1.598e-8
0.211, -1.612e-8
0.212, -1.612e-8
0.213, -1.588e-8
0.214, -1.600e-8
0.215, -1.610e-8
0.216, -1.587e-8
0.217, -1.585e-8
0.218, -1.605e-8
0.219, -1.587e-8
0.220, -1.577e-8
0.221, -1.593e-8
0.222, -1.592e-8
0.223, -1.570e-8
0.224, -1.581e-8
0.225, -1.591e-8
0.226, -1.570e-8
0.227, -1.568e-8
0.228, -1.588e-8
0.229, -1.571e-8
0.230, -1.561e-8
0.231, -1.578e-8
0.232, -1.576e-8
0.233, -1.554e-8
0.234, -1.568e-8
0.235, -1.575e-8
0.236, -1.557e-8
0.237, -1.554e-8
0.238, -1.574e-8
0.239, -1.559e-8
0.240, -1.548e-8
0.241, -1.565e-8
0.242, -1.565e-8
0.243, -1.542e-8
0.244, -1.557e-8
0.245, -1.565e-8
0.246, -1.545e-8
0.247, -1.546e-8
0.248, -1.564e-8
0.249, -1.549e-8
0.250, -1.540e-8
0.251, -1.556e-8
0.252, -1.557e-8
0.253, -1.534e-8
0.254, -1.548e-8
0.255, -1.560e-8
0.256, -1.538e-8
0.257, -1.538e-8
0.258, -1.560e-8
0.259, -1.543e-8
0.260, -1.534e-8
0.261, -1.552e-8
0.262, -1.551e-8
0.263, -1.532e-8
0.264, -1.545e-8
0.265, -1.554e-8
0.266, -1.536e-8
0.267, -1.535e-8
0.268, -1.557e-8
0.269, -1.542e-8
0.270, -1.532e-8
0.271, -1.551e-8
0.272, -1.550e-8
0.273, -1.529e-8
0.274, -1.545e-8
0.275, -1.555e-8
0.276, -1.536e-8
0.277, -1.537e-8
0.278, -1.557e-8
0.279, -1.545e-8
0.280, -1.533e-8
0.281, -1.554e-8
0.282, -1.555e-8
0.283, -1.534e-8
0.284, -1.549e-8
0.285, -1.560e-8
0.286, -1.539e-8
0.287, -1.543e-8
0.288, -1.562e-8
0.289, -1.550e-8
0.290, -1.541e-8
0.291, -1.560e-8
0.292, -1.562e-8
0.293, -1.541e-8
0.294, -1.556e-8
0.295, -1.570e-8
0.296, -1.549e-8
0.297, -1.552e-8
0.298, -1.573e-8
0.299, -1.560e-8
0.300, -1.364e-8
0.299, -1.238e-8
0.298, -1.206e-8
0.297, -1.162e-8
0.296, -1.156e-8
0.295, -1.152e-8
0.294, -1.117e-8
0.293, -1.107e-8
0.292, -1.113e-8
0.291, -1.090e-8
0.290, -1.068e-8
0.289, -1.078e-8
0.288, -1.069e-8
0.287, -1.041e-8
0.286, -1.045e-8
0.285, -1.051e-8
0.284, -1.021e-8
0.283, -1.017e-8
0.282, -1.029e-8
0.281, -1.010e-8
0.280, -9.933e-9
0.279, -1.007e-8
0.278, -1.000e-8
0.277, -9.760e-9
0.276, -9.817e-9
0.275, -9.906e-9
0.274, -9.645e-9
0.273, -9.607e-9
0.272, -9.760e-9
0.271, -9.585e-9
0.270, -9.427e-9
0.269, -9.587e-9
0.268, -9.521e-9
0.267, -9.304e-9
0.266, -9.393e-9
0.265, -9.464e-9
0.264, -9.224e-9
0.263, -9.206e-9
0.262, -9.354e-9
0.261, -9.206e-9
0.260, -9.045e-9
0.259, -9.226e-9
0.258, -9.177e-9
0.257, -8.942e-9
0.256, -9.043e-9
0.255, -9.133e-9
0.254, -8.890e-9
0.253, -8.892e-9
0.252, -9.034e-9
0.251, -8.895e-9
0.250, -8.744e-9
0.249, -8.915e-9
0.248, -8.877e-9
0.247, -8.653e-9
0.246, -8.755e-9
0.245, -8.861e-9
0.244, -8.597e-9
0.243, -8.614e-9
0.242, -8.776e-9
0.241, -8.616e-9
0.240, -8.484e-9
0.239, -8.656e-9
0.238, -8.617e-9
0.237, -8.411e-9
0.236, -8.496e-9
0.235, -8.611e-9
0.234, -8.378e-9
0.233, -8.360e-9
0.232, -8.534e-9
0.231, -8.380e-9
0.230, -8.238e-9
0.229, -8.436e-9
0.228, -8.379e-9
0.227, -8.188e-9
0.226, -8.283e-9
0.225, -8.384e-9
0.224, -8.152e-9
0.223, -8.148e-9
0.222, -8.316e-9
0.221, -8.173e-9
0.220, -8.018e-9
0.219, -8.224e-9
0.218, -8.179e-9
0.217, -7.963e-9
0.216, -8.073e-9
0.215, -8.180e-9
0.214, -7.935e-9
0.213, -7.946e-9
0.212, -8.096e-9
0.211, -7.966e-9
0.210, -7.826e-9
0.209, -8.006e-9
0.208, -7.968e-9
0.207, -7.760e-9
0.206, -7.860e-9
0.205, -7.970e-9
0.204, -7.719e-9
0.203, -7.742e-9
0.202, -7.899e-9
0.201, -7.756e-9
0.200, -7.624e-9
0.199, -7.804e-9
0.198, -7.762e-9
0.197, -7.564e-9
0.196, -7.647e-9
0.195, -7.775e-9
0.194, -7.526e-9
0.193, -7.526e-9
0.192, -7.690e-9
0.191, -7.550e-9
0.190, -7.411e-9
0.189, -7.598e-9
0.188, -7.542e-9
0.187, -7.350e-9
0.186, -7.451e-9
0.185, -7.543e-9
0.184, -7.314e-9
0.183, -7.316e-9
0.182, -7.473e-9
0.181, -7.334e-9
0.180, -7.173e-9
0.179, -7.367e-9
0.178, -7.331e-9
0.177, -7.110e-9
0.176, -7.215e-9
0.175, -7.309e-9
0.174, -7.068e-9
0.173, -7.080e-9
0.172, -7.228e-9
0.171, -7.080e-9
0.170, -6.942e-9
0.169, -7.108e-9
0.168, -7.073e-9
0.167, -6.848e-9
0.166, -6.950e-9
0.165, -7.049e-9
0.164, -6.794e-9
0.163, -6.796e-9
0.162, -6.955e-9
0.161, -6.783e-9
0.160, -6.657e-9
0.159, -6.815e-9
0.158, -6.776e-9
0.157, -6.547e-9
0.156, -6.636e-9
0.155, -6.722e-9
0.154, -6.475e-9
0.153, -6.456e-9
0.152, -6.621e-9
0.151, -6.444e-9
0.150, -6.296e-9
0.149, -6.459e-9
0.148, -6.393e-9
0.147, -6.172e-9
0.146, -6.257e-9
0.145, -6.319e-9
0.144, -6.080e-9
0.143, -6.040e-9
0.142, -6.188e-9
0.141, -6.011e-9
0.140, -5.841e-9
0.139, -5.998e-9
0.138, -5.937e-9
0.137, -5.670e-9
0.136, -5.768e-9
0.135, -5.804e-9
0.134, -5.563e-9
0.133, -5.497e-9
0.132, -5.629e-9
0.131, -5.442e-9
0.130, -5.271e-9
0.129, -5.381e-9
0.128, -5.318e-9
0.127, -5.032e-9
0.126, -5.109e-9
0.125, -5.140e-9
0.124, -4.854e-9
0.123, -4.787e-9
0.122, -4.906e-9
0.121, -4.668e-9
0.120, -4.497e-9
0.119, -4.569e-9
0.118, -4.491e-9
0.117, -4.189e-9
0.116, -4.221e-9
0.115, -4.230e-9
0.114, -3.924e-9
0.113, -3.811e-9
0.112, -3.917e-9
0.111, -3.643e-9
0.110, -3.450e-9
0.109, -3.504e-9
0.108, -3.364e-9
0.107, -3.049e-9
0.106, -3.048e-9
0.105, -3.008e-9
0.104, -2.683e-9
0.103, -2.524e-9
0.102, -2.569e-9
0.101, -2.291e-9
0.100, -2.024e-9
0.099, -2.055e-9
0.098, -1.892e-9
0.097, -1.492e-9
0.096, -1.485e-9
0.095, -1.377e-9
0.094, -1.020e-9
0.093, -8.317e-10
0.092, -8.152e-10
0.091, -4.918e-10
0.090, -1.762e-10
0.089, -1.312e-10
0.088, 5.692e-11
0.087, 5.042e-10
0.086, 5.820e-10
0.085, 7.257e-10
0.084, 1.166e-9
0.083, 1.388e-9
0.082, 1.446e-9
0.081, 1.858e-9
0.080, 2.181e-9
0.079, 2.300e-9
0.078, 2.547e-9
0.077, 3.041e-9
0.076, 3.181e-9
0.075, 3.357e-9
0.074, 3.830e-9
0.073, 4.128e-9
0.072, 4.223e-9
0.071, 4.676e-9
0.070, 5.052e-9
0.069, 5.198e-9
0.068, 5.526e-9
0.067, 6.031e-9
0.066, 6.212e-9
0.065, 6.460e-9
0.064, 6.940e-9
0.063, 7.292e-9
0.062, 7.410e-9
0.061, 7.891e-9
0.060, 8.322e-9
0.059, 8.474e-9
0.058, 8.805e-9
0.057, 9.372e-9
0.056, 9.539e-9
0.055, 9.807e-9
0.054, 1.031e-8
0.053, 1.064e-8
0.052, 1.080e-8
0.051, 1.125e-8
0.050, 1.167e-8
0.049, 1.185e-8
0.048, 1.212e-8
0.047, 1.267e-8
0.046, 1.283e-8
0.045, 1.305e-8
0.044, 1.355e-8
0.043, 1.382e-8
0.042, 1.394e-8
0.041, 1.436e-8
0.040, 1.471e-8
0.039, 1.486e-8
0.038, 1.509e-8
0.037, 1.555e-8
0.036, 1.568e-8
0.035, 1.582e-8
0.034, 1.626e-8
0.033, 1.648e-8
0.032, 1.648e-8
0.031, 1.686e-8
0.030, 1.713e-8
0.029, 1.716e-8
0.028, 1.736e-8
0.027, 1.769e-8
0.026, 1.775e-8
0.025, 1.782e-8
0.024, 1.813e-8
0.023, 1.826e-8
0.022, 1.819e-8
0.021, 1.844e-8
0.020, 1.865e-8
0.019, 1.855e-8
0.018, 1.865e-8
0.017, 1.895e-8
0.016, 1.886e-8
0.015, 1.883e-8
0.014, 1.908e-8
0.013, 1.910e-8
0.012, 1.897e-8
0.011, 1.910e-8
0.010, 1.923e-8
0.009, 1.907e-8
0.008, 1.907e-8
0.007, 1.927e-8
0.006, 1.912e-8
0.005, 1.899e-8
0.004, 1.919e-8
0.003, 1.911e-8
0.002, 1.892e-8
0.001, 1.901e-8
0.000, 1.917e-8
-0.001, 1.888e-8
-0.002, 1.879e-8
-0.003, 1.893e-8
-0.004, 1.874e-8
-0.005, 1.854e-8
-0.006, 1.867e-8
-0.007, 1.859e-8
-0.008, 1.832e-8
-0.009, 1.836e-8
-0.010, 1.838e-8
-0.011, 1.809e-8
-0.012, 1.803e-8
-0.013, 1.812e-8
-0.014, 1.789e-8
-0.015, 1.769e-8
-0.016, 1.778e-8
-0.017, 1.768e-8
-0.018, 1.738e-8
-0.019, 1.740e-8
-0.020, 1.743e-8
-0.021, 1.710e-8
-0.022, 1.702e-8
-0.023, 1.710e-8
-0.024, 1.688e-8
-0.025, 1.665e-8
-0.026, 1.676e-8
-0.027, 1.662e-8
-0.028, 1.633e-8
-0.029, 1.634e-8
-0.030, 1.635e-8
-0.031, 1.605e-8
-0.032, 1.594e-8
-0.033, 1.604e-8
-0.034, 1.580e-8
-0.035, 1.557e-8
-0.036, 1.570e-8
-0.037, 1.555e-8
-0.038, 1.527e-8
-0.039, 1.530e-8
-0.040, 1.530e-8
-0.041, 1.501e-8
-0.042, 1.492e-8
-0.043, 1.500e-8
-0.044, 1.480e-8
-0.045, 1.456e-8
-0.046, 1.469e-8
-0.047, 1.458e-8
-0.048, 1.429e-8
-0.049, 1.432e-8
-0.050, 1.436e-8
-0.051, 1.406e-8
-0.052, 1.400e-8
-0.053, 1.409e-8
-0.054, 1.387e-8
-0.055, 1.367e-8
-0.056, 1.379e-8
-0.057, 1.369e-8
-0.058, 1.342e-8
-0.059, 1.345e-8
-0.060, 1.351e-8
-0.061, 1.321e-8
-0.062, 1.315e-8
-0.063, 1.327e-8
-0.064, 1.307e-8
-0.065, 1.287e-8
-0.066, 1.301e-8
-0.067, 1.291e-8
-0.068, 1.267e-8
-0.069, 1.270e-8
-0.070, 1.276e-8
-0.071, 1.248e-8
-0.072, 1.243e-8
-0.073, 1.257e-8
-0.074, 1.237e-8
-0.075, 1.218e-8
-0.076, 1.234e-8
-0.077, 1.225e-8
-0.078, 1.200e-8
-0.079, 1.207e-8
-0.080, 1.213e-8
-0.081, 1.187e-8
-0.082, 1.183e-8
-0.083, 1.195e-8
-0.084, 1.179e-8
-0.085, 1.159e-8
-0.086, 1.176e-8
-0.087, 1.169e-8
-0.088, 1.144e-8
-0.089, 1.153e-8
-0.090, 1.158e-8
-0.091, 1.133e-8
-0.092, 1.131e-8
-0.093, 1.143e-8
-0.094, 1.126e-8
-0.095, 1.111e-8
-0.096, 1.126e-8
-0.097, 1.120e-8
-0.098, 1.097e-8
-0.099, 1.104e-8
-0.100, 1.113e-8
-0.101, 1.087e-8
-0.102, 1.085e-8
-0.103, 1.101e-8
-0.104, 1.083e-8
-0.105, 1.068e-8
-0.106, 1.085e-8
-0.107, 1.078e-8
-0.108, 1.057e-8
-0.109, 1.065e-8
-0.110, 1.073e-8
-0.111, 1.050e-8
-0.112, 1.046e-8
-0.113, 1.063e-8
-0.114, 1.047e-8
-0.115, 1.031e-8
-0.116, 1.050e-8
-0.117, 1.044e-8
-0.118, 1.021e-8
-0.119, 1.032e-8
-0.120, 1.039e-8
-0.121, 1.017e-8
-0.122, 1.014e-8
-0.123, 1.031e-8
-0.124, 1.016e-8
-0.125, 9.997e-9
-0.126, 1.018e-8
-0.127, 1.014e-8
-0.128, 9.922e-9
-0.129, 1.003e-8
-0.130, 1.011e-8
-0.131, 9.882e-9
-0.132, 9.877e-9
-0.133, 1.004e-8
-0.134, 9.874e-9
-0.135, 9.745e-9
-0.136, 9.912e-9
-0.137, 9.896e-9
-0.138, 9.656e-9
-0.139, 9.781e-9
-0.140, 9.868e-9
-0.141, 9.644e-9
-0.142, 9.619e-9
-0.143, 9.817e-9
-0.144, 9.641e-9
-0.145, 9.529e-9
-0.146, 9.695e-9
-0.147, 9.668e-9
-0.148, 9.455e-9
-0.149, 9.560e-9
-0.150, 9.644e-9
-0.151, 9.454e-9
-0.152, 9.416e-9
-0.153, 9.622e-9
-0.154, 9.451e-9
-0.155, 9.328e-9
-0.156, 9.517e-9
-0.157, 9.481e-9
-0.158, 9.259e-9
-0.159, 9.405e-9
-0.160, 9.463e-9
-0.161, 9.279e-9
-0.162, 9.247e-9
-0.163, 9.443e-9
-0.164, 9.291e-9
-0.165, 9.158e-9
-0.166, 9.348e-9
-0.167, 9.344e-9
-0.168, 9.095e-9
-0.169, 9.245e-9
-0.170, 9.319e-9
-0.171, 9.115e-9
-0.172, 9.118e-9
-0.173, 9.302e-9
-0.174, 9.145e-9
-0.175, 9.037e-9
-0.176, 9.212e-9
-0.177, 9.202e-9
-0.178, 8.977e-9
-0.179, 9.114e-9
-0.180, 9.209e-9
-0.181, 9.001e-9
-0.182, 8.983e-9
-0.183, 9.197e-9
-0.184, 9.025e-9
-0.185, 8.923e-9
-0.186, 9.104e-9
-0.187, 9.085e-9
-0.188, 8.879e-9
-0.189, 9.010e-9
-0.190, 9.094e-9
-0.191, 8.905e-9
-0.192, 8.893e-9
-0.193, 9.098e-9
-0.194, 8.941e-9
-0.195, 8.821e-9
-0.196, 9.023e-9
-0.197, 8.999e-9
-0.198, 8.784e-9
-0.199, 8.941e-9
