Mar. 16, 2023   08:52:59
Cyclic Voltammetry
File: c:/users/oliverrz/desktop/electrolab/data/2023_03_16\fcmeoh_macros_250_um\electrode1_cv_50mvs_250_um.bin
Data Source:  Experiment
Instrument Model:  CHI760E
Header: CV
Note: 

Init E (V) = -0.2
High E (V) = 0.3
Low E (V) = -0.2
Final E (V) = -0.2
Init P/N = P
Scan Rate (V/s) = 0.05
Segment = 3
Sample Interval (V) = 0.001
Quiet Time (sec) = 2
Sensitivity (A/V) = 1e-7

Results:

Channel 1:
Segment 1:
Ep = 0.118V
ip = -1.305e-8A
Ah = -1.703e-8C

Segment 2:
Ep = 0.040V
ip = 1.205e-8A
Ah = 1.648e-8C

Segment 3:

Potential/V, Current/A

-0.200, 5.193e-9
-0.199, 4.764e-9
-0.198, 4.645e-9
-0.197, 4.573e-9
-0.196, 4.511e-9
-0.195, 4.464e-9
-0.194, 4.413e-9
-0.193, 4.365e-9
-0.192, 4.316e-9
-0.191, 4.268e-9
-0.190, 4.229e-9
-0.189, 4.185e-9
-0.188, 4.140e-9
-0.187, 4.101e-9
-0.186, 4.059e-9
-0.185, 4.022e-9
-0.184, 3.986e-9
-0.183, 3.944e-9
-0.182, 3.906e-9
-0.181, 3.868e-9
-0.180, 3.834e-9
-0.179, 3.799e-9
-0.178, 3.762e-9
-0.177, 3.727e-9
-0.176, 3.696e-9
-0.175, 3.661e-9
-0.174, 3.632e-9
-0.173, 3.601e-9
-0.172, 3.565e-9
-0.171, 3.538e-9
-0.170, 3.509e-9
-0.169, 3.482e-9
-0.168, 3.452e-9
-0.167, 3.417e-9
-0.166, 3.391e-9
-0.165, 3.366e-9
-0.164, 3.338e-9
-0.163, 3.313e-9
-0.162, 3.280e-9
-0.161, 3.255e-9
-0.160, 3.233e-9
-0.159, 3.207e-9
-0.158, 3.181e-9
-0.157, 3.154e-9
-0.156, 3.128e-9
-0.155, 3.109e-9
-0.154, 3.085e-9
-0.153, 3.059e-9
-0.152, 3.035e-9
-0.151, 3.014e-9
-0.150, 2.997e-9
-0.149, 2.976e-9
-0.148, 2.951e-9
-0.147, 2.929e-9
-0.146, 2.907e-9
-0.145, 2.889e-9
-0.144, 2.871e-9
-0.143, 2.848e-9
-0.142, 2.827e-9
-0.141, 2.807e-9
-0.140, 2.790e-9
-0.139, 2.775e-9
-0.138, 2.754e-9
-0.137, 2.732e-9
-0.136, 2.719e-9
-0.135, 2.700e-9
-0.134, 2.686e-9
-0.133, 2.667e-9
-0.132, 2.646e-9
-0.131, 2.634e-9
-0.130, 2.618e-9
-0.129, 2.605e-9
-0.128, 2.584e-9
-0.127, 2.565e-9
-0.126, 2.554e-9
-0.125, 2.541e-9
-0.124, 2.527e-9
-0.123, 2.514e-9
-0.122, 2.495e-9
-0.121, 2.483e-9
-0.120, 2.471e-9
-0.119, 2.457e-9
-0.118, 2.444e-9
-0.117, 2.428e-9
-0.116, 2.413e-9
-0.115, 2.405e-9
-0.114, 2.390e-9
-0.113, 2.379e-9
-0.112, 2.364e-9
-0.111, 2.351e-9
-0.110, 2.344e-9
-0.109, 2.333e-9
-0.108, 2.319e-9
-0.107, 2.307e-9
-0.106, 2.296e-9
-0.105, 2.289e-9
-0.104, 2.279e-9
-0.103, 2.264e-9
-0.102, 2.251e-9
-0.101, 2.243e-9
-0.100, 2.234e-9
-0.099, 2.229e-9
-0.098, 2.214e-9
-0.097, 2.203e-9
-0.096, 2.196e-9
-0.095, 2.185e-9
-0.094, 2.177e-9
-0.093, 2.166e-9
-0.092, 2.152e-9
-0.091, 2.147e-9
-0.090, 2.137e-9
-0.089, 2.129e-9
-0.088, 2.121e-9
-0.087, 2.106e-9
-0.086, 2.102e-9
-0.085, 2.095e-9
-0.084, 2.084e-9
-0.083, 2.076e-9
-0.082, 2.062e-9
-0.081, 2.057e-9
-0.080, 2.053e-9
-0.079, 2.043e-9
-0.078, 2.034e-9
-0.077, 2.021e-9
-0.076, 2.013e-9
-0.075, 2.010e-9
-0.074, 2.003e-9
-0.073, 1.992e-9
-0.072, 1.983e-9
-0.071, 1.973e-9
-0.070, 1.968e-9
-0.069, 1.960e-9
-0.068, 1.949e-9
-0.067, 1.940e-9
-0.066, 1.931e-9
-0.065, 1.925e-9
-0.064, 1.919e-9
-0.063, 1.904e-9
-0.062, 1.894e-9
-0.061, 1.889e-9
-0.060, 1.880e-9
-0.059, 1.875e-9
-0.058, 1.863e-9
-0.057, 1.848e-9
-0.056, 1.842e-9
-0.055, 1.833e-9
-0.054, 1.827e-9
-0.053, 1.813e-9
-0.052, 1.798e-9
-0.051, 1.792e-9
-0.050, 1.784e-9
-0.049, 1.774e-9
-0.048, 1.764e-9
-0.047, 1.749e-9
-0.046, 1.741e-9
-0.045, 1.731e-9
-0.044, 1.719e-9
-0.043, 1.707e-9
-0.042, 1.691e-9
-0.041, 1.679e-9
-0.040, 1.671e-9
-0.039, 1.655e-9
-0.038, 1.639e-9
-0.037, 1.622e-9
-0.036, 1.609e-9
-0.035, 1.598e-9
-0.034, 1.581e-9
-0.033, 1.563e-9
-0.032, 1.546e-9
-0.031, 1.528e-9
-0.030, 1.515e-9
-0.029, 1.500e-9
-0.028, 1.477e-9
-0.027, 1.456e-9
-0.026, 1.435e-9
-0.025, 1.417e-9
-0.024, 1.399e-9
-0.023, 1.373e-9
-0.022, 1.350e-9
-0.021, 1.329e-9
-0.020, 1.305e-9
-0.019, 1.285e-9
-0.018, 1.256e-9
-0.017, 1.229e-9
-0.016, 1.207e-9
-0.015, 1.179e-9
-0.014, 1.152e-9
-0.013, 1.116e-9
-0.012, 1.081e-9
-0.011, 1.056e-9
-0.010, 1.023e-9
-0.009, 9.897e-10
-0.008, 9.535e-10
-0.007, 9.110e-10
-0.006, 8.790e-10
-0.005, 8.398e-10
-0.004, 7.975e-10
-0.003, 7.567e-10
-0.002, 7.111e-10
-0.001, 6.704e-10
-0.000, 5.966e-10
0.001, 5.545e-10
0.002, 5.135e-10
0.003, 4.623e-10
0.004, 4.114e-10
0.005, 3.646e-10
0.006, 3.063e-10
0.007, 2.455e-10
0.008, 1.863e-10
0.009, 1.245e-10
0.010, 6.775e-11
0.011, 4.844e-12
0.012, -6.742e-11
0.013, -1.359e-10
0.014, -2.071e-10
0.015, -2.768e-10
0.016, -3.513e-10
0.017, -4.360e-10
0.018, -5.145e-10
0.019, -5.936e-10
0.020, -6.778e-10
0.021, -7.648e-10
0.022, -8.588e-10
0.023, -9.521e-10
0.024, -1.042e-9
0.025, -1.140e-9
0.026, -1.241e-9
0.027, -1.346e-9
0.028, -1.453e-9
0.029, -1.554e-9
0.030, -1.669e-9
0.031, -1.783e-9
0.032, -1.900e-9
0.033, -2.022e-9
0.034, -2.142e-9
0.035, -2.266e-9
0.036, -2.396e-9
0.037, -2.525e-9
0.038, -2.665e-9
0.039, -2.800e-9
0.040, -2.934e-9
0.041, -3.084e-9
0.042, -3.227e-9
0.043, -3.380e-9
0.044, -3.523e-9
0.045, -3.667e-9
0.046, -3.826e-9
0.047, -3.988e-9
0.048, -4.149e-9
0.049, -4.316e-9
0.050, -4.476e-9
0.051, -4.648e-9
0.052, -4.827e-9
0.053, -4.992e-9
0.054, -5.171e-9
0.055, -5.341e-9
0.056, -5.517e-9
0.057, -5.699e-9
0.058, -5.876e-9
0.059, -6.060e-9
0.060, -6.240e-9
0.061, -6.420e-9
0.062, -6.609e-9
0.063, -6.790e-9
0.064, -6.976e-9
0.065, -7.166e-9
0.066, -7.347e-9
0.067, -7.534e-9
0.068, -7.719e-9
0.069, -7.893e-9
0.070, -8.077e-9
0.071, -8.259e-9
0.072, -8.437e-9
0.073, -8.618e-9
0.074, -8.783e-9
0.075, -8.959e-9
0.076, -9.130e-9
0.077, -9.298e-9
0.078, -9.468e-9
0.079, -9.625e-9
0.080, -9.778e-9
0.081, -9.939e-9
0.082, -1.009e-8
0.083, -1.024e-8
0.084, -1.038e-8
0.085, -1.052e-8
0.086, -1.066e-8
0.087, -1.079e-8
0.088, -1.092e-8
0.089, -1.105e-8
0.090, -1.116e-8
0.091, -1.128e-8
0.092, -1.139e-8
0.093, -1.149e-8
0.094, -1.159e-8
0.095, -1.168e-8
0.096, -1.178e-8
0.097, -1.187e-8
0.098, -1.195e-8
0.099, -1.202e-8
0.100, -1.210e-8
0.101, -1.216e-8
0.102, -1.224e-8
0.103, -1.230e-8
0.104, -1.234e-8
0.105, -1.239e-8
0.106, -1.244e-8
0.107, -1.248e-8
0.108, -1.252e-8
0.109, -1.255e-8
0.110, -1.258e-8
0.111, -1.261e-8
0.112, -1.263e-8
0.113, -1.265e-8
0.114, -1.266e-8
0.115, -1.268e-8
0.116, -1.269e-8
0.117, -1.269e-8
0.118, -1.270e-8
0.119, -1.269e-8
0.120, -1.269e-8
0.121, -1.269e-8
0.122, -1.268e-8
0.123, -1.267e-8
0.124, -1.266e-8
0.125, -1.263e-8
0.126, -1.262e-8
0.127, -1.261e-8
0.128, -1.259e-8
0.129, -1.257e-8
0.130, -1.254e-8
0.131, -1.252e-8
0.132, -1.250e-8
0.133, -1.247e-8
0.134, -1.244e-8
0.135, -1.241e-8
0.136, -1.238e-8
0.137, -1.235e-8
0.138, -1.232e-8
0.139, -1.229e-8
0.140, -1.225e-8
0.141, -1.222e-8
0.142, -1.219e-8
0.143, -1.215e-8
0.144, -1.211e-8
0.145, -1.208e-8
0.146, -1.205e-8
0.147, -1.201e-8
0.148, -1.198e-8
0.149, -1.194e-8
0.150, -1.190e-8
0.151, -1.187e-8
0.152, -1.184e-8
0.153, -1.181e-8
0.154, -1.177e-8
0.155, -1.173e-8
0.156, -1.170e-8
0.157, -1.166e-8
0.158, -1.163e-8
0.159, -1.159e-8
0.160, -1.156e-8
0.161, -1.153e-8
0.162, -1.150e-8
0.163, -1.147e-8
0.164, -1.143e-8
0.165, -1.140e-8
0.166, -1.137e-8
0.167, -1.134e-8
0.168, -1.131e-8
0.169, -1.128e-8
0.170, -1.125e-8
0.171, -1.122e-8
0.172, -1.119e-8
0.173, -1.116e-8
0.174, -1.113e-8
0.175, -1.110e-8
0.176, -1.107e-8
0.177, -1.105e-8
0.178, -1.103e-8
0.179, -1.100e-8
0.180, -1.098e-8
0.181, -1.095e-8
0.182, -1.093e-8
0.183, -1.090e-8
0.184, -1.087e-8
0.185, -1.085e-8
0.186, -1.083e-8
0.187, -1.081e-8
0.188, -1.079e-8
0.189, -1.076e-8
0.190, -1.075e-8
0.191, -1.073e-8
0.192, -1.071e-8
0.193, -1.069e-8
0.194, -1.067e-8
0.195, -1.065e-8
0.196, -1.064e-8
0.197, -1.062e-8
0.198, -1.061e-8
0.199, -1.059e-8
0.200, -1.057e-8
0.201, -1.055e-8
0.202, -1.054e-8
0.203, -1.053e-8
0.204, -1.051e-8
0.205, -1.050e-8
0.206, -1.049e-8
0.207, -1.048e-8
0.208, -1.046e-8
0.209, -1.045e-8
0.210, -1.043e-8
0.211, -1.042e-8
0.212, -1.042e-8
0.213, -1.040e-8
0.214, -1.039e-8
0.215, -1.038e-8
0.216, -1.037e-8
0.217, -1.037e-8
0.218, -1.035e-8
0.219, -1.034e-8
0.220, -1.034e-8
0.221, -1.032e-8
0.222, -1.032e-8
0.223, -1.031e-8
0.224, -1.030e-8
0.225, -1.030e-8
0.226, -1.029e-8
0.227, -1.029e-8
0.228, -1.028e-8
0.229, -1.027e-8
0.230, -1.027e-8
0.231, -1.026e-8
0.232, -1.026e-8
0.233, -1.026e-8
0.234, -1.024e-8
0.235, -1.024e-8
0.236, -1.024e-8
0.237, -1.024e-8
0.238, -1.024e-8
0.239, -1.023e-8
0.240, -1.022e-8
0.241, -1.022e-8
0.242, -1.022e-8
0.243, -1.022e-8
0.244, -1.022e-8
0.245, -1.021e-8
0.246, -1.021e-8
0.247, -1.022e-8
0.248, -1.021e-8
0.249, -1.021e-8
0.250, -1.021e-8
0.251, -1.021e-8
0.252, -1.022e-8
0.253, -1.021e-8
0.254, -1.021e-8
0.255, -1.021e-8
0.256, -1.022e-8
0.257, -1.022e-8
0.258, -1.022e-8
0.259, -1.022e-8
0.260, -1.022e-8
0.261, -1.022e-8
0.262, -1.023e-8
0.263, -1.023e-8
0.264, -1.023e-8
0.265, -1.023e-8
0.266, -1.023e-8
0.267, -1.023e-8
0.268, -1.024e-8
0.269, -1.024e-8
0.270, -1.025e-8
0.271, -1.025e-8
0.272, -1.025e-8
0.273, -1.026e-8
0.274, -1.026e-8
0.275, -1.026e-8
0.276, -1.027e-8
0.277, -1.028e-8
0.278, -1.028e-8
0.279, -1.029e-8
0.280, -1.029e-8
0.281, -1.030e-8
0.282, -1.031e-8
0.283, -1.031e-8
0.284, -1.031e-8
0.285, -1.031e-8
0.286, -1.033e-8
0.287, -1.033e-8
0.288, -1.034e-8
0.289, -1.034e-8
0.290, -1.035e-8
0.291, -1.035e-8
0.292, -1.037e-8
0.293, -1.037e-8
0.294, -1.038e-8
0.295, -1.039e-8
0.296, -1.039e-8
0.297, -1.041e-8
0.298, -1.041e-8
0.299, -1.042e-8
0.300, -1.007e-8
0.299, -9.056e-9
0.298, -8.742e-9
0.297, -8.584e-9
0.296, -8.460e-9
0.295, -8.350e-9
0.294, -8.262e-9
0.293, -8.180e-9
0.292, -8.104e-9
0.291, -8.032e-9
0.290, -7.965e-9
0.289, -7.905e-9
0.288, -7.853e-9
0.287, -7.798e-9
0.286, -7.746e-9
0.285, -7.695e-9
0.284, -7.651e-9
0.283, -7.611e-9
0.282, -7.566e-9
0.281, -7.523e-9
0.280, -7.484e-9
0.279, -7.449e-9
0.278, -7.420e-9
0.277, -7.383e-9
0.276, -7.345e-9
0.275, -7.313e-9
0.274, -7.276e-9
0.273, -7.249e-9
0.272, -7.217e-9
0.271, -7.183e-9
0.270, -7.156e-9
0.269, -7.130e-9
0.268, -7.107e-9
0.267, -7.083e-9
0.266, -7.053e-9
0.265, -7.030e-9
0.264, -7.007e-9
0.263, -6.983e-9
0.262, -6.961e-9
0.261, -6.934e-9
0.260, -6.912e-9
0.259, -6.894e-9
0.258, -6.872e-9
0.257, -6.852e-9
0.256, -6.824e-9
0.255, -6.801e-9
0.254, -6.787e-9
0.253, -6.766e-9
0.252, -6.744e-9
0.251, -6.724e-9
0.250, -6.701e-9
0.249, -6.686e-9
0.248, -6.672e-9
0.247, -6.649e-9
0.246, -6.631e-9
0.245, -6.609e-9
0.244, -6.595e-9
0.243, -6.579e-9
0.242, -6.558e-9
0.241, -6.539e-9
0.240, -6.521e-9
0.239, -6.503e-9
0.238, -6.490e-9
0.237, -6.469e-9
0.236, -6.448e-9
0.235, -6.433e-9
0.234, -6.416e-9
0.233, -6.403e-9
0.232, -6.385e-9
0.231, -6.364e-9
0.230, -6.345e-9
0.229, -6.331e-9
0.228, -6.315e-9
0.227, -6.301e-9
0.226, -6.278e-9
0.225, -6.263e-9
0.224, -6.247e-9
0.223, -6.231e-9
0.222, -6.214e-9
0.221, -6.191e-9
0.220, -6.173e-9
0.219, -6.160e-9
0.218, -6.143e-9
0.217, -6.126e-9
0.216, -6.108e-9
0.215, -6.088e-9
0.214, -6.074e-9
0.213, -6.058e-9
0.212, -6.038e-9
0.211, -6.019e-9
0.210, -5.995e-9
0.209, -5.981e-9
0.208, -5.963e-9
0.207, -5.940e-9
0.206, -5.919e-9
0.205, -5.893e-9
0.204, -5.876e-9
0.203, -5.862e-9
0.202, -5.836e-9
0.201, -5.814e-9
0.200, -5.791e-9
0.199, -5.771e-9
0.198, -5.753e-9
0.197, -5.727e-9
0.196, -5.701e-9
0.195, -5.678e-9
0.194, -5.653e-9
0.193, -5.634e-9
0.192, -5.607e-9
0.191, -5.580e-9
0.190, -5.556e-9
0.189, -5.530e-9
0.188, -5.507e-9
0.187, -5.479e-9
0.186, -5.446e-9
0.185, -5.421e-9
0.184, -5.392e-9
0.183, -5.364e-9
0.182, -5.337e-9
0.181, -5.302e-9
0.180, -5.270e-9
0.179, -5.240e-9
0.178, -5.207e-9
0.177, -5.174e-9
0.176, -5.138e-9
0.175, -5.100e-9
0.174, -5.070e-9
0.173, -5.033e-9
0.172, -4.989e-9
0.171, -4.951e-9
0.170, -4.908e-9
0.169, -4.873e-9
0.168, -4.834e-9
0.167, -4.785e-9
0.166, -4.741e-9
0.165, -4.693e-9
0.164, -4.649e-9
0.163, -4.605e-9
0.162, -4.553e-9
0.161, -4.500e-9
0.160, -4.448e-9
0.159, -4.393e-9
0.158, -4.345e-9
0.157, -4.284e-9
0.156, -4.224e-9
0.155, -4.163e-9
0.154, -4.101e-9
0.153, -4.042e-9
0.152, -3.974e-9
0.151, -3.901e-9
0.150, -3.835e-9
0.149, -3.767e-9
0.148, -3.699e-9
0.147, -3.624e-9
0.146, -3.539e-9
0.145, -3.466e-9
0.144, -3.397e-9
0.143, -3.312e-9
0.142, -3.225e-9
0.141, -3.133e-9
0.140, -3.042e-9
0.139, -2.955e-9
0.138, -2.860e-9
0.137, -2.763e-9
0.136, -2.658e-9
0.135, -2.552e-9
0.134, -2.456e-9
0.133, -2.348e-9
0.132, -2.239e-9
0.131, -2.124e-9
0.130, -2.004e-9
0.129, -1.892e-9
0.128, -1.767e-9
0.127, -1.637e-9
0.126, -1.515e-9
0.125, -1.383e-9
0.124, -1.255e-9
0.123, -1.125e-9
0.122, -9.818e-10
0.121, -8.455e-10
0.120, -7.017e-10
0.119, -5.538e-10
0.118, -4.114e-10
0.117, -2.525e-10
0.116, -9.764e-11
0.115, 5.860e-11
0.114, 2.173e-10
0.113, 3.696e-10
0.112, 5.391e-10
0.111, 7.167e-10
0.110, 8.795e-10
0.109, 1.053e-9
0.108, 1.219e-9
0.107, 1.396e-9
0.106, 1.574e-9
0.105, 1.747e-9
0.104, 1.924e-9
0.103, 2.105e-9
0.102, 2.292e-9
0.101, 2.471e-9
0.100, 2.648e-9
0.099, 2.826e-9
0.098, 3.011e-9
0.097, 3.190e-9
0.096, 3.376e-9
0.095, 3.561e-9
0.094, 3.736e-9
0.093, 3.922e-9
0.092, 4.106e-9
0.091, 4.283e-9
0.090, 4.461e-9
0.089, 4.636e-9
0.088, 4.810e-9
0.087, 4.987e-9
0.086, 5.158e-9
0.085, 5.328e-9
0.084, 5.492e-9
0.083, 5.654e-9
0.082, 5.825e-9
0.081, 5.977e-9
0.080, 6.136e-9
0.079, 6.288e-9
0.078, 6.427e-9
0.077, 6.584e-9
0.076, 6.727e-9
0.075, 6.861e-9
0.074, 6.993e-9
0.073, 7.119e-9
0.072, 7.247e-9
0.071, 7.369e-9
0.070, 7.477e-9
0.069, 7.594e-9
0.068, 7.700e-9
0.067, 7.800e-9
0.066, 7.904e-9
0.065, 7.997e-9
0.064, 8.089e-9
0.063, 8.174e-9
0.062, 8.247e-9
0.061, 8.327e-9
0.060, 8.396e-9
0.059, 8.462e-9
0.058, 8.529e-9
0.057, 8.585e-9
0.056, 8.642e-9
0.055, 8.698e-9
0.054, 8.733e-9
0.053, 8.777e-9
0.052, 8.816e-9
0.051, 8.856e-9
0.050, 8.888e-9
0.049, 8.902e-9
0.048, 8.925e-9
0.047, 8.952e-9
0.046, 8.965e-9
0.045, 8.979e-9
0.044, 8.988e-9
0.043, 8.989e-9
0.042, 8.998e-9
0.041, 8.996e-9
0.040, 8.998e-9
0.039, 8.991e-9
0.038, 8.979e-9
0.037, 8.977e-9
0.036, 8.968e-9
0.035, 8.952e-9
0.034, 8.938e-9
0.033, 8.916e-9
0.032, 8.901e-9
0.031, 8.885e-9
0.030, 8.861e-9
0.029, 8.839e-9
0.028, 8.812e-9
0.027, 8.788e-9
0.026, 8.771e-9
0.025, 8.742e-9
0.024, 8.710e-9
0.023, 8.681e-9
0.022, 8.649e-9
0.021, 8.624e-9
0.020, 8.592e-9
0.019, 8.554e-9
0.018, 8.524e-9
0.017, 8.489e-9
0.016, 8.460e-9
0.015, 8.425e-9
0.014, 8.385e-9
0.013, 8.354e-9
0.012, 8.324e-9
0.011, 8.289e-9
0.010, 8.260e-9
0.009, 8.221e-9
0.008, 8.188e-9
0.007, 8.159e-9
0.006, 8.124e-9
0.005, 8.091e-9
0.004, 8.055e-9
0.003, 8.018e-9
0.002, 7.991e-9
0.001, 7.957e-9
0.000, 7.948e-9
-0.001, 7.908e-9
-0.002, 7.862e-9
-0.003, 7.833e-9
-0.004, 7.801e-9
-0.005, 7.768e-9
-0.006, 7.737e-9
-0.007, 7.702e-9
-0.008, 7.676e-9
-0.009, 7.650e-9
-0.010, 7.616e-9
-0.011, 7.584e-9
-0.012, 7.555e-9
-0.013, 7.527e-9
-0.014, 7.503e-9
-0.015, 7.473e-9
-0.016, 7.441e-9
-0.017, 7.415e-9
-0.018, 7.389e-9
-0.019, 7.367e-9
-0.020, 7.343e-9
-0.021, 7.311e-9
-0.022, 7.286e-9
-0.023, 7.263e-9
-0.024, 7.241e-9
-0.025, 7.218e-9
-0.026, 7.194e-9
-0.027, 7.168e-9
-0.028, 7.148e-9
-0.029, 7.125e-9
-0.030, 7.105e-9
-0.031, 7.077e-9
-0.032, 7.054e-9
-0.033, 7.037e-9
-0.034, 7.017e-9
-0.035, 6.996e-9
-0.036, 6.973e-9
-0.037, 6.950e-9
-0.038, 6.936e-9
-0.039, 6.920e-9
-0.040, 6.899e-9
-0.041, 6.878e-9
-0.042, 6.855e-9
-0.043, 6.843e-9
-0.044, 6.827e-9
-0.045, 6.809e-9
-0.046, 6.791e-9
-0.047, 6.770e-9
-0.048, 6.758e-9
-0.049, 6.745e-9
-0.050, 6.726e-9
-0.051, 6.712e-9
-0.052, 6.695e-9
-0.053, 6.682e-9
-0.054, 6.670e-9
-0.055, 6.654e-9
-0.056, 6.637e-9
-0.057, 6.625e-9
-0.058, 6.609e-9
-0.059, 6.599e-9
-0.060, 6.585e-9
-0.061, 6.569e-9
-0.062, 6.556e-9
-0.063, 6.544e-9
-0.064, 6.538e-9
-0.065, 6.523e-9
-0.066, 6.507e-9
-0.067, 6.496e-9
-0.068, 6.486e-9
-0.069, 6.476e-9
-0.070, 6.467e-9
-0.071, 6.454e-9
-0.072, 6.441e-9
-0.073, 6.436e-9
-0.074, 6.426e-9
-0.075, 6.417e-9
-0.076, 6.405e-9
-0.077, 6.395e-9
-0.078, 6.390e-9
-0.079, 6.380e-9
-0.080, 6.370e-9
-0.081, 6.359e-9
-0.082, 6.346e-9
-0.083, 6.343e-9
-0.084, 6.336e-9
-0.085, 6.327e-9
-0.086, 6.317e-9
-0.087, 6.305e-9
-0.088, 6.302e-9
-0.089, 6.298e-9
-0.090, 6.287e-9
-0.091, 6.278e-9
-0.092, 6.271e-9
-0.093, 6.262e-9
-0.094, 6.261e-9
-0.095, 6.250e-9
-0.096, 6.240e-9
-0.097, 6.237e-9
-0.098, 6.230e-9
-0.099, 6.228e-9
-0.100, 6.220e-9
-0.101, 6.209e-9
-0.102, 6.206e-9
-0.103, 6.205e-9
-0.104, 6.198e-9
-0.105, 6.195e-9
-0.106, 6.184e-9
-0.107, 6.179e-9
-0.108, 6.177e-9
-0.109, 6.175e-9
-0.110, 6.173e-9
-0.111, 6.162e-9
-0.112, 6.156e-9
-0.113, 6.157e-9
-0.114, 6.152e-9
-0.115, 6.153e-9
-0.116, 6.146e-9
-0.117, 6.139e-9
-0.118, 6.141e-9
-0.119, 6.137e-9
-0.120, 6.133e-9
-0.121, 6.130e-9
-0.122, 6.124e-9
-0.123, 6.125e-9
-0.124, 6.127e-9
-0.125, 6.122e-9
-0.126, 6.117e-9
-0.127, 6.114e-9
-0.128, 6.119e-9
-0.129, 6.119e-9
-0.130, 6.113e-9
-0.131, 6.111e-9
-0.132, 6.111e-9
-0.133, 6.110e-9
-0.134, 6.115e-9
-0.135, 6.111e-9
-0.136, 6.107e-9
-0.137, 6.109e-9
-0.138, 6.109e-9
-0.139, 6.113e-9
-0.140, 6.113e-9
-0.141, 6.111e-9
-0.142, 6.113e-9
-0.143, 6.114e-9
-0.144, 6.119e-9
-0.145, 6.121e-9
-0.146, 6.117e-9
-0.147, 6.119e-9
-0.148, 6.127e-9
-0.149, 6.129e-9
-0.150, 6.133e-9
-0.151, 6.130e-9
-0.152, 6.133e-9
-0.153, 6.145e-9
-0.154, 6.147e-9
-0.155, 6.152e-9
-0.156, 6.152e-9
-0.157, 6.154e-9
-0.158, 6.164e-9
-0.159, 6.171e-9
-0.160, 6.174e-9
-0.161, 6.178e-9
-0.162, 6.180e-9
-0.163, 6.192e-9
-0.164, 6.200e-9
-0.165, 6.202e-9
-0.166, 6.209e-9
-0.167, 6.214e-9
-0.168, 6.226e-9
-0.169, 6.237e-9
-0.170, 6.242e-9
-0.171, 6.248e-9
-0.172, 6.258e-9
-0.173, 6.268e-9
-0.174, 6.282e-9
-0.175, 6.289e-9
-0.176, 6.296e-9
-0.177, 6.310e-9
-0.178, 6.320e-9
-0.179, 6.337e-9
-0.180, 6.348e-9
-0.181, 6.353e-9
-0.182, 6.369e-9
-0.183, 6.382e-9
-0.184, 6.397e-9
-0.185, 6.409e-9
-0.186, 6.418e-9
-0.187, 6.435e-9
-0.188, 6.452e-9
-0.189, 6.464e-9
-0.190, 6.481e-9
-0.191, 6.489e-9
-0.192, 6.508e-9
-0.193, 6.528e-9
-0.194, 6.543e-9
-0.195, 6.561e-9
-0.196, 6.576e-9
-0.197, 6.593e-9
-0.198, 6.619e-9
-0.199, 6.635e-9
