Mar. 16, 2023   09:00:53
Cyclic Voltammetry
File: c:/users/oliverrz/desktop/electrolab/data/2023_03_16\fcmeoh_macros_250_um\electrode7_cv_50mvs_250_um.bin
Data Source:  Experiment
Instrument Model:  CHI760E
Header: CV
Note: 

Init E (V) = -0.2
High E (V) = 0.3
Low E (V) = -0.2
Final E (V) = -0.2
Init P/N = P
Scan Rate (V/s) = 0.05
Segment = 3
Sample Interval (V) = 0.001
Quiet Time (sec) = 2
Sensitivity (A/V) = 1e-7

Results:

Channel 1:
Segment 1:
Ep = 0.072V
ip = -1.246e-8A
Ah = -1.624e-8C

Segment 2:
Ep = -0.001V
ip = 1.260e-8A
Ah = 1.644e-8C

Segment 3:

Potential/V, Current/A

-0.200, 2.800e-9
-0.199, 2.548e-9
-0.198, 2.499e-9
-0.197, 2.474e-9
-0.196, 2.448e-9
-0.195, 2.426e-9
-0.194, 2.400e-9
-0.193, 2.382e-9
-0.192, 2.366e-9
-0.191, 2.345e-9
-0.190, 2.325e-9
-0.189, 2.306e-9
-0.188, 2.292e-9
-0.187, 2.279e-9
-0.186, 2.262e-9
-0.185, 2.243e-9
-0.184, 2.224e-9
-0.183, 2.210e-9
-0.182, 2.200e-9
-0.181, 2.183e-9
-0.180, 2.160e-9
-0.179, 2.145e-9
-0.178, 2.132e-9
-0.177, 2.118e-9
-0.176, 2.106e-9
-0.175, 2.086e-9
-0.174, 2.071e-9
-0.173, 2.059e-9
-0.172, 2.047e-9
-0.171, 2.035e-9
-0.170, 2.017e-9
-0.169, 2.002e-9
-0.168, 1.991e-9
-0.167, 1.980e-9
-0.166, 1.968e-9
-0.165, 1.953e-9
-0.164, 1.936e-9
-0.163, 1.927e-9
-0.162, 1.916e-9
-0.161, 1.904e-9
-0.160, 1.888e-9
-0.159, 1.871e-9
-0.158, 1.863e-9
-0.157, 1.852e-9
-0.156, 1.838e-9
-0.155, 1.825e-9
-0.154, 1.810e-9
-0.153, 1.798e-9
-0.152, 1.791e-9
-0.151, 1.778e-9
-0.150, 1.765e-9
-0.149, 1.752e-9
-0.148, 1.742e-9
-0.147, 1.733e-9
-0.146, 1.720e-9
-0.145, 1.707e-9
-0.144, 1.692e-9
-0.143, 1.682e-9
-0.142, 1.675e-9
-0.141, 1.661e-9
-0.140, 1.646e-9
-0.139, 1.633e-9
-0.138, 1.622e-9
-0.137, 1.614e-9
-0.136, 1.604e-9
-0.135, 1.586e-9
-0.134, 1.573e-9
-0.133, 1.564e-9
-0.132, 1.554e-9
-0.131, 1.543e-9
-0.130, 1.528e-9
-0.129, 1.514e-9
-0.128, 1.505e-9
-0.127, 1.494e-9
-0.126, 1.485e-9
-0.125, 1.470e-9
-0.124, 1.454e-9
-0.123, 1.447e-9
-0.122, 1.436e-9
-0.121, 1.426e-9
-0.120, 1.410e-9
-0.119, 1.394e-9
-0.118, 1.385e-9
-0.117, 1.377e-9
-0.116, 1.363e-9
-0.115, 1.347e-9
-0.114, 1.331e-9
-0.113, 1.323e-9
-0.112, 1.312e-9
-0.111, 1.300e-9
-0.110, 1.285e-9
-0.109, 1.270e-9
-0.108, 1.260e-9
-0.107, 1.253e-9
-0.106, 1.240e-9
-0.105, 1.223e-9
-0.104, 1.209e-9
-0.103, 1.195e-9
-0.102, 1.183e-9
-0.101, 1.170e-9
-0.100, 1.153e-9
-0.099, 1.138e-9
-0.098, 1.125e-9
-0.097, 1.112e-9
-0.096, 1.099e-9
-0.095, 1.080e-9
-0.094, 1.064e-9
-0.093, 1.050e-9
-0.092, 1.036e-9
-0.091, 1.023e-9
-0.090, 1.002e-9
-0.089, 9.838e-10
-0.088, 9.738e-10
-0.087, 9.555e-10
-0.086, 9.402e-10
-0.085, 9.192e-10
-0.084, 8.976e-10
-0.083, 8.836e-10
-0.082, 8.669e-10
-0.081, 8.468e-10
-0.080, 8.254e-10
-0.079, 8.021e-10
-0.078, 7.842e-10
-0.077, 7.651e-10
-0.076, 7.448e-10
-0.075, 7.239e-10
-0.074, 6.988e-10
-0.073, 6.790e-10
-0.072, 6.602e-10
-0.071, 6.352e-10
-0.070, 6.079e-10
-0.069, 5.786e-10
-0.068, 5.520e-10
-0.067, 5.319e-10
-0.066, 5.021e-10
-0.065, 4.752e-10
-0.064, 4.447e-10
-0.063, 4.184e-10
-0.062, 3.930e-10
-0.061, 3.636e-10
-0.060, 3.285e-10
-0.059, 2.962e-10
-0.058, 2.632e-10
-0.057, 2.338e-10
-0.056, 2.015e-10
-0.055, 1.609e-10
-0.054, 1.241e-10
-0.053, 8.784e-11
-0.052, 5.043e-11
-0.051, 1.183e-11
-0.050, -3.198e-11
-0.049, -7.283e-11
-0.048, -1.130e-10
-0.047, -1.571e-10
-0.046, -1.995e-10
-0.045, -2.505e-10
-0.044, -3.045e-10
-0.043, -3.485e-10
-0.042, -4.009e-10
-0.041, -4.503e-10
-0.040, -5.071e-10
-0.039, -5.657e-10
-0.038, -6.234e-10
-0.037, -6.787e-10
-0.036, -7.412e-10
-0.035, -8.045e-10
-0.034, -8.750e-10
-0.033, -9.386e-10
-0.032, -1.003e-9
-0.031, -1.074e-9
-0.030, -1.145e-9
-0.029, -1.223e-9
-0.028, -1.300e-9
-0.027, -1.374e-9
-0.026, -1.458e-9
-0.025, -1.546e-9
-0.024, -1.634e-9
-0.023, -1.723e-9
-0.022, -1.810e-9
-0.021, -1.901e-9
-0.020, -2.000e-9
-0.019, -2.099e-9
-0.018, -2.201e-9
-0.017, -2.303e-9
-0.016, -2.406e-9
-0.015, -2.521e-9
-0.014, -2.634e-9
-0.013, -2.748e-9
-0.012, -2.866e-9
-0.011, -2.981e-9
-0.010, -3.112e-9
-0.009, -3.238e-9
-0.008, -3.367e-9
-0.007, -3.492e-9
-0.006, -3.619e-9
-0.005, -3.762e-9
-0.004, -3.905e-9
-0.003, -4.042e-9
-0.002, -4.190e-9
-0.001, -4.336e-9
-0.000, -4.524e-9
0.001, -4.683e-9
0.002, -4.822e-9
0.003, -4.971e-9
0.004, -5.131e-9
0.005, -5.296e-9
0.006, -5.465e-9
0.007, -5.628e-9
0.008, -5.797e-9
0.009, -5.972e-9
0.010, -6.137e-9
0.011, -6.319e-9
0.012, -6.496e-9
0.013, -6.668e-9
0.014, -6.850e-9
0.015, -7.029e-9
0.016, -7.209e-9
0.017, -7.402e-9
0.018, -7.573e-9
0.019, -7.757e-9
0.020, -7.942e-9
0.021, -8.123e-9
0.022, -8.307e-9
0.023, -8.478e-9
0.024, -8.658e-9
0.025, -8.846e-9
0.026, -9.028e-9
0.027, -9.202e-9
0.028, -9.372e-9
0.029, -9.540e-9
0.030, -9.715e-9
0.031, -9.884e-9
0.032, -1.004e-8
0.033, -1.021e-8
0.034, -1.036e-8
0.035, -1.052e-8
0.036, -1.068e-8
0.037, -1.083e-8
0.038, -1.098e-8
0.039, -1.111e-8
0.040, -1.126e-8
0.041, -1.139e-8
0.042, -1.152e-8
0.043, -1.164e-8
0.044, -1.176e-8
0.045, -1.188e-8
0.046, -1.200e-8
0.047, -1.210e-8
0.048, -1.220e-8
0.049, -1.230e-8
0.050, -1.239e-8
0.051, -1.249e-8
0.052, -1.257e-8
0.053, -1.265e-8
0.054, -1.273e-8
0.055, -1.279e-8
0.056, -1.286e-8
0.057, -1.292e-8
0.058, -1.297e-8
0.059, -1.302e-8
0.060, -1.307e-8
0.061, -1.311e-8
0.062, -1.315e-8
0.063, -1.318e-8
0.064, -1.321e-8
0.065, -1.324e-8
0.066, -1.326e-8
0.067, -1.328e-8
0.068, -1.329e-8
0.069, -1.330e-8
0.070, -1.331e-8
0.071, -1.332e-8
0.072, -1.332e-8
0.073, -1.332e-8
0.074, -1.330e-8
0.075, -1.330e-8
0.076, -1.329e-8
0.077, -1.328e-8
0.078, -1.326e-8
0.079, -1.324e-8
0.080, -1.322e-8
0.081, -1.321e-8
0.082, -1.318e-8
0.083, -1.315e-8
0.084, -1.312e-8
0.085, -1.309e-8
0.086, -1.307e-8
0.087, -1.304e-8
0.088, -1.300e-8
0.089, -1.297e-8
0.090, -1.293e-8
0.091, -1.290e-8
0.092, -1.286e-8
0.093, -1.282e-8
0.094, -1.278e-8
0.095, -1.274e-8
0.096, -1.270e-8
0.097, -1.266e-8
0.098, -1.262e-8
0.099, -1.257e-8
0.100, -1.254e-8
0.101, -1.250e-8
0.102, -1.246e-8
0.103, -1.242e-8
0.104, -1.237e-8
0.105, -1.233e-8
0.106, -1.229e-8
0.107, -1.224e-8
0.108, -1.220e-8
0.109, -1.215e-8
0.110, -1.212e-8
0.111, -1.208e-8
0.112, -1.204e-8
0.113, -1.199e-8
0.114, -1.195e-8
0.115, -1.191e-8
0.116, -1.188e-8
0.117, -1.184e-8
0.118, -1.180e-8
0.119, -1.175e-8
0.120, -1.172e-8
0.121, -1.168e-8
0.122, -1.164e-8
0.123, -1.160e-8
0.124, -1.156e-8
0.125, -1.153e-8
0.126, -1.150e-8
0.127, -1.146e-8
0.128, -1.142e-8
0.129, -1.139e-8
0.130, -1.135e-8
0.131, -1.132e-8
0.132, -1.129e-8
0.133, -1.126e-8
0.134, -1.122e-8
0.135, -1.119e-8
0.136, -1.116e-8
0.137, -1.113e-8
0.138, -1.110e-8
0.139, -1.107e-8
0.140, -1.104e-8
0.141, -1.101e-8
0.142, -1.099e-8
0.143, -1.095e-8
0.144, -1.092e-8
0.145, -1.090e-8
0.146, -1.087e-8
0.147, -1.085e-8
0.148, -1.082e-8
0.149, -1.079e-8
0.150, -1.077e-8
0.151, -1.075e-8
0.152, -1.073e-8
0.153, -1.070e-8
0.154, -1.068e-8
0.155, -1.065e-8
0.156, -1.064e-8
0.157, -1.061e-8
0.158, -1.059e-8
0.159, -1.057e-8
0.160, -1.055e-8
0.161, -1.054e-8
0.162, -1.051e-8
0.163, -1.049e-8
0.164, -1.047e-8
0.165, -1.045e-8
0.166, -1.044e-8
0.167, -1.042e-8
0.168, -1.040e-8
0.169, -1.038e-8
0.170, -1.036e-8
0.171, -1.035e-8
0.172, -1.034e-8
0.173, -1.032e-8
0.174, -1.030e-8
0.175, -1.029e-8
0.176, -1.028e-8
0.177, -1.027e-8
0.178, -1.025e-8
0.179, -1.024e-8
0.180, -1.022e-8
0.181, -1.021e-8
0.182, -1.020e-8
0.183, -1.018e-8
0.184, -1.017e-8
0.185, -1.016e-8
0.186, -1.015e-8
0.187, -1.014e-8
0.188, -1.013e-8
0.189, -1.011e-8
0.190, -1.010e-8
0.191, -1.010e-8
0.192, -1.009e-8
0.193, -1.008e-8
0.194, -1.006e-8
0.195, -1.005e-8
0.196, -1.005e-8
0.197, -1.004e-8
0.198, -1.003e-8
0.199, -1.002e-8
0.200, -1.002e-8
0.201, -1.001e-8
0.202, -1.001e-8
0.203, -9.995e-9
0.204, -9.989e-9
0.205, -9.986e-9
0.206, -9.984e-9
0.207, -9.977e-9
0.208, -9.966e-9
0.209, -9.960e-9
0.210, -9.952e-9
0.211, -9.951e-9
0.212, -9.947e-9
0.213, -9.938e-9
0.214, -9.931e-9
0.215, -9.926e-9
0.216, -9.926e-9
0.217, -9.925e-9
0.218, -9.917e-9
0.219, -9.912e-9
0.220, -9.910e-9
0.221, -9.907e-9
0.222, -9.906e-9
0.223, -9.899e-9
0.224, -9.892e-9
0.225, -9.891e-9
0.226, -9.891e-9
0.227, -9.890e-9
0.228, -9.887e-9
0.229, -9.881e-9
0.230, -9.883e-9
0.231, -9.885e-9
0.232, -9.882e-9
0.233, -9.877e-9
0.234, -9.871e-9
0.235, -9.873e-9
0.236, -9.877e-9
0.237, -9.875e-9
0.238, -9.872e-9
0.239, -9.870e-9
0.240, -9.869e-9
0.241, -9.874e-9
0.242, -9.874e-9
0.243, -9.872e-9
0.244, -9.871e-9
0.245, -9.868e-9
0.246, -9.874e-9
0.247, -9.875e-9
0.248, -9.872e-9
0.249, -9.872e-9
0.250, -9.872e-9
0.251, -9.877e-9
0.252, -9.880e-9
0.253, -9.877e-9
0.254, -9.874e-9
0.255, -9.877e-9
0.256, -9.884e-9
0.257, -9.889e-9
0.258, -9.886e-9
0.259, -9.884e-9
0.260, -9.888e-9
0.261, -9.893e-9
0.262, -9.898e-9
0.263, -9.898e-9
0.264, -9.897e-9
0.265, -9.904e-9
0.266, -9.907e-9
0.267, -9.914e-9
0.268, -9.916e-9
0.269, -9.916e-9
0.270, -9.920e-9
0.271, -9.928e-9
0.272, -9.930e-9
0.273, -9.933e-9
0.274, -9.933e-9
0.275, -9.940e-9
0.276, -9.948e-9
0.277, -9.952e-9
0.278, -9.954e-9
0.279, -9.954e-9
0.280, -9.959e-9
0.281, -9.971e-9
0.282, -9.979e-9
0.283, -9.980e-9
0.284, -9.984e-9
0.285, -9.987e-9
0.286, -9.998e-9
0.287, -1.001e-8
0.288, -1.001e-8
0.289, -1.001e-8
0.290, -1.002e-8
0.291, -1.003e-8
0.292, -1.004e-8
0.293, -1.004e-8
0.294, -1.004e-8
0.295, -1.005e-8
0.296, -1.006e-8
0.297, -1.007e-8
0.298, -1.007e-8
0.299, -1.008e-8
0.300, -9.857e-9
0.299, -9.222e-9
0.298, -9.015e-9
0.297, -8.903e-9
0.296, -8.809e-9
0.295, -8.725e-9
0.294, -8.658e-9
0.293, -8.594e-9
0.292, -8.529e-9
0.291, -8.472e-9
0.290, -8.419e-9
0.289, -8.374e-9
0.288, -8.327e-9
0.287, -8.279e-9
0.286, -8.234e-9
0.285, -8.191e-9
0.284, -8.158e-9
0.283, -8.121e-9
0.282, -8.081e-9
0.281, -8.044e-9
0.280, -8.012e-9
0.279, -7.983e-9
0.278, -7.956e-9
0.277, -7.923e-9
0.276, -7.891e-9
0.275, -7.866e-9
0.274, -7.841e-9
0.273, -7.818e-9
0.272, -7.789e-9
0.271, -7.759e-9
0.270, -7.735e-9
0.269, -7.715e-9
0.268, -7.692e-9
0.267, -7.670e-9
0.266, -7.644e-9
0.265, -7.623e-9
0.264, -7.605e-9
0.263, -7.587e-9
0.262, -7.566e-9
0.261, -7.543e-9
0.260, -7.523e-9
0.259, -7.509e-9
0.258, -7.492e-9
0.257, -7.472e-9
0.256, -7.448e-9
0.255, -7.430e-9
0.254, -7.421e-9
0.253, -7.403e-9
0.252, -7.384e-9
0.251, -7.367e-9
0.250, -7.349e-9
0.249, -7.339e-9
0.248, -7.324e-9
0.247, -7.305e-9
0.246, -7.290e-9
0.245, -7.272e-9
0.244, -7.259e-9
0.243, -7.243e-9
0.242, -7.225e-9
0.241, -7.209e-9
0.240, -7.195e-9
0.239, -7.181e-9
0.238, -7.172e-9
0.237, -7.154e-9
0.236, -7.138e-9
0.235, -7.124e-9
0.234, -7.112e-9
0.233, -7.105e-9
0.232, -7.088e-9
0.231, -7.071e-9
0.230, -7.058e-9
0.229, -7.047e-9
0.228, -7.037e-9
0.227, -7.021e-9
0.226, -7.004e-9
0.225, -6.991e-9
0.224, -6.983e-9
0.223, -6.971e-9
0.222, -6.958e-9
0.221, -6.942e-9
0.220, -6.930e-9
0.219, -6.921e-9
0.218, -6.908e-9
0.217, -6.895e-9
0.216, -6.878e-9
0.215, -6.866e-9
0.214, -6.861e-9
0.213, -6.850e-9
0.212, -6.835e-9
0.211, -6.822e-9
0.210, -6.807e-9
0.209, -6.800e-9
0.208, -6.790e-9
0.207, -6.775e-9
0.206, -6.761e-9
0.205, -6.744e-9
0.204, -6.735e-9
0.203, -6.728e-9
0.202, -6.711e-9
0.201, -6.697e-9
0.200, -6.683e-9
0.199, -6.674e-9
0.198, -6.668e-9
0.197, -6.653e-9
0.196, -6.637e-9
0.195, -6.625e-9
0.194, -6.613e-9
0.193, -6.606e-9
0.192, -6.590e-9
0.191, -6.573e-9
0.190, -6.562e-9
0.189, -6.551e-9
0.188, -6.542e-9
0.187, -6.528e-9
0.186, -6.511e-9
0.185, -6.501e-9
0.184, -6.488e-9
0.183, -6.476e-9
0.182, -6.465e-9
0.181, -6.447e-9
0.180, -6.434e-9
0.179, -6.422e-9
0.178, -6.411e-9
0.177, -6.398e-9
0.176, -6.379e-9
0.175, -6.362e-9
0.174, -6.353e-9
0.173, -6.339e-9
0.172, -6.322e-9
0.171, -6.305e-9
0.170, -6.287e-9
0.169, -6.276e-9
0.168, -6.264e-9
0.167, -6.243e-9
0.166, -6.226e-9
0.165, -6.208e-9
0.164, -6.195e-9
0.163, -6.181e-9
0.162, -6.163e-9
0.161, -6.145e-9
0.160, -6.128e-9
0.159, -6.112e-9
0.158, -6.100e-9
0.157, -6.080e-9
0.156, -6.058e-9
0.155, -6.037e-9
0.154, -6.018e-9
0.153, -6.003e-9
0.152, -5.980e-9
0.151, -5.957e-9
0.150, -5.938e-9
0.149, -5.918e-9
0.148, -5.900e-9
0.147, -5.879e-9
0.146, -5.851e-9
0.145, -5.828e-9
0.144, -5.805e-9
0.143, -5.783e-9
0.142, -5.758e-9
0.141, -5.727e-9
0.140, -5.698e-9
0.139, -5.676e-9
0.138, -5.651e-9
0.137, -5.626e-9
0.136, -5.593e-9
0.135, -5.562e-9
0.134, -5.537e-9
0.133, -5.507e-9
0.132, -5.472e-9
0.131, -5.439e-9
0.130, -5.404e-9
0.129, -5.373e-9
0.128, -5.340e-9
0.127, -5.300e-9
0.126, -5.264e-9
0.125, -5.224e-9
0.124, -5.186e-9
0.123, -5.152e-9
0.122, -5.106e-9
0.121, -5.063e-9
0.120, -5.015e-9
0.119, -4.970e-9
0.118, -4.930e-9
0.117, -4.880e-9
0.116, -4.830e-9
0.115, -4.781e-9
0.114, -4.730e-9
0.113, -4.684e-9
0.112, -4.627e-9
0.111, -4.568e-9
0.110, -4.509e-9
0.109, -4.449e-9
0.108, -4.392e-9
0.107, -4.326e-9
0.106, -4.259e-9
0.105, -4.195e-9
0.104, -4.125e-9
0.103, -4.055e-9
0.102, -3.980e-9
0.101, -3.903e-9
0.100, -3.825e-9
0.099, -3.753e-9
0.098, -3.673e-9
0.097, -3.589e-9
0.096, -3.501e-9
0.095, -3.420e-9
0.094, -3.335e-9
0.093, -3.239e-9
0.092, -3.145e-9
0.091, -3.045e-9
0.090, -2.937e-9
0.089, -2.837e-9
0.088, -2.735e-9
0.087, -2.627e-9
0.086, -2.513e-9
0.085, -2.397e-9
0.084, -2.286e-9
0.083, -2.171e-9
0.082, -2.045e-9
0.081, -1.921e-9
0.080, -1.791e-9
0.079, -1.661e-9
0.078, -1.533e-9
0.077, -1.392e-9
0.076, -1.250e-9
0.075, -1.112e-9
0.074, -9.674e-10
0.073, -8.322e-10
0.072, -6.757e-10
0.071, -5.183e-10
0.070, -3.697e-10
0.069, -2.096e-10
0.068, -5.501e-11
0.067, 1.040e-10
0.066, 2.748e-10
0.065, 4.394e-10
0.064, 6.134e-10
0.063, 7.823e-10
0.062, 9.548e-10
0.061, 1.135e-9
0.060, 1.307e-9
0.059, 1.480e-9
0.058, 1.660e-9
0.057, 1.832e-9
0.056, 2.017e-9
0.055, 2.202e-9
0.054, 2.373e-9
0.053, 2.555e-9
0.052, 2.735e-9
0.051, 2.921e-9
0.050, 3.108e-9
0.049, 3.280e-9
0.048, 3.459e-9
0.047, 3.637e-9
0.046, 3.817e-9
0.045, 3.998e-9
0.044, 4.169e-9
0.043, 4.340e-9
0.042, 4.510e-9
0.041, 4.677e-9
0.040, 4.847e-9
0.039, 5.011e-9
0.038, 5.170e-9
0.037, 5.334e-9
0.036, 5.487e-9
0.035, 5.640e-9
0.034, 5.792e-9
0.033, 5.931e-9
0.032, 6.072e-9
0.031, 6.215e-9
0.030, 6.349e-9
0.029, 6.478e-9
0.028, 6.599e-9
0.027, 6.723e-9
0.026, 6.849e-9
0.025, 6.962e-9
0.024, 7.069e-9
0.023, 7.165e-9
0.022, 7.262e-9
0.021, 7.368e-9
0.020, 7.453e-9
0.019, 7.536e-9
0.018, 7.619e-9
0.017, 7.692e-9
0.016, 7.768e-9
0.015, 7.835e-9
0.014, 7.893e-9
0.013, 7.953e-9
0.012, 8.008e-9
0.011, 8.059e-9
0.010, 8.108e-9
0.009, 8.140e-9
0.008, 8.178e-9
0.007, 8.213e-9
0.006, 8.235e-9
0.005, 8.265e-9
0.004, 8.285e-9
0.003, 8.297e-9
0.002, 8.312e-9
0.001, 8.325e-9
0.000, 8.366e-9
-0.001, 8.373e-9
-0.002, 8.353e-9
-0.003, 8.352e-9
-0.004, 8.346e-9
-0.005, 8.339e-9
-0.006, 8.330e-9
-0.007, 8.311e-9
-0.008, 8.298e-9
-0.009, 8.284e-9
-0.010, 8.268e-9
-0.011, 8.250e-9
-0.012, 8.224e-9
-0.013, 8.204e-9
-0.014, 8.185e-9
-0.015, 8.156e-9
-0.016, 8.126e-9
-0.017, 8.093e-9
-0.018, 8.059e-9
-0.019, 8.034e-9
-0.020, 8.000e-9
-0.021, 7.968e-9
-0.022, 7.932e-9
-0.023, 7.893e-9
-0.024, 7.862e-9
-0.025, 7.829e-9
-0.026, 7.793e-9
-0.027, 7.753e-9
-0.028, 7.715e-9
-0.029, 7.680e-9
-0.030, 7.644e-9
-0.031, 7.604e-9
-0.032, 7.562e-9
-0.033, 7.524e-9
-0.034, 7.483e-9
-0.035, 7.448e-9
-0.036, 7.409e-9
-0.037, 7.364e-9
-0.038, 7.330e-9
-0.039, 7.295e-9
-0.040, 7.257e-9
-0.041, 7.219e-9
-0.042, 7.175e-9
-0.043, 7.142e-9
-0.044, 7.105e-9
-0.045, 7.067e-9
-0.046, 7.031e-9
-0.047, 6.988e-9
-0.048, 6.952e-9
-0.049, 6.921e-9
-0.050, 6.885e-9
-0.051, 6.850e-9
-0.052, 6.811e-9
-0.053, 6.774e-9
-0.054, 6.744e-9
-0.055, 6.711e-9
-0.056, 6.677e-9
-0.057, 6.642e-9
-0.058, 6.605e-9
-0.059, 6.579e-9
-0.060, 6.549e-9
-0.061, 6.514e-9
-0.062, 6.482e-9
-0.063, 6.450e-9
-0.064, 6.426e-9
-0.065, 6.400e-9
-0.066, 6.367e-9
-0.067, 6.335e-9
-0.068, 6.306e-9
-0.069, 6.278e-9
-0.070, 6.254e-9
-0.071, 6.223e-9
-0.072, 6.194e-9
-0.073, 6.168e-9
-0.074, 6.144e-9
-0.075, 6.120e-9
-0.076, 6.094e-9
-0.077, 6.066e-9
-0.078, 6.042e-9
-0.079, 6.018e-9
-0.080, 5.997e-9
-0.081, 5.973e-9
-0.082, 5.946e-9
-0.083, 5.925e-9
-0.084, 5.906e-9
-0.085, 5.887e-9
-0.086, 5.866e-9
-0.087, 5.839e-9
-0.088, 5.816e-9
-0.089, 5.799e-9
-0.090, 5.781e-9
-0.091, 5.761e-9
-0.092, 5.737e-9
-0.093, 5.717e-9
-0.094, 5.703e-9
-0.095, 5.685e-9
-0.096, 5.666e-9
-0.097, 5.648e-9
-0.098, 5.625e-9
-0.099, 5.613e-9
-0.100, 5.597e-9
-0.101, 5.578e-9
-0.102, 5.561e-9
-0.103, 5.544e-9
-0.104, 5.529e-9
-0.105, 5.516e-9
-0.106, 5.498e-9
-0.107, 5.479e-9
-0.108, 5.463e-9
-0.109, 5.452e-9
-0.110, 5.442e-9
-0.111, 5.426e-9
-0.112, 5.408e-9
-0.113, 5.394e-9
-0.114, 5.383e-9
-0.115, 5.373e-9
-0.116, 5.361e-9
-0.117, 5.342e-9
-0.118, 5.329e-9
-0.119, 5.318e-9
-0.120, 5.308e-9
-0.121, 5.296e-9
-0.122, 5.279e-9
-0.123, 5.267e-9
-0.124, 5.259e-9
-0.125, 5.248e-9
-0.126, 5.238e-9
-0.127, 5.222e-9
-0.128, 5.212e-9
-0.129, 5.206e-9
-0.130, 5.196e-9
-0.131, 5.186e-9
-0.132, 5.170e-9
-0.133, 5.160e-9
-0.134, 5.155e-9
-0.135, 5.145e-9
-0.136, 5.136e-9
-0.137, 5.125e-9
-0.138, 5.111e-9
-0.139, 5.108e-9
-0.140, 5.102e-9
-0.141, 5.093e-9
-0.142, 5.081e-9
-0.143, 5.070e-9
-0.144, 5.065e-9
-0.145, 5.060e-9
-0.146, 5.048e-9
-0.147, 5.039e-9
-0.148, 5.030e-9
-0.149, 5.025e-9
-0.150, 5.020e-9
-0.151, 5.012e-9
-0.152, 5.001e-9
-0.153, 4.993e-9
-0.154, 4.991e-9
-0.155, 4.985e-9
-0.156, 4.979e-9
-0.157, 4.966e-9
-0.158, 4.960e-9
-0.159, 4.956e-9
-0.160, 4.952e-9
-0.161, 4.948e-9
-0.162, 4.936e-9
-0.163, 4.930e-9
-0.164, 4.926e-9
-0.165, 4.924e-9
-0.166, 4.920e-9
-0.167, 4.910e-9
-0.168, 4.902e-9
-0.169, 4.901e-9
-0.170, 4.896e-9
-0.171, 4.893e-9
-0.172, 4.883e-9
-0.173, 4.876e-9
-0.174, 4.877e-9
-0.175, 4.872e-9
-0.176, 4.868e-9
-0.177, 4.862e-9
-0.178, 4.854e-9
-0.179, 4.854e-9
-0.180, 4.854e-9
-0.181, 4.848e-9
-0.182, 4.842e-9
-0.183, 4.835e-9
-0.184, 4.835e-9
-0.185, 4.836e-9
-0.186, 4.829e-9
-0.187, 4.824e-9
-0.188, 4.819e-9
-0.189, 4.817e-9
-0.190, 4.818e-9
-0.191, 4.813e-9
-0.192, 4.808e-9
-0.193, 4.804e-9
-0.194, 4.803e-9
-0.195, 4.802e-9
-0.196, 4.801e-9
-0.197, 4.792e-9
-0.198, 4.790e-9
-0.199, 4.788e-9
