Mar. 16, 2023   08:56:26
Cyclic Voltammetry
File: c:/users/oliverrz/desktop/electrolab/data/2023_03_16\fcmeoh_macros_250_um\electrode3_cv_250mvs_250_um.bin
Data Source:  Experiment
Instrument Model:  CHI760E
Header: CV
Note: 

Init E (V) = -0.2
High E (V) = 0.3
Low E (V) = -0.2
Final E (V) = -0.2
Init P/N = P
Scan Rate (V/s) = 0.25
Segment = 3
Sample Interval (V) = 0.001
Quiet Time (sec) = 2
Sensitivity (A/V) = 1e-7

Results:

Channel 1:
Segment 1:
Ep = 0.153V
ip = -2.550e-8A
Ah = -6.016e-9C

Segment 2:
Ep = 0.095V
ip = 2.064e-8A
Ah = 4.854e-9C

Segment 3:

Potential/V, Current/A

-0.200, 5.637e-9
-0.199, 4.745e-9
-0.198, 4.406e-9
-0.197, 4.191e-9
-0.196, 4.222e-9
-0.195, 4.252e-9
-0.194, 4.037e-9
-0.193, 3.791e-9
-0.192, 3.822e-9
-0.191, 3.914e-9
-0.190, 3.699e-9
-0.189, 3.514e-9
-0.188, 3.453e-9
-0.187, 3.606e-9
-0.186, 3.453e-9
-0.185, 3.176e-9
-0.184, 3.176e-9
-0.183, 3.299e-9
-0.182, 3.206e-9
-0.181, 2.960e-9
-0.180, 2.868e-9
-0.179, 3.022e-9
-0.178, 2.960e-9
-0.177, 2.745e-9
-0.176, 2.622e-9
-0.175, 2.714e-9
-0.174, 2.745e-9
-0.173, 2.560e-9
-0.172, 2.376e-9
-0.171, 2.468e-9
-0.170, 2.530e-9
-0.169, 2.345e-9
-0.168, 2.160e-9
-0.167, 2.222e-9
-0.166, 2.314e-9
-0.165, 2.160e-9
-0.164, 1.945e-9
-0.163, 1.976e-9
-0.162, 2.099e-9
-0.161, 1.976e-9
-0.160, 1.760e-9
-0.159, 1.760e-9
-0.158, 1.883e-9
-0.157, 1.822e-9
-0.156, 1.576e-9
-0.155, 1.514e-9
-0.154, 1.699e-9
-0.153, 1.637e-9
-0.152, 1.453e-9
-0.151, 1.330e-9
-0.150, 1.453e-9
-0.149, 1.514e-9
-0.148, 1.299e-9
-0.147, 1.145e-9
-0.146, 1.268e-9
-0.145, 1.299e-9
-0.144, 1.207e-9
-0.143, 9.913e-10
-0.142, 1.053e-9
-0.141, 1.176e-9
-0.140, 1.022e-9
-0.139, 8.375e-10
-0.138, 8.682e-10
-0.137, 1.022e-9
-0.136, 9.298e-10
-0.135, 6.836e-10
-0.134, 6.836e-10
-0.133, 8.682e-10
-0.132, 7.759e-10
-0.131, 5.913e-10
-0.130, 5.298e-10
-0.129, 6.836e-10
-0.128, 7.144e-10
-0.127, 4.683e-10
-0.126, 3.760e-10
-0.125, 5.298e-10
-0.124, 5.606e-10
-0.123, 3.760e-10
-0.122, 2.222e-10
-0.121, 3.452e-10
-0.120, 4.375e-10
-0.119, 2.837e-10
-0.118, 9.911e-11
-0.117, 1.914e-10
-0.116, 3.145e-10
-0.115, 1.914e-10
-0.114, 6.813e-12
-0.113, 3.758e-11
-0.112, 1.914e-10
-0.111, 1.299e-10
-0.110, -1.162e-10
-0.109, -8.548e-11
-0.108, 6.834e-11
-0.107, 3.758e-11
-0.106, -1.470e-10
-0.105, -2.393e-10
-0.104, -5.472e-11
-0.103, -5.472e-11
-0.102, -2.701e-10
-0.101, -3.316e-10
-0.100, -2.085e-10
-0.099, -1.162e-10
-0.098, -3.008e-10
-0.097, -4.547e-10
-0.096, -3.008e-10
-0.095, -2.393e-10
-0.094, -3.624e-10
-0.093, -5.162e-10
-0.092, -4.854e-10
-0.091, -3.008e-10
-0.090, -4.239e-10
-0.089, -6.393e-10
-0.088, -5.470e-10
-0.087, -4.239e-10
-0.086, -4.854e-10
-0.085, -6.700e-10
-0.084, -7.008e-10
-0.083, -4.854e-10
-0.082, -5.470e-10
-0.081, -7.623e-10
-0.080, -7.931e-10
-0.079, -6.085e-10
-0.078, -6.085e-10
-0.077, -8.238e-10
-0.076, -8.854e-10
-0.075, -7.315e-10
-0.074, -7.008e-10
-0.073, -8.546e-10
-0.072, -9.777e-10
-0.071, -8.546e-10
-0.070, -7.315e-10
-0.069, -8.854e-10
-0.068, -1.070e-9
-0.067, -9.777e-10
-0.066, -8.238e-10
-0.065, -9.469e-10
-0.064, -1.101e-9
-0.063, -1.070e-9
-0.062, -9.161e-10
-0.061, -9.777e-10
-0.060, -1.193e-9
-0.059, -1.162e-9
-0.058, -9.777e-10
-0.057, -1.039e-9
-0.056, -1.224e-9
-0.055, -1.255e-9
-0.054, -1.101e-9
-0.053, -1.039e-9
-0.052, -1.285e-9
-0.051, -1.347e-9
-0.050, -1.193e-9
-0.049, -1.162e-9
-0.048, -1.285e-9
-0.047, -1.439e-9
-0.046, -1.316e-9
-0.045, -1.162e-9
-0.044, -1.347e-9
-0.043, -1.470e-9
-0.042, -1.408e-9
-0.041, -1.285e-9
-0.040, -1.347e-9
-0.039, -1.593e-9
-0.038, -1.501e-9
-0.037, -1.347e-9
-0.036, -1.439e-9
-0.035, -1.624e-9
-0.034, -1.624e-9
-0.033, -1.439e-9
-0.032, -1.439e-9
-0.031, -1.655e-9
-0.030, -1.716e-9
-0.029, -1.531e-9
-0.028, -1.531e-9
-0.027, -1.716e-9
-0.026, -1.808e-9
-0.025, -1.655e-9
-0.024, -1.593e-9
-0.023, -1.747e-9
-0.022, -1.901e-9
-0.021, -1.747e-9
-0.020, -1.655e-9
-0.019, -1.808e-9
-0.018, -1.962e-9
-0.017, -1.870e-9
-0.016, -1.716e-9
-0.015, -1.870e-9
-0.014, -2.054e-9
-0.013, -1.993e-9
-0.012, -1.839e-9
-0.011, -1.901e-9
-0.010, -2.116e-9
-0.009, -2.116e-9
-0.008, -1.931e-9
-0.007, -1.993e-9
-0.006, -2.178e-9
-0.005, -2.208e-9
-0.004, -2.085e-9
-0.003, -2.054e-9
-0.002, -2.270e-9
-0.001, -2.362e-9
-0.000, -2.301e-9
0.001, -2.178e-9
0.002, -2.331e-9
0.003, -2.454e-9
0.004, -2.362e-9
0.005, -2.270e-9
0.006, -2.424e-9
0.007, -2.608e-9
0.008, -2.516e-9
0.009, -2.424e-9
0.010, -2.516e-9
0.011, -2.731e-9
0.012, -2.701e-9
0.013, -2.547e-9
0.014, -2.670e-9
0.015, -2.854e-9
0.016, -2.885e-9
0.017, -2.731e-9
0.018, -2.762e-9
0.019, -3.008e-9
0.020, -3.070e-9
0.021, -2.947e-9
0.022, -2.916e-9
0.023, -3.162e-9
0.024, -3.285e-9
0.025, -3.162e-9
0.026, -3.162e-9
0.027, -3.347e-9
0.028, -3.500e-9
0.029, -3.439e-9
0.030, -3.347e-9
0.031, -3.562e-9
0.032, -3.747e-9
0.033, -3.716e-9
0.034, -3.623e-9
0.035, -3.747e-9
0.036, -4.023e-9
0.037, -4.023e-9
0.038, -3.900e-9
0.039, -4.085e-9
0.040, -4.300e-9
0.041, -4.393e-9
0.042, -4.270e-9
0.043, -4.362e-9
0.044, -4.669e-9
0.045, -4.731e-9
0.046, -4.669e-9
0.047, -4.731e-9
0.048, -5.008e-9
0.049, -5.223e-9
0.050, -5.131e-9
0.051, -5.192e-9
0.052, -5.439e-9
0.053, -5.685e-9
0.054, -5.654e-9
0.055, -5.654e-9
0.056, -5.900e-9
0.057, -6.208e-9
0.058, -6.239e-9
0.059, -6.239e-9
0.060, -6.485e-9
0.061, -6.792e-9
0.062, -6.885e-9
0.063, -6.885e-9
0.064, -7.100e-9
0.065, -7.469e-9
0.066, -7.623e-9
0.067, -7.592e-9
0.068, -7.838e-9
0.069, -8.177e-9
0.070, -8.392e-9
0.071, -8.454e-9
0.072, -8.607e-9
0.073, -9.007e-9
0.074, -9.284e-9
0.075, -9.315e-9
0.076, -9.530e-9
0.077, -9.900e-9
0.078, -1.027e-8
0.079, -1.039e-8
0.080, -1.048e-8
0.081, -1.088e-8
0.082, -1.131e-8
0.083, -1.147e-8
0.084, -1.162e-8
0.085, -1.196e-8
0.086, -1.242e-8
0.087, -1.270e-8
0.088, -1.276e-8
0.089, -1.319e-8
0.090, -1.362e-8
0.091, -1.393e-8
0.092, -1.411e-8
0.093, -1.439e-8
0.094, -1.491e-8
0.095, -1.531e-8
0.096, -1.544e-8
0.097, -1.581e-8
0.098, -1.627e-8
0.099, -1.670e-8
0.100, -1.691e-8
0.101, -1.719e-8
0.102, -1.774e-8
0.103, -1.814e-8
0.104, -1.839e-8
0.105, -1.867e-8
0.106, -1.913e-8
0.107, -1.965e-8
0.108, -1.990e-8
0.109, -2.008e-8
0.110, -2.054e-8
0.111, -2.110e-8
0.112, -2.141e-8
0.113, -2.156e-8
0.114, -2.199e-8
0.115, -2.251e-8
0.116, -2.285e-8
0.117, -2.301e-8
0.118, -2.337e-8
0.119, -2.387e-8
0.120, -2.421e-8
0.121, -2.439e-8
0.122, -2.470e-8
0.123, -2.513e-8
0.124, -2.553e-8
0.125, -2.562e-8
0.126, -2.587e-8
0.127, -2.633e-8
0.128, -2.664e-8
0.129, -2.682e-8
0.130, -2.694e-8
0.131, -2.728e-8
0.132, -2.771e-8
0.133, -2.780e-8
0.134, -2.787e-8
0.135, -2.817e-8
0.136, -2.848e-8
0.137, -2.864e-8
0.138, -2.860e-8
0.139, -2.885e-8
0.140, -2.919e-8
0.141, -2.928e-8
0.142, -2.922e-8
0.143, -2.940e-8
0.144, -2.962e-8
0.145, -2.980e-8
0.146, -2.968e-8
0.147, -2.971e-8
0.148, -2.996e-8
0.149, -3.005e-8
0.150, -2.996e-8
0.151, -2.993e-8
0.152, -3.011e-8
0.153, -3.020e-8
0.154, -3.011e-8
0.155, -2.999e-8
0.156, -3.011e-8
0.157, -3.020e-8
0.158, -3.008e-8
0.159, -2.990e-8
0.160, -2.999e-8
0.161, -3.008e-8
0.162, -2.999e-8
0.163, -2.971e-8
0.164, -2.971e-8
0.165, -2.984e-8
0.166, -2.974e-8
0.167, -2.950e-8
0.168, -2.940e-8
0.169, -2.950e-8
0.170, -2.944e-8
0.171, -2.913e-8
0.172, -2.904e-8
0.173, -2.904e-8
0.174, -2.904e-8
0.175, -2.879e-8
0.176, -2.854e-8
0.177, -2.860e-8
0.178, -2.857e-8
0.179, -2.833e-8
0.180, -2.811e-8
0.181, -2.808e-8
0.182, -2.811e-8
0.183, -2.790e-8
0.184, -2.759e-8
0.185, -2.759e-8
0.186, -2.759e-8
0.187, -2.740e-8
0.188, -2.710e-8
0.189, -2.704e-8
0.190, -2.707e-8
0.191, -2.691e-8
0.192, -2.657e-8
0.193, -2.651e-8
0.194, -2.654e-8
0.195, -2.642e-8
0.196, -2.614e-8
0.197, -2.596e-8
0.198, -2.599e-8
0.199, -2.596e-8
0.200, -2.565e-8
0.201, -2.544e-8
0.202, -2.547e-8
0.203, -2.547e-8
0.204, -2.522e-8
0.205, -2.497e-8
0.206, -2.497e-8
0.207, -2.501e-8
0.208, -2.479e-8
0.209, -2.451e-8
0.210, -2.448e-8
0.211, -2.451e-8
0.212, -2.436e-8
0.213, -2.408e-8
0.214, -2.402e-8
0.215, -2.411e-8
0.216, -2.396e-8
0.217, -2.368e-8
0.218, -2.362e-8
0.219, -2.365e-8
0.220, -2.362e-8
0.221, -2.331e-8
0.222, -2.316e-8
0.223, -2.328e-8
0.224, -2.319e-8
0.225, -2.297e-8
0.226, -2.279e-8
0.227, -2.285e-8
0.228, -2.291e-8
0.229, -2.264e-8
0.230, -2.245e-8
0.231, -2.251e-8
0.232, -2.254e-8
0.233, -2.242e-8
0.234, -2.211e-8
0.235, -2.217e-8
0.236, -2.224e-8
0.237, -2.211e-8
0.238, -2.187e-8
0.239, -2.184e-8
0.240, -2.196e-8
0.241, -2.187e-8
0.242, -2.162e-8
0.243, -2.156e-8
0.244, -2.168e-8
0.245, -2.165e-8
0.246, -2.137e-8
0.247, -2.131e-8
0.248, -2.141e-8
0.249, -2.141e-8
0.250, -2.119e-8
0.251, -2.104e-8
0.252, -2.116e-8
0.253, -2.122e-8
0.254, -2.104e-8
0.255, -2.085e-8
0.256, -2.094e-8
0.257, -2.104e-8
0.258, -2.088e-8
0.259, -2.067e-8
0.260, -2.073e-8
0.261, -2.085e-8
0.262, -2.073e-8
0.263, -2.054e-8
0.264, -2.051e-8
0.265, -2.067e-8
0.266, -2.064e-8
0.267, -2.039e-8
0.268, -2.039e-8
0.269, -2.051e-8
0.270, -2.051e-8
0.271, -2.033e-8
0.272, -2.021e-8
0.273, -2.036e-8
0.274, -2.042e-8
0.275, -2.021e-8
0.276, -2.014e-8
0.277, -2.024e-8
0.278, -2.033e-8
0.279, -2.018e-8
0.280, -1.999e-8
0.281, -2.014e-8
0.282, -2.024e-8
0.283, -2.011e-8
0.284, -1.996e-8
0.285, -1.999e-8
0.286, -2.018e-8
0.287, -2.008e-8
0.288, -1.987e-8
0.289, -1.993e-8
0.290, -2.011e-8
0.291, -2.008e-8
0.292, -1.987e-8
0.293, -1.987e-8
0.294, -2.005e-8
0.295, -2.008e-8
0.296, -1.987e-8
0.297, -1.981e-8
0.298, -1.999e-8
0.299, -2.002e-8
0.300, -1.808e-8
0.299, -1.571e-8
0.298, -1.541e-8
0.297, -1.525e-8
0.296, -1.488e-8
0.295, -1.451e-8
0.294, -1.448e-8
0.293, -1.445e-8
0.292, -1.418e-8
0.291, -1.390e-8
0.290, -1.384e-8
0.289, -1.390e-8
0.288, -1.371e-8
0.287, -1.341e-8
0.286, -1.335e-8
0.285, -1.344e-8
0.284, -1.328e-8
0.283, -1.301e-8
0.282, -1.291e-8
0.281, -1.301e-8
0.280, -1.295e-8
0.279, -1.267e-8
0.278, -1.255e-8
0.277, -1.264e-8
0.276, -1.261e-8
0.275, -1.239e-8
0.274, -1.221e-8
0.273, -1.227e-8
0.272, -1.233e-8
0.271, -1.211e-8
0.270, -1.190e-8
0.269, -1.196e-8
0.268, -1.202e-8
0.267, -1.187e-8
0.266, -1.162e-8
0.265, -1.165e-8
0.264, -1.175e-8
0.263, -1.162e-8
0.262, -1.135e-8
0.261, -1.138e-8
0.260, -1.144e-8
0.259, -1.141e-8
0.258, -1.113e-8
0.257, -1.107e-8
0.256, -1.122e-8
0.255, -1.113e-8
0.254, -1.091e-8
0.253, -1.082e-8
0.252, -1.091e-8
0.251, -1.095e-8
0.250, -1.070e-8
0.249, -1.055e-8
0.248, -1.064e-8
0.247, -1.067e-8
0.246, -1.051e-8
0.245, -1.027e-8
0.244, -1.033e-8
0.243, -1.042e-8
0.242, -1.027e-8
0.241, -1.005e-8
0.240, -1.005e-8
0.239, -1.018e-8
0.238, -1.005e-8
0.237, -9.807e-9
0.236, -9.776e-9
0.235, -9.900e-9
0.234, -9.807e-9
0.233, -9.530e-9
0.232, -9.469e-9
0.231, -9.592e-9
0.230, -9.530e-9
0.229, -9.284e-9
0.228, -9.161e-9
0.227, -9.284e-9
0.226, -9.284e-9
0.225, -9.007e-9
0.224, -8.854e-9
0.223, -8.915e-9
0.222, -8.977e-9
0.221, -8.761e-9
0.220, -8.515e-9
0.219, -8.577e-9
0.218, -8.607e-9
0.217, -8.423e-9
0.216, -8.207e-9
0.215, -8.146e-9
0.214, -8.269e-9
0.213, -8.115e-9
0.212, -7.808e-9
0.211, -7.777e-9
0.210, -7.838e-9
0.209, -7.684e-9
0.208, -7.438e-9
0.207, -7.285e-9
0.206, -7.377e-9
0.205, -7.285e-9
0.204, -6.946e-9
0.203, -6.823e-9
0.202, -6.823e-9
0.201, -6.792e-9
0.200, -6.515e-9
0.199, -6.239e-9
0.198, -6.300e-9
0.197, -6.239e-9
0.196, -5.962e-9
0.195, -5.685e-9
0.194, -5.623e-9
0.193, -5.654e-9
0.192, -5.346e-9
0.191, -5.039e-9
0.190, -4.946e-9
0.189, -4.946e-9
0.188, -4.731e-9
0.187, -4.362e-9
0.186, -4.208e-9
0.185, -4.177e-9
0.184, -3.993e-9
0.183, -3.593e-9
0.182, -3.377e-9
0.181, -3.347e-9
0.180, -3.131e-9
0.179, -2.731e-9
0.178, -2.485e-9
0.177, -2.393e-9
0.176, -2.239e-9
0.175, -1.808e-9
0.174, -1.501e-9
0.173, -1.408e-9
0.172, -1.193e-9
0.171, -8.546e-10
0.170, -4.239e-10
0.169, -2.701e-10
0.168, -1.470e-10
0.167, 2.837e-10
0.166, 7.452e-10
0.165, 9.298e-10
0.164, 1.114e-9
0.163, 1.453e-9
0.162, 2.007e-9
0.161, 2.253e-9
0.160, 2.376e-9
0.159, 2.776e-9
0.158, 3.237e-9
0.157, 3.576e-9
0.156, 3.822e-9
0.155, 4.099e-9
0.154, 4.652e-9
0.153, 5.052e-9
0.152, 5.206e-9
0.151, 5.575e-9
0.150, 6.037e-9
0.149, 6.498e-9
0.148, 6.744e-9
0.147, 6.990e-9
0.146, 7.513e-9
0.145, 8.006e-9
0.144, 8.252e-9
0.143, 8.498e-9
0.142, 8.990e-9
0.141, 9.544e-9
0.140, 9.790e-9
0.139, 1.001e-8
0.138, 1.044e-8
0.137, 1.099e-8
0.136, 1.130e-8
0.135, 1.148e-8
0.134, 1.188e-8
0.133, 1.241e-8
0.132, 1.271e-8
0.131, 1.293e-8
0.130, 1.324e-8
0.129, 1.376e-8
0.128, 1.410e-8
0.127, 1.431e-8
0.126, 1.450e-8
0.125, 1.493e-8
0.124, 1.536e-8
0.123, 1.548e-8
0.122, 1.567e-8
0.121, 1.607e-8
0.120, 1.640e-8
0.119, 1.662e-8
0.118, 1.665e-8
0.117, 1.702e-8
0.116, 1.742e-8
0.115, 1.748e-8
0.114, 1.760e-8
0.113, 1.779e-8
0.112, 1.816e-8
0.111, 1.828e-8
0.110, 1.825e-8
0.109, 1.844e-8
0.108, 1.877e-8
0.107, 1.884e-8
0.106, 1.884e-8
0.105, 1.890e-8
0.104, 1.917e-8
0.103, 1.933e-8
0.102, 1.920e-8
0.101, 1.923e-8
0.100, 1.942e-8
0.099, 1.954e-8
0.098, 1.948e-8
0.097, 1.939e-8
0.096, 1.951e-8
0.095, 1.970e-8
0.094, 1.954e-8
0.093, 1.942e-8
0.092, 1.948e-8
0.091, 1.963e-8
0.090, 1.954e-8
0.089, 1.933e-8
0.088, 1.933e-8
0.087, 1.951e-8
0.086, 1.936e-8
0.085, 1.914e-8
0.084, 1.914e-8
0.083, 1.920e-8
0.082, 1.914e-8
0.081, 1.890e-8
0.080, 1.877e-8
0.079, 1.890e-8
0.078, 1.887e-8
0.077, 1.859e-8
0.076, 1.844e-8
0.075, 1.847e-8
0.074, 1.850e-8
0.073, 1.825e-8
0.072, 1.797e-8
0.071, 1.807e-8
0.070, 1.804e-8
0.069, 1.782e-8
0.068, 1.760e-8
0.067, 1.751e-8
0.066, 1.764e-8
0.065, 1.742e-8
0.064, 1.714e-8
0.063, 1.708e-8
0.062, 1.711e-8
0.061, 1.699e-8
0.060, 1.668e-8
0.059, 1.659e-8
0.058, 1.665e-8
0.057, 1.653e-8
0.056, 1.622e-8
0.055, 1.610e-8
0.054, 1.616e-8
0.053, 1.607e-8
0.052, 1.579e-8
0.051, 1.564e-8
0.050, 1.567e-8
0.049, 1.564e-8
0.048, 1.536e-8
0.047, 1.514e-8
0.046, 1.517e-8
0.045, 1.517e-8
0.044, 1.496e-8
0.043, 1.471e-8
0.042, 1.471e-8
0.041, 1.477e-8
0.040, 1.456e-8
0.039, 1.431e-8
0.038, 1.425e-8
0.037, 1.434e-8
0.036, 1.422e-8
0.035, 1.391e-8
0.034, 1.385e-8
0.033, 1.394e-8
0.032, 1.382e-8
0.031, 1.360e-8
0.030, 1.345e-8
0.029, 1.354e-8
0.028, 1.351e-8
0.027, 1.324e-8
0.026, 1.308e-8
0.025, 1.317e-8
0.024, 1.317e-8
0.023, 1.296e-8
0.022, 1.274e-8
0.021, 1.281e-8
0.020, 1.287e-8
0.019, 1.262e-8
0.018, 1.244e-8
0.017, 1.247e-8
0.016, 1.256e-8
0.015, 1.241e-8
0.014, 1.213e-8
0.013, 1.216e-8
0.012, 1.228e-8
0.011, 1.213e-8
0.010, 1.191e-8
0.009, 1.185e-8
0.008, 1.201e-8
0.007, 1.194e-8
0.006, 1.167e-8
0.005, 1.157e-8
0.004, 1.170e-8
0.003, 1.170e-8
0.002, 1.148e-8
0.001, 1.136e-8
0.000, 1.154e-8
-0.001, 1.148e-8
-0.002, 1.133e-8
-0.003, 1.111e-8
-0.004, 1.124e-8
-0.005, 1.130e-8
-0.006, 1.111e-8
-0.007, 1.093e-8
-0.008, 1.096e-8
-0.009, 1.111e-8
-0.010, 1.096e-8
-0.011, 1.074e-8
-0.012, 1.077e-8
-0.013, 1.093e-8
-0.014, 1.081e-8
-0.015, 1.062e-8
-0.016, 1.056e-8
-0.017, 1.074e-8
-0.018, 1.068e-8
-0.019, 1.047e-8
-0.020, 1.041e-8
-0.021, 1.056e-8
-0.022, 1.059e-8
-0.023, 1.037e-8
-0.024, 1.022e-8
-0.025, 1.041e-8
-0.026, 1.047e-8
-0.027, 1.028e-8
-0.028, 1.013e-8
-0.029, 1.022e-8
-0.030, 1.034e-8
-0.031, 1.019e-8
-0.032, 1.001e-8
-0.033, 1.010e-8
-0.034, 1.022e-8
-0.035, 1.013e-8
-0.036, 9.913e-9
-0.037, 9.944e-9
-0.038, 1.013e-8
-0.039, 1.004e-8
-0.040, 9.852e-9
-0.041, 9.821e-9
-0.042, 1.001e-8
-0.043, 9.975e-9
-0.044, 9.790e-9
-0.045, 9.729e-9
-0.046, 9.913e-9
-0.047, 9.944e-9
-0.048, 9.759e-9
-0.049, 9.636e-9
-0.050, 9.821e-9
-0.051, 9.882e-9
-0.052, 9.729e-9
-0.053, 9.575e-9
-0.054, 9.667e-9
-0.055, 9.821e-9
-0.056, 9.667e-9
-0.057, 9.544e-9
-0.058, 9.606e-9
-0.059, 9.759e-9
-0.060, 9.698e-9
-0.061, 9.482e-9
-0.062, 9.544e-9
-0.063, 9.729e-9
-0.064, 9.636e-9
-0.065, 9.482e-9
-0.066, 9.482e-9
-0.067, 9.667e-9
-0.068, 9.667e-9
-0.069, 9.452e-9
-0.070, 9.452e-9
-0.071, 9.606e-9
-0.072, 9.667e-9
-0.073, 9.482e-9
-0.074, 9.390e-9
-0.075, 9.575e-9
-0.076, 9.667e-9
-0.077, 9.513e-9
-0.078, 9.421e-9
-0.079, 9.544e-9
-0.080, 9.667e-9
-0.081, 9.544e-9
-0.082, 9.390e-9
-0.083, 9.482e-9
-0.084, 9.667e-9
-0.085, 9.575e-9
-0.086, 9.421e-9
-0.087, 9.452e-9
-0.088, 9.636e-9
-0.089, 9.636e-9
-0.090, 9.452e-9
-0.091, 9.452e-9
-0.092, 9.667e-9
-0.093, 9.636e-9
-0.094, 9.482e-9
-0.095, 9.452e-9
-0.096, 9.636e-9
-0.097, 9.698e-9
-0.098, 9.544e-9
-0.099, 9.452e-9
-0.100, 9.636e-9
-0.101, 9.729e-9
-0.102, 9.606e-9
-0.103, 9.513e-9
-0.104, 9.606e-9
-0.105, 9.790e-9
-0.106, 9.698e-9
-0.107, 9.513e-9
-0.108, 9.667e-9
-0.109, 9.821e-9
-0.110, 9.759e-9
-0.111, 9.606e-9
-0.112, 9.636e-9
-0.113, 9.882e-9
-0.114, 9.821e-9
-0.115, 9.667e-9
-0.116, 9.729e-9
-0.117, 9.882e-9
-0.118, 9.944e-9
-0.119, 9.759e-9
-0.120, 9.729e-9
-0.121, 9.975e-9
-0.122, 1.001e-8
-0.123, 9.882e-9
-0.124, 9.821e-9
-0.125, 9.975e-9
-0.126, 1.010e-8
-0.127, 9.975e-9
-0.128, 9.882e-9
-0.129, 1.004e-8
-0.130, 1.019e-8
-0.131, 1.010e-8
-0.132, 9.975e-9
-0.133, 1.007e-8
-0.134, 1.031e-8
-0.135, 1.022e-8
-0.136, 1.007e-8
-0.137, 1.016e-8
-0.138, 1.037e-8
-0.139, 1.037e-8
-0.140, 1.019e-8
-0.141, 1.025e-8
-0.142, 1.047e-8
-0.143, 1.050e-8
-0.144, 1.034e-8
-0.145, 1.034e-8
-0.146, 1.056e-8
-0.147, 1.059e-8
-0.148, 1.050e-8
-0.149, 1.044e-8
-0.150, 1.062e-8
-0.151, 1.077e-8
-0.152, 1.062e-8
-0.153, 1.056e-8
-0.154, 1.074e-8
-0.155, 1.090e-8
-0.156, 1.084e-8
-0.157, 1.068e-8
-0.158, 1.084e-8
-0.159, 1.105e-8
-0.160, 1.096e-8
-0.161, 1.087e-8
-0.162, 1.096e-8
-0.163, 1.117e-8
-0.164, 1.121e-8
-0.165, 1.099e-8
-0.166, 1.111e-8
-0.167, 1.133e-8
-0.168, 1.136e-8
-0.169, 1.124e-8
-0.170, 1.121e-8
-0.171, 1.148e-8
-0.172, 1.157e-8
-0.173, 1.142e-8
-0.174, 1.142e-8
-0.175, 1.161e-8
-0.176, 1.176e-8
-0.177, 1.167e-8
-0.178, 1.157e-8
-0.179, 1.176e-8
-0.180, 1.194e-8
-0.181, 1.188e-8
-0.182, 1.179e-8
-0.183, 1.194e-8
-0.184, 1.216e-8
-0.185, 1.213e-8
-0.186, 1.201e-8
-0.187, 1.213e-8
-0.188, 1.234e-8
-0.189, 1.234e-8
-0.190, 1.222e-8
-0.191, 1.231e-8
-0.192, 1.256e-8
-0.193, 1.262e-8
-0.194, 1.250e-8
-0.195, 1.253e-8
-0.196, 1.277e-8
-0.197, 1.287e-8
-0.198, 1.277e-8
-0.199, 1.277e-8
