Mar. 16, 2023   08:56:16
Cyclic Voltammetry
File: c:/users/oliverrz/desktop/electrolab/data/2023_03_16\fcmeoh_macros_250_um\electrode3_cv_200mvs_250_um.bin
Data Source:  Experiment
Instrument Model:  CHI760E
Header: CV
Note: 

Init E (V) = -0.2
High E (V) = 0.3
Low E (V) = -0.2
Final E (V) = -0.2
Init P/N = P
Scan Rate (V/s) = 0.2
Segment = 3
Sample Interval (V) = 0.001
Quiet Time (sec) = 2
Sensitivity (A/V) = 1e-7

Results:

Channel 1:
Segment 1:
Ep = 0.155V
ip = -2.249e-8A
Ah = -6.696e-9C

Segment 2:
Ep = 0.097V
ip = 1.833e-8A
Ah = 5.434e-9C

Segment 3:

Potential/V, Current/A

-0.200, 5.855e-9
-0.199, 5.003e-9
-0.198, 4.828e-9
-0.197, 4.903e-9
-0.196, 4.704e-9
-0.195, 4.457e-9
-0.194, 4.564e-9
-0.193, 4.470e-9
-0.192, 4.213e-9
-0.191, 4.217e-9
-0.190, 4.269e-9
-0.189, 4.012e-9
-0.188, 3.908e-9
-0.187, 4.030e-9
-0.186, 3.871e-9
-0.185, 3.632e-9
-0.184, 3.771e-9
-0.183, 3.704e-9
-0.182, 3.444e-9
-0.181, 3.474e-9
-0.180, 3.543e-9
-0.179, 3.284e-9
-0.178, 3.208e-9
-0.177, 3.325e-9
-0.176, 3.176e-9
-0.175, 2.973e-9
-0.174, 3.093e-9
-0.173, 3.056e-9
-0.172, 2.795e-9
-0.171, 2.832e-9
-0.170, 2.921e-9
-0.169, 2.655e-9
-0.168, 2.601e-9
-0.167, 2.729e-9
-0.166, 2.574e-9
-0.165, 2.381e-9
-0.164, 2.521e-9
-0.163, 2.480e-9
-0.162, 2.248e-9
-0.161, 2.267e-9
-0.160, 2.374e-9
-0.159, 2.134e-9
-0.158, 2.055e-9
-0.157, 2.212e-9
-0.156, 2.059e-9
-0.155, 1.863e-9
-0.154, 2.008e-9
-0.153, 1.969e-9
-0.152, 1.743e-9
-0.151, 1.786e-9
-0.150, 1.871e-9
-0.149, 1.656e-9
-0.148, 1.579e-9
-0.147, 1.741e-9
-0.146, 1.600e-9
-0.145, 1.397e-9
-0.144, 1.568e-9
-0.143, 1.529e-9
-0.142, 1.291e-9
-0.141, 1.351e-9
-0.140, 1.448e-9
-0.139, 1.220e-9
-0.138, 1.170e-9
-0.137, 1.313e-9
-0.136, 1.183e-9
-0.135, 1.007e-9
-0.134, 1.151e-9
-0.133, 1.142e-9
-0.132, 8.959e-10
-0.131, 9.630e-10
-0.130, 1.077e-9
-0.129, 8.337e-10
-0.128, 7.844e-10
-0.127, 9.522e-10
-0.126, 8.067e-10
-0.125, 6.447e-10
-0.124, 7.987e-10
-0.123, 7.828e-10
-0.122, 5.523e-10
-0.121, 6.072e-10
-0.120, 7.291e-10
-0.119, 5.041e-10
-0.118, 4.386e-10
-0.117, 6.293e-10
-0.116, 4.824e-10
-0.115, 3.098e-10
-0.114, 4.790e-10
-0.113, 4.628e-10
-0.112, 2.394e-10
-0.111, 3.079e-10
-0.110, 4.057e-10
-0.109, 2.112e-10
-0.108, 1.438e-10
-0.107, 3.220e-10
-0.106, 2.049e-10
-0.105, 2.060e-11
-0.104, 1.931e-10
-0.103, 1.799e-10
-0.102, -4.704e-11
-0.101, 3.221e-11
-0.100, 1.388e-10
-0.099, -6.279e-11
-0.098, -1.143e-10
-0.097, 4.944e-11
-0.096, -5.905e-11
-0.095, -2.306e-10
-0.094, -7.579e-11
-0.093, -5.806e-11
-0.092, -2.957e-10
-0.091, -2.159e-10
-0.090, -1.001e-10
-0.089, -3.167e-10
-0.088, -3.576e-10
-0.087, -1.718e-10
-0.086, -3.051e-10
-0.085, -4.588e-10
-0.084, -3.018e-10
-0.083, -2.938e-10
-0.082, -5.124e-10
-0.081, -4.520e-10
-0.080, -3.188e-10
-0.079, -5.229e-10
-0.078, -5.855e-10
-0.077, -3.897e-10
-0.076, -5.246e-10
-0.075, -6.805e-10
-0.074, -5.040e-10
-0.073, -5.125e-10
-0.072, -7.244e-10
-0.071, -6.462e-10
-0.070, -5.412e-10
-0.069, -7.231e-10
-0.068, -7.892e-10
-0.067, -5.878e-10
-0.066, -7.098e-10
-0.065, -8.787e-10
-0.064, -7.151e-10
-0.063, -7.023e-10
-0.062, -9.258e-10
-0.061, -8.311e-10
-0.060, -7.352e-10
-0.059, -9.143e-10
-0.058, -9.712e-10
-0.057, -7.923e-10
-0.056, -8.950e-10
-0.055, -1.057e-9
-0.054, -9.030e-10
-0.053, -8.781e-10
-0.052, -1.112e-9
-0.051, -1.025e-9
-0.050, -9.118e-10
-0.049, -1.106e-9
-0.048, -1.155e-9
-0.047, -9.545e-10
-0.046, -1.089e-9
-0.045, -1.227e-9
-0.044, -1.080e-9
-0.043, -1.060e-9
-0.042, -1.281e-9
-0.041, -1.204e-9
-0.040, -1.083e-9
-0.039, -1.276e-9
-0.038, -1.341e-9
-0.037, -1.129e-9
-0.036, -1.267e-9
-0.035, -1.408e-9
-0.034, -1.249e-9
-0.033, -1.246e-9
-0.032, -1.461e-9
-0.031, -1.371e-9
-0.030, -1.270e-9
-0.029, -1.450e-9
-0.028, -1.513e-9
-0.027, -1.313e-9
-0.026, -1.445e-9
-0.025, -1.605e-9
-0.024, -1.433e-9
-0.023, -1.413e-9
-0.022, -1.661e-9
-0.021, -1.561e-9
-0.020, -1.453e-9
-0.019, -1.641e-9
-0.018, -1.702e-9
-0.017, -1.512e-9
-0.016, -1.633e-9
-0.015, -1.786e-9
-0.014, -1.638e-9
-0.013, -1.619e-9
-0.012, -1.852e-9
-0.011, -1.767e-9
-0.010, -1.652e-9
-0.009, -1.855e-9
-0.008, -1.913e-9
-0.007, -1.714e-9
-0.006, -1.859e-9
-0.005, -2.000e-9
-0.004, -1.861e-9
-0.003, -1.840e-9
-0.002, -2.075e-9
-0.001, -1.998e-9
-0.000, -1.959e-9
0.001, -2.096e-9
0.002, -2.172e-9
0.003, -1.966e-9
0.004, -2.115e-9
0.005, -2.269e-9
0.006, -2.121e-9
0.007, -2.120e-9
0.008, -2.354e-9
0.009, -2.277e-9
0.010, -2.190e-9
0.011, -2.372e-9
0.012, -2.465e-9
0.013, -2.276e-9
0.014, -2.417e-9
0.015, -2.589e-9
0.016, -2.445e-9
0.017, -2.443e-9
0.018, -2.701e-9
0.019, -2.623e-9
0.020, -2.547e-9
0.021, -2.746e-9
0.022, -2.832e-9
0.023, -2.668e-9
0.024, -2.812e-9
0.025, -2.995e-9
0.026, -2.879e-9
0.027, -2.878e-9
0.028, -3.147e-9
0.029, -3.084e-9
0.030, -3.012e-9
0.031, -3.241e-9
0.032, -3.332e-9
0.033, -3.175e-9
0.034, -3.351e-9
0.035, -3.528e-9
0.036, -3.432e-9
0.037, -3.452e-9
0.038, -3.720e-9
0.039, -3.704e-9
0.040, -3.631e-9
0.041, -3.873e-9
0.042, -4.003e-9
0.043, -3.850e-9
0.044, -4.057e-9
0.045, -4.260e-9
0.046, -4.180e-9
0.047, -4.236e-9
0.048, -4.526e-9
0.049, -4.520e-9
0.050, -4.498e-9
0.051, -4.755e-9
0.052, -4.918e-9
0.053, -4.791e-9
0.054, -5.014e-9
0.055, -5.273e-9
0.056, -5.201e-9
0.057, -5.288e-9
0.058, -5.626e-9
0.059, -5.642e-9
0.060, -5.661e-9
0.061, -5.946e-9
0.062, -6.133e-9
0.063, -6.069e-9
0.064, -6.328e-9
0.065, -6.609e-9
0.066, -6.606e-9
0.067, -6.707e-9
0.068, -7.099e-9
0.069, -7.158e-9
0.070, -7.207e-9
0.071, -7.560e-9
0.072, -7.791e-9
0.073, -7.759e-9
0.074, -8.074e-9
0.075, -8.390e-9
0.076, -8.449e-9
0.077, -8.623e-9
0.078, -9.025e-9
0.079, -9.160e-9
0.080, -9.247e-9
0.081, -9.643e-9
0.082, -9.928e-9
0.083, -9.938e-9
0.084, -1.032e-8
0.085, -1.068e-8
0.086, -1.076e-8
0.087, -1.101e-8
0.088, -1.145e-8
0.089, -1.163e-8
0.090, -1.180e-8
0.091, -1.221e-8
0.092, -1.257e-8
0.093, -1.264e-8
0.094, -1.304e-8
0.095, -1.346e-8
0.096, -1.358e-8
0.097, -1.386e-8
0.098, -1.438e-8
0.099, -1.457e-8
0.100, -1.480e-8
0.101, -1.525e-8
0.102, -1.563e-8
0.103, -1.577e-8
0.104, -1.618e-8
0.105, -1.663e-8
0.106, -1.678e-8
0.107, -1.709e-8
0.108, -1.761e-8
0.109, -1.782e-8
0.110, -1.802e-8
0.111, -1.854e-8
0.112, -1.887e-8
0.113, -1.900e-8
0.114, -1.942e-8
0.115, -1.985e-8
0.116, -2.004e-8
0.117, -2.030e-8
0.118, -2.078e-8
0.119, -2.104e-8
0.120, -2.119e-8
0.121, -2.165e-8
0.122, -2.197e-8
0.123, -2.205e-8
0.124, -2.244e-8
0.125, -2.283e-8
0.126, -2.294e-8
0.127, -2.319e-8
0.128, -2.361e-8
0.129, -2.377e-8
0.130, -2.389e-8
0.131, -2.426e-8
0.132, -2.453e-8
0.133, -2.454e-8
0.134, -2.482e-8
0.135, -2.516e-8
0.136, -2.517e-8
0.137, -2.533e-8
0.138, -2.567e-8
0.139, -2.572e-8
0.140, -2.577e-8
0.141, -2.607e-8
0.142, -2.621e-8
0.143, -2.616e-8
0.144, -2.633e-8
0.145, -2.658e-8
0.146, -2.650e-8
0.147, -2.654e-8
0.148, -2.682e-8
0.149, -2.678e-8
0.150, -2.670e-8
0.151, -2.692e-8
0.152, -2.699e-8
0.153, -2.683e-8
0.154, -2.696e-8
0.155, -2.709e-8
0.156, -2.693e-8
0.157, -2.689e-8
0.158, -2.706e-8
0.159, -2.699e-8
0.160, -2.680e-8
0.161, -2.696e-8
0.162, -2.696e-8
0.163, -2.671e-8
0.164, -2.676e-8
0.165, -2.684e-8
0.166, -2.661e-8
0.167, -2.654e-8
0.168, -2.663e-8
0.169, -2.649e-8
0.170, -2.629e-8
0.171, -2.637e-8
0.172, -2.633e-8
0.173, -2.604e-8
0.174, -2.604e-8
0.175, -2.611e-8
0.176, -2.581e-8
0.177, -2.571e-8
0.178, -2.579e-8
0.179, -2.562e-8
0.180, -2.538e-8
0.181, -2.544e-8
0.182, -2.536e-8
0.183, -2.508e-8
0.184, -2.504e-8
0.185, -2.508e-8
0.186, -2.480e-8
0.187, -2.466e-8
0.188, -2.474e-8
0.189, -2.455e-8
0.190, -2.428e-8
0.191, -2.437e-8
0.192, -2.428e-8
0.193, -2.398e-8
0.194, -2.396e-8
0.195, -2.399e-8
0.196, -2.370e-8
0.197, -2.357e-8
0.198, -2.364e-8
0.199, -2.348e-8
0.200, -2.319e-8
0.201, -2.328e-8
0.202, -2.321e-8
0.203, -2.289e-8
0.204, -2.289e-8
0.205, -2.294e-8
0.206, -2.263e-8
0.207, -2.254e-8
0.208, -2.260e-8
0.209, -2.244e-8
0.210, -2.219e-8
0.211, -2.226e-8
0.212, -2.221e-8
0.213, -2.192e-8
0.214, -2.189e-8
0.215, -2.197e-8
0.216, -2.168e-8
0.217, -2.159e-8
0.218, -2.169e-8
0.219, -2.152e-8
0.220, -2.129e-8
0.221, -2.138e-8
0.222, -2.133e-8
0.223, -2.107e-8
0.224, -2.105e-8
0.225, -2.114e-8
0.226, -2.088e-8
0.227, -2.077e-8
0.228, -2.090e-8
0.229, -2.074e-8
0.230, -2.052e-8
0.231, -2.064e-8
0.232, -2.059e-8
0.233, -2.034e-8
0.234, -2.035e-8
0.235, -2.045e-8
0.236, -2.020e-8
0.237, -2.011e-8
0.238, -2.022e-8
0.239, -2.012e-8
0.240, -1.988e-8
0.241, -2.002e-8
0.242, -2.000e-8
0.243, -1.975e-8
0.244, -1.977e-8
0.245, -1.988e-8
0.246, -1.963e-8
0.247, -1.957e-8
0.248, -1.969e-8
0.249, -1.958e-8
0.250, -1.939e-8
0.251, -1.951e-8
0.252, -1.952e-8
0.253, -1.927e-8
0.254, -1.930e-8
0.255, -1.944e-8
0.256, -1.920e-8
0.257, -1.914e-8
0.258, -1.929e-8
0.259, -1.918e-8
0.260, -1.901e-8
0.261, -1.913e-8
0.262, -1.914e-8
0.263, -1.892e-8
0.264, -1.896e-8
0.265, -1.909e-8
0.266, -1.888e-8
0.267, -1.882e-8
0.268, -1.899e-8
0.269, -1.888e-8
0.270, -1.870e-8
0.271, -1.887e-8
0.272, -1.887e-8
0.273, -1.865e-8
0.274, -1.871e-8
0.275, -1.884e-8
0.276, -1.865e-8
0.277, -1.860e-8
0.278, -1.876e-8
0.279, -1.868e-8
0.280, -1.850e-8
0.281, -1.868e-8
0.282, -1.870e-8
0.283, -1.847e-8
0.284, -1.856e-8
0.285, -1.869e-8
0.286, -1.849e-8
0.287, -1.847e-8
0.288, -1.863e-8
0.289, -1.855e-8
0.290, -1.840e-8
0.291, -1.855e-8
0.292, -1.859e-8
0.293, -1.838e-8
0.294, -1.847e-8
0.295, -1.862e-8
0.296, -1.842e-8
0.297, -1.838e-8
0.298, -1.859e-8
0.299, -1.849e-8
0.300, -1.642e-8
0.299, -1.506e-8
0.298, -1.477e-8
0.297, -1.430e-8
0.296, -1.420e-8
0.295, -1.416e-8
0.294, -1.382e-8
0.293, -1.364e-8
0.292, -1.369e-8
0.291, -1.349e-8
0.290, -1.323e-8
0.289, -1.327e-8
0.288, -1.323e-8
0.287, -1.290e-8
0.286, -1.289e-8
0.285, -1.295e-8
0.284, -1.266e-8
0.283, -1.254e-8
0.282, -1.266e-8
0.281, -1.247e-8
0.280, -1.227e-8
0.279, -1.233e-8
0.278, -1.232e-8
0.277, -1.203e-8
0.276, -1.203e-8
0.275, -1.213e-8
0.274, -1.187e-8
0.273, -1.175e-8
0.272, -1.190e-8
0.271, -1.173e-8
0.270, -1.153e-8
0.269, -1.162e-8
0.268, -1.160e-8
0.267, -1.133e-8
0.266, -1.137e-8
0.265, -1.143e-8
0.264, -1.122e-8
0.263, -1.110e-8
0.262, -1.125e-8
0.261, -1.110e-8
0.260, -1.089e-8
0.259, -1.101e-8
0.258, -1.100e-8
0.257, -1.071e-8
0.256, -1.075e-8
0.255, -1.083e-8
0.254, -1.061e-8
0.253, -1.051e-8
0.252, -1.064e-8
0.251, -1.051e-8
0.250, -1.031e-8
0.249, -1.040e-8
0.248, -1.042e-8
0.247, -1.013e-8
0.246, -1.016e-8
0.245, -1.025e-8
0.244, -1.001e-8
0.243, -9.911e-9
0.242, -1.006e-8
0.241, -9.902e-9
0.240, -9.711e-9
0.239, -9.805e-9
0.238, -9.802e-9
0.237, -9.532e-9
0.236, -9.545e-9
0.235, -9.637e-9
0.234, -9.407e-9
0.233, -9.285e-9
0.232, -9.430e-9
0.231, -9.262e-9
0.230, -9.064e-9
0.229, -9.162e-9
0.228, -9.139e-9
0.227, -8.858e-9
0.226, -8.878e-9
0.225, -8.943e-9
0.224, -8.707e-9
0.223, -8.572e-9
0.222, -8.707e-9
0.221, -8.545e-9
0.220, -8.303e-9
0.219, -8.402e-9
0.218, -8.370e-9
0.217, -8.052e-9
0.216, -8.073e-9
0.215, -8.118e-9
0.214, -7.865e-9
0.213, -7.725e-9
0.212, -7.823e-9
0.211, -7.654e-9
0.210, -7.410e-9
0.209, -7.452e-9
0.208, -7.425e-9
0.207, -7.076e-9
0.206, -7.066e-9
0.205, -7.088e-9
0.204, -6.804e-9
0.203, -6.642e-9
0.202, -6.733e-9
0.201, -6.498e-9
0.200, -6.256e-9
0.199, -6.264e-9
0.198, -6.199e-9
0.197, -5.847e-9
0.196, -5.780e-9
0.195, -5.792e-9
0.194, -5.489e-9
0.193, -5.259e-9
0.192, -5.319e-9
0.191, -5.061e-9
0.190, -4.774e-9
0.189, -4.764e-9
0.188, -4.629e-9
0.187, -4.251e-9
0.186, -4.165e-9
0.185, -4.107e-9
0.184, -3.765e-9
0.183, -3.524e-9
0.182, -3.520e-9
0.181, -3.233e-9
0.180, -2.880e-9
0.179, -2.819e-9
0.178, -2.657e-9
0.177, -2.223e-9
0.176, -2.095e-9
0.175, -1.982e-9
0.174, -1.579e-9
0.173, -1.312e-9
0.172, -1.220e-9
0.171, -9.120e-10
0.170, -5.021e-10
0.169, -3.936e-10
0.168, -1.813e-10
0.167, 3.139e-10
0.166, 5.023e-10
0.165, 6.455e-10
0.164, 1.114e-9
0.163, 1.425e-9
0.162, 1.542e-9
0.161, 1.942e-9
0.160, 2.371e-9
0.159, 2.547e-9
0.158, 2.783e-9
0.157, 3.308e-9
0.156, 3.565e-9
0.155, 3.734e-9
0.154, 4.229e-9
0.153, 4.613e-9
0.152, 4.744e-9
0.151, 5.170e-9
0.150, 5.615e-9
0.149, 5.801e-9
0.148, 6.132e-9
0.147, 6.624e-9
0.146, 6.884e-9
0.145, 7.099e-9
0.144, 7.591e-9
0.143, 7.983e-9
0.142, 8.128e-9
0.141, 8.546e-9
0.140, 9.032e-9
0.139, 9.187e-9
0.138, 9.480e-9
0.137, 9.998e-9
0.136, 1.021e-8
0.135, 1.043e-8
0.134, 1.088e-8
0.133, 1.122e-8
0.132, 1.137e-8
0.131, 1.171e-8
0.130, 1.215e-8
0.129, 1.229e-8
0.128, 1.252e-8
0.127, 1.299e-8
0.126, 1.315e-8
0.125, 1.325e-8
0.124, 1.370e-8
0.123, 1.394e-8
0.122, 1.401e-8
0.121, 1.430e-8
0.120, 1.465e-8
0.119, 1.469e-8
0.118, 1.484e-8
0.117, 1.522e-8
0.116, 1.534e-8
0.115, 1.535e-8
0.114, 1.568e-8
0.113, 1.586e-8
0.112, 1.581e-8
0.111, 1.601e-8
0.110, 1.629e-8
0.109, 1.621e-8
0.108, 1.631e-8
0.107, 1.658e-8
0.106, 1.658e-8
0.105, 1.652e-8
0.104, 1.675e-8
0.103, 1.686e-8
0.102, 1.673e-8
0.101, 1.681e-8
0.100, 1.702e-8
0.099, 1.685e-8
0.098, 1.683e-8
0.097, 1.704e-8
0.096, 1.696e-8
0.095, 1.681e-8
0.094, 1.697e-8
0.093, 1.697e-8
0.092, 1.680e-8
0.091, 1.680e-8
0.090, 1.695e-8
0.089, 1.673e-8
0.088, 1.663e-8
0.087, 1.679e-8
0.086, 1.665e-8
0.085, 1.643e-8
0.084, 1.657e-8
0.083, 1.649e-8
0.082, 1.626e-8
0.081, 1.625e-8
0.080, 1.632e-8
0.079, 1.608e-8
0.078, 1.594e-8
0.077, 1.605e-8
0.076, 1.592e-8
0.075, 1.565e-8
0.074, 1.573e-8
0.073, 1.567e-8
0.072, 1.539e-8
0.071, 1.537e-8
0.070, 1.542e-8
0.069, 1.514e-8
0.068, 1.502e-8
0.067, 1.509e-8
0.066, 1.494e-8
0.065, 1.468e-8
0.064, 1.475e-8
0.063, 1.469e-8
0.062, 1.440e-8
0.061, 1.435e-8
0.060, 1.443e-8
0.059, 1.414e-8
0.058, 1.399e-8
0.057, 1.409e-8
0.056, 1.392e-8
0.055, 1.365e-8
0.054, 1.374e-8
0.053, 1.366e-8
0.052, 1.341e-8
0.051, 1.334e-8
0.050, 1.342e-8
0.049, 1.315e-8
0.048, 1.300e-8
0.047, 1.311e-8
0.046, 1.295e-8
0.045, 1.267e-8
0.044, 1.279e-8
0.043, 1.271e-8
0.042, 1.244e-8
0.041, 1.241e-8
0.040, 1.249e-8
0.039, 1.224e-8
0.038, 1.210e-8
0.037, 1.222e-8
0.036, 1.208e-8
0.035, 1.181e-8
0.034, 1.192e-8
0.033, 1.188e-8
0.032, 1.161e-8
0.031, 1.159e-8
0.030, 1.169e-8
0.029, 1.143e-8
0.028, 1.132e-8
0.027, 1.142e-8
0.026, 1.130e-8
0.025, 1.106e-8
0.024, 1.116e-8
0.023, 1.114e-8
0.022, 1.089e-8
0.021, 1.087e-8
0.020, 1.099e-8
0.019, 1.073e-8
0.018, 1.063e-8
0.017, 1.077e-8
0.016, 1.064e-8
0.015, 1.041e-8
0.014, 1.053e-8
0.013, 1.051e-8
0.012, 1.029e-8
0.011, 1.027e-8
0.010, 1.039e-8
0.009, 1.016e-8
0.008, 1.006e-8
0.007, 1.020e-8
0.006, 1.009e-8
0.005, 9.867e-9
0.004, 1.001e-8
0.003, 9.992e-9
0.002, 9.766e-9
0.001, 9.778e-9
0.000, 9.956e-9
-0.001, 9.689e-9
-0.002, 9.591e-9
-0.003, 9.743e-9
-0.004, 9.652e-9
-0.005, 9.428e-9
-0.006, 9.574e-9
-0.007, 9.575e-9
-0.008, 9.349e-9
-0.009, 9.372e-9
-0.010, 9.503e-9
-0.011, 9.289e-9
-0.012, 9.212e-9
-0.013, 9.368e-9
-0.014, 9.274e-9
-0.015, 9.078e-9
-0.016, 9.213e-9
-0.017, 9.236e-9
-0.018, 9.012e-9
-0.019, 9.037e-9
-0.020, 9.190e-9
-0.021, 8.979e-9
-0.022, 8.898e-9
-0.023, 9.077e-9
-0.024, 8.986e-9
-0.025, 8.794e-9
-0.026, 8.949e-9
-0.027, 8.958e-9
-0.028, 8.761e-9
-0.029, 8.778e-9
-0.030, 8.934e-9
-0.031, 8.744e-9
-0.032, 8.651e-9
-0.033, 8.853e-9
-0.034, 8.762e-9
-0.035, 8.566e-9
-0.036, 8.740e-9
-0.037, 8.760e-9
-0.038, 8.552e-9
-0.039, 8.604e-9
-0.040, 8.733e-9
-0.041, 8.568e-9
-0.042, 8.477e-9
-0.043, 8.682e-9
-0.044, 8.604e-9
-0.045, 8.403e-9
-0.046, 8.574e-9
-0.047, 8.626e-9
-0.048, 8.399e-9
-0.049, 8.462e-9
-0.050, 8.614e-9
-0.051, 8.438e-9
-0.052, 8.373e-9
-0.053, 8.561e-9
-0.054, 8.486e-9
-0.055, 8.320e-9
-0.056, 8.469e-9
-0.057, 8.533e-9
-0.058, 8.316e-9
-0.059, 8.377e-9
-0.060, 8.542e-9
-0.061, 8.361e-9
-0.062, 8.293e-9
-0.063, 8.519e-9
-0.064, 8.426e-9
-0.065, 8.272e-9
-0.066, 8.424e-9
-0.067, 8.488e-9
-0.068, 8.286e-9
-0.069, 8.345e-9
-0.070, 8.504e-9
-0.071, 8.354e-9
-0.072, 8.276e-9
-0.073, 8.500e-9
-0.074, 8.421e-9
-0.075, 8.266e-9
-0.076, 8.442e-9
-0.077, 8.499e-9
-0.078, 8.293e-9
-0.079, 8.375e-9
-0.080, 8.526e-9
-0.081, 8.385e-9
-0.082, 8.309e-9
-0.083, 8.530e-9
-0.084, 8.474e-9
-0.085, 8.307e-9
-0.086, 8.477e-9
-0.087, 8.570e-9
-0.088, 8.345e-9
-0.089, 8.444e-9
-0.090, 8.598e-9
-0.091, 8.453e-9
-0.092, 8.394e-9
-0.093, 8.614e-9
-0.094, 8.553e-9
-0.095, 8.407e-9
-0.096, 8.580e-9
-0.097, 8.665e-9
-0.098, 8.452e-9
-0.099, 8.542e-9
-0.100, 8.724e-9
-0.101, 8.573e-9
-0.102, 8.521e-9
-0.103, 8.758e-9
-0.104, 8.682e-9
-0.105, 8.553e-9
-0.106, 8.718e-9
-0.107, 8.804e-9
-0.108, 8.622e-9
-0.109, 8.700e-9
-0.110, 8.871e-9
-0.111, 8.754e-9
-0.112, 8.674e-9
-0.113, 8.928e-9
-0.114, 8.868e-9
-0.115, 8.729e-9
-0.116, 8.916e-9
-0.117, 8.994e-9
-0.118, 8.804e-9
-0.119, 8.916e-9
-0.120, 9.076e-9
-0.121, 8.955e-9
-0.122, 8.893e-9
-0.123, 9.137e-9
-0.124, 9.095e-9
-0.125, 8.958e-9
-0.126, 9.141e-9
-0.127, 9.238e-9
-0.128, 9.051e-9
-0.129, 9.155e-9
-0.130, 9.331e-9
-0.131, 9.206e-9
-0.132, 9.163e-9
-0.133, 9.404e-9
-0.134, 9.359e-9
-0.135, 9.233e-9
-0.136, 9.419e-9
-0.137, 9.520e-9
-0.138, 9.341e-9
-0.139, 9.437e-9
-0.140, 9.648e-9
-0.141, 9.511e-9
-0.142, 9.467e-9
-0.143, 9.719e-9
-0.144, 9.675e-9
-0.145, 9.560e-9
-0.146, 9.749e-9
-0.147, 9.848e-9
-0.148, 9.696e-9
-0.149, 9.773e-9
-0.150, 9.985e-9
-0.151, 9.875e-9
-0.152, 9.825e-9
-0.153, 1.009e-8
-0.154, 1.006e-8
-0.155, 9.928e-9
-0.156, 1.015e-8
-0.157, 1.023e-8
-0.158, 1.009e-8
-0.159, 1.019e-8
-0.160, 1.039e-8
-0.161, 1.028e-8
-0.162, 1.025e-8
-0.163, 1.050e-8
-0.164, 1.051e-8
-0.165, 1.036e-8
-0.166, 1.059e-8
-0.167, 1.069e-8
-0.168, 1.055e-8
-0.169, 1.065e-8
-0.170, 1.087e-8
-0.171, 1.074e-8
-0.172, 1.075e-8
-0.173, 1.098e-8
-0.174, 1.099e-8
-0.175, 1.087e-8
-0.176, 1.109e-8
-0.177, 1.120e-8
-0.178, 1.107e-8
-0.179, 1.117e-8
-0.180, 1.142e-8
-0.181, 1.128e-8
-0.182, 1.129e-8
-0.183, 1.155e-8
-0.184, 1.156e-8
-0.185, 1.144e-8
-0.186, 1.167e-8
-0.187, 1.178e-8
-0.188, 1.168e-8
-0.189, 1.176e-8
-0.190, 1.202e-8
-0.191, 1.192e-8
-0.192, 1.192e-8
-0.193, 1.218e-8
-0.194, 1.220e-8
-0.195, 1.209e-8
-0.196, 1.234e-8
-0.197, 1.244e-8
-0.198, 1.233e-8
-0.199, 1.246e-8
