May 24, 2023   16:34:06
Cyclic Voltammetry
File: c:/users/mapence2/desktop/data/2023_05_24\expt1\mix_1\cv_1.bin
Data Source:  Experiment
Instrument Model:  CHI760E
Header: CV
Note: 

Init E (V) = 0
High E (V) = 0.7
Low E (V) = 0
Final E (V) = 0
Init P/N = P
Scan Rate (V/s) = 0.005
Segment = 3
Sample Interval (V) = 0.001
Quiet Time (sec) = 2
Sensitivity (A/V) = 1e-9

Results:

Channel 1:
Segment 1:

Segment 2:

Segment 3:

Potential/V, Current/A

0.000, 1.282e-11
0.001, 1.050e-11
0.002, 8.964e-12
0.003, 7.760e-12
0.004, 6.797e-12
0.005, 5.957e-12
0.006, 5.270e-12
0.007, 4.540e-12
0.008, 3.989e-12
0.009, 3.495e-12
0.010, 2.970e-12
0.011, 2.490e-12
0.012, 2.080e-12
0.013, 1.733e-12
0.014, 1.279e-12
0.015, 1.007e-12
0.016, 7.262e-13
0.017, 4.497e-13
0.018, 2.489e-13
0.019, 1.370e-13
0.020, 3.308e-14
0.021, -2.016e-13
0.022, -3.694e-13
0.023, -4.261e-13
0.024, -5.482e-13
0.025, -5.986e-13
0.026, -7.151e-13
0.027, -8.931e-13
0.028, -9.664e-13
0.029, -1.009e-12
0.030, -1.219e-12
0.031, -1.318e-12
0.032, -1.309e-12
0.033, -1.478e-12
0.034, -1.552e-12
0.035, -1.771e-12
0.036, -1.797e-12
0.037, -1.811e-12
0.038, -1.948e-12
0.039, -2.055e-12
0.040, -2.156e-12
0.041, -2.200e-12
0.042, -2.311e-12
0.043, -2.416e-12
0.044, -2.515e-12
0.045, -2.588e-12
0.046, -2.636e-12
0.047, -2.843e-12
0.048, -2.894e-12
0.049, -2.969e-12
0.050, -3.075e-12
0.051, -3.180e-12
0.052, -3.266e-12
0.053, -3.317e-12
0.054, -3.367e-12
0.055, -3.415e-12
0.056, -3.581e-12
0.057, -3.755e-12
0.058, -3.737e-12
0.059, -3.813e-12
0.060, -3.943e-12
0.061, -4.041e-12
0.062, -4.088e-12
0.063, -4.143e-12
0.064, -4.176e-12
0.065, -4.249e-12
0.066, -4.396e-12
0.067, -4.391e-12
0.068, -4.487e-12
0.069, -4.610e-12
0.070, -4.777e-12
0.071, -4.803e-12
0.072, -4.873e-12
0.073, -4.964e-12
0.074, -5.040e-12
0.075, -5.039e-12
0.076, -5.126e-12
0.077, -5.248e-12
0.078, -5.360e-12
0.079, -5.413e-12
0.080, -5.485e-12
0.081, -5.577e-12
0.082, -5.661e-12
0.083, -5.678e-12
0.084, -5.785e-12
0.085, -5.894e-12
0.086, -5.983e-12
0.087, -6.038e-12
0.088, -6.112e-12
0.089, -6.183e-12
0.090, -6.320e-12
0.091, -6.359e-12
0.092, -6.452e-12
0.093, -6.589e-12
0.094, -6.690e-12
0.095, -6.774e-12
0.096, -6.867e-12
0.097, -6.922e-12
0.098, -7.024e-12
0.099, -7.028e-12
0.100, -7.110e-12
0.101, -7.266e-12
0.102, -7.242e-12
0.103, -7.319e-12
0.104, -7.551e-12
0.105, -7.676e-12
0.106, -7.683e-12
0.107, -7.742e-12
0.108, -7.859e-12
0.109, -7.934e-12
0.110, -8.057e-12
0.111, -8.136e-12
0.112, -8.178e-12
0.113, -8.323e-12
0.114, -8.407e-12
0.115, -8.507e-12
0.116, -8.589e-12
0.117, -8.713e-12
0.118, -8.904e-12
0.119, -8.892e-12
0.120, -8.949e-12
0.121, -9.027e-12
0.122, -9.176e-12
0.123, -9.246e-12
0.124, -9.285e-12
0.125, -9.474e-12
0.126, -9.646e-12
0.127, -9.582e-12
0.128, -9.717e-12
0.129, -9.857e-12
0.130, -9.953e-12
0.131, -1.003e-11
0.132, -1.017e-11
0.133, -1.034e-11
0.134, -1.043e-11
0.135, -1.047e-11
0.136, -1.054e-11
0.137, -1.069e-11
0.138, -1.074e-11
0.139, -1.090e-11
0.140, -1.102e-11
0.141, -1.112e-11
0.142, -1.123e-11
0.143, -1.127e-11
0.144, -1.139e-11
0.145, -1.153e-11
0.146, -1.164e-11
0.147, -1.175e-11
0.148, -1.187e-11
0.149, -1.192e-11
0.150, -1.208e-11
0.151, -1.221e-11
0.152, -1.234e-11
0.153, -1.241e-11
0.154, -1.254e-11
0.155, -1.270e-11
0.156, -1.283e-11
0.157, -1.297e-11
0.158, -1.309e-11
0.159, -1.319e-11
0.160, -1.332e-11
0.161, -1.345e-11
0.162, -1.358e-11
0.163, -1.369e-11
0.164, -1.379e-11
0.165, -1.391e-11
0.166, -1.405e-11
0.167, -1.423e-11
0.168, -1.436e-11
0.169, -1.450e-11
0.170, -1.460e-11
0.171, -1.473e-11
0.172, -1.494e-11
0.173, -1.507e-11
0.174, -1.519e-11
0.175, -1.538e-11
0.176, -1.555e-11
0.177, -1.573e-11
0.178, -1.586e-11
0.179, -1.601e-11
0.180, -1.616e-11
0.181, -1.628e-11
0.182, -1.644e-11
0.183, -1.661e-11
0.184, -1.674e-11
0.185, -1.702e-11
0.186, -1.707e-11
0.187, -1.720e-11
0.188, -1.732e-11
0.189, -1.756e-11
0.190, -1.782e-11
0.191, -1.796e-11
0.192, -1.807e-11
0.193, -1.821e-11
0.194, -1.833e-11
0.195, -1.844e-11
0.196, -1.861e-11
0.197, -1.877e-11
0.198, -1.898e-11
0.199, -1.913e-11
0.200, -1.924e-11
0.201, -1.949e-11
0.202, -1.967e-11
0.203, -1.986e-11
0.204, -2.000e-11
0.205, -2.016e-11
0.206, -2.041e-11
0.207, -2.059e-11
0.208, -2.075e-11
0.209, -2.091e-11
0.210, -2.110e-11
0.211, -2.128e-11
0.212, -2.150e-11
0.213, -2.169e-11
0.214, -2.189e-11
0.215, -2.212e-11
0.216, -2.232e-11
0.217, -2.246e-11
0.218, -2.258e-11
0.219, -2.275e-11
0.220, -2.295e-11
0.221, -2.319e-11
0.222, -2.336e-11
0.223, -2.356e-11
0.224, -2.380e-11
0.225, -2.402e-11
0.226, -2.420e-11
0.227, -2.444e-11
0.228, -2.467e-11
0.229, -2.486e-11
0.230, -2.510e-11
0.231, -2.533e-11
0.232, -2.557e-11
0.233, -2.579e-11
0.234, -2.604e-11
0.235, -2.625e-11
0.236, -2.643e-11
0.237, -2.675e-11
0.238, -2.699e-11
0.239, -2.717e-11
0.240, -2.739e-11
0.241, -2.756e-11
0.242, -2.790e-11
0.243, -2.818e-11
0.244, -2.839e-11
0.245, -2.866e-11
0.246, -2.891e-11
0.247, -2.913e-11
0.248, -2.942e-11
0.249, -2.961e-11
0.250, -2.987e-11
0.251, -3.018e-11
0.252, -3.044e-11
0.253, -3.072e-11
0.254, -3.101e-11
0.255, -3.128e-11
0.256, -3.158e-11
0.257, -3.185e-11
0.258, -3.210e-11
0.259, -3.237e-11
0.260, -3.266e-11
0.261, -3.297e-11
0.262, -3.329e-11
0.263, -3.359e-11
0.264, -3.392e-11
0.265, -3.419e-11
0.266, -3.444e-11
0.267, -3.473e-11
0.268, -3.505e-11
0.269, -3.539e-11
0.270, -3.566e-11
0.271, -3.596e-11
0.272, -3.624e-11
0.273, -3.662e-11
0.274, -3.691e-11
0.275, -3.727e-11
0.276, -3.764e-11
0.277, -3.796e-11
0.278, -3.826e-11
0.279, -3.860e-11
0.280, -3.895e-11
0.281, -3.933e-11
0.282, -3.970e-11
0.283, -4.005e-11
0.284, -4.043e-11
0.285, -4.072e-11
0.286, -4.116e-11
0.287, -4.157e-11
0.288, -4.189e-11
0.289, -4.233e-11
0.290, -4.275e-11
0.291, -4.316e-11
0.292, -4.355e-11
0.293, -4.395e-11
0.294, -4.438e-11
0.295, -4.480e-11
0.296, -4.524e-11
0.297, -4.571e-11
0.298, -4.611e-11
0.299, -4.656e-11
0.300, -4.706e-11
0.301, -4.750e-11
0.302, -4.800e-11
0.303, -4.850e-11
0.304, -4.896e-11
0.305, -4.946e-11
0.306, -4.995e-11
0.307, -5.044e-11
0.308, -5.094e-11
0.309, -5.148e-11
0.310, -5.197e-11
0.311, -5.250e-11
0.312, -5.307e-11
0.313, -5.363e-11
0.314, -5.419e-11
0.315, -5.475e-11
0.316, -5.529e-11
0.317, -5.588e-11
0.318, -5.644e-11
0.319, -5.702e-11
0.320, -5.774e-11
0.321, -5.829e-11
0.322, -5.884e-11
0.323, -5.948e-11
0.324, -6.016e-11
0.325, -6.084e-11
0.326, -6.145e-11
0.327, -6.203e-11
0.328, -6.274e-11
0.329, -6.340e-11
0.330, -6.401e-11
0.331, -6.472e-11
0.332, -6.538e-11
0.333, -6.613e-11
0.334, -6.678e-11
0.335, -6.748e-11
0.336, -6.817e-11
0.337, -6.889e-11
0.338, -6.962e-11
0.339, -7.038e-11
0.340, -7.112e-11
0.341, -7.189e-11
0.342, -7.268e-11
0.343, -7.350e-11
0.344, -7.426e-11
0.345, -7.512e-11
0.346, -7.591e-11
0.347, -7.672e-11
0.348, -7.755e-11
0.349, -7.835e-11
0.350, -7.933e-11
0.351, -8.015e-11
0.352, -8.104e-11
0.353, -8.191e-11
0.354, -8.274e-11
0.355, -8.368e-11
0.356, -8.461e-11
0.357, -8.545e-11
0.358, -8.641e-11
0.359, -8.738e-11
0.360, -8.836e-11
0.361, -8.937e-11
0.362, -9.034e-11
0.363, -9.140e-11
0.364, -9.238e-11
0.365, -9.336e-11
0.366, -9.435e-11
0.367, -9.526e-11
0.368, -9.632e-11
0.369, -9.736e-11
0.370, -9.832e-11
0.371, -9.928e-11
0.372, -1.003e-10
0.373, -1.013e-10
0.374, -1.023e-10
0.375, -1.033e-10
0.376, -1.044e-10
0.377, -1.054e-10
0.378, -1.065e-10
0.379, -1.076e-10
0.380, -1.087e-10
0.381, -1.098e-10
0.382, -1.110e-10
0.383, -1.121e-10
0.384, -1.132e-10
0.385, -1.143e-10
0.386, -1.153e-10
0.387, -1.164e-10
0.388, -1.176e-10
0.389, -1.187e-10
0.390, -1.199e-10
0.391, -1.210e-10
0.392, -1.221e-10
0.393, -1.233e-10
0.394, -1.244e-10
0.395, -1.255e-10
0.396, -1.268e-10
0.397, -1.280e-10
0.398, -1.291e-10
0.399, -1.302e-10
0.400, -1.313e-10
0.401, -1.326e-10
0.402, -1.337e-10
0.403, -1.349e-10
0.404, -1.362e-10
0.405, -1.374e-10
0.406, -1.386e-10
0.407, -1.398e-10
0.408, -1.409e-10
0.409, -1.421e-10
0.410, -1.434e-10
0.411, -1.447e-10
0.412, -1.458e-10
0.413, -1.470e-10
0.414, -1.482e-10
0.415, -1.494e-10
0.416, -1.506e-10
0.417, -1.518e-10
0.418, -1.530e-10
0.419, -1.542e-10
0.420, -1.554e-10
0.421, -1.567e-10
0.422, -1.578e-10
0.423, -1.589e-10
0.424, -1.601e-10
0.425, -1.613e-10
0.426, -1.625e-10
0.427, -1.637e-10
0.428, -1.647e-10
0.429, -1.659e-10
0.430, -1.670e-10
0.431, -1.681e-10
0.432, -1.692e-10
0.433, -1.703e-10
0.434, -1.714e-10
0.435, -1.725e-10
0.436, -1.736e-10
0.437, -1.747e-10
0.438, -1.758e-10
0.439, -1.768e-10
0.440, -1.779e-10
0.441, -1.790e-10
0.442, -1.800e-10
0.443, -1.810e-10
0.444, -1.820e-10
0.445, -1.830e-10
0.446, -1.840e-10
0.447, -1.849e-10
0.448, -1.859e-10
0.449, -1.868e-10
0.450, -1.877e-10
0.451, -1.886e-10
0.452, -1.895e-10
0.453, -1.904e-10
0.454, -1.913e-10
0.455, -1.921e-10
0.456, -1.929e-10
0.457, -1.938e-10
0.458, -1.946e-10
0.459, -1.954e-10
0.460, -1.962e-10
0.461, -1.970e-10
0.462, -1.978e-10
0.463, -1.987e-10
0.464, -1.995e-10
0.465, -2.003e-10
0.466, -2.011e-10
0.467, -2.019e-10
0.468, -2.027e-10
0.469, -2.036e-10
0.470, -2.045e-10
0.471, -2.052e-10
0.472, -2.059e-10
0.473, -2.067e-10
0.474, -2.074e-10
0.475, -2.082e-10
0.476, -2.090e-10
0.477, -2.099e-10
0.478, -2.107e-10
0.479, -2.116e-10
0.480, -2.125e-10
0.481, -2.133e-10
0.482, -2.142e-10
0.483, -2.151e-10
0.484, -2.161e-10
0.485, -2.169e-10
0.486, -2.177e-10
0.487, -2.186e-10
0.488, -2.194e-10
0.489, -2.203e-10
0.490, -2.211e-10
0.491, -2.219e-10
0.492, -2.227e-10
0.493, -2.235e-10
0.494, -2.242e-10
0.495, -2.249e-10
0.496, -2.256e-10
0.497, -2.262e-10
0.498, -2.269e-10
0.499, -2.276e-10
0.500, -2.281e-10
0.501, -2.286e-10
0.502, -2.291e-10
0.503, -2.297e-10
0.504, -2.302e-10
0.505, -2.307e-10
0.506, -2.311e-10
0.507, -2.315e-10
0.508, -2.320e-10
0.509, -2.324e-10
0.510, -2.327e-10
0.511, -2.331e-10
0.512, -2.336e-10
0.513, -2.340e-10
0.514, -2.343e-10
0.515, -2.347e-10
0.516, -2.350e-10
0.517, -2.354e-10
0.518, -2.359e-10
0.519, -2.363e-10
0.520, -2.367e-10
0.521, -2.370e-10
0.522, -2.374e-10
0.523, -2.379e-10
0.524, -2.383e-10
0.525, -2.387e-10
0.526, -2.391e-10
0.527, -2.396e-10
0.528, -2.400e-10
0.529, -2.404e-10
0.530, -2.409e-10
0.531, -2.413e-10
0.532, -2.418e-10
0.533, -2.422e-10
0.534, -2.426e-10
0.535, -2.430e-10
0.536, -2.434e-10
0.537, -2.438e-10
0.538, -2.442e-10
0.539, -2.446e-10
0.540, -2.449e-10
0.541, -2.454e-10
0.542, -2.458e-10
0.543, -2.462e-10
0.544, -2.465e-10
0.545, -2.470e-10
0.546, -2.474e-10
0.547, -2.479e-10
0.548, -2.484e-10
0.549, -2.488e-10
0.550, -2.493e-10
0.551, -2.498e-10
0.552, -2.503e-10
0.553, -2.508e-10
0.554, -2.512e-10
0.555, -2.517e-10
0.556, -2.522e-10
0.557, -2.526e-10
0.558, -2.531e-10
0.559, -2.536e-10
0.560, -2.540e-10
0.561, -2.545e-10
0.562, -2.550e-10
0.563, -2.554e-10
0.564, -2.560e-10
0.565, -2.563e-10
0.566, -2.566e-10
0.567, -2.570e-10
0.568, -2.574e-10
0.569, -2.577e-10
0.570, -2.579e-10
0.571, -2.583e-10
0.572, -2.586e-10
0.573, -2.589e-10
0.574, -2.592e-10
0.575, -2.596e-10
0.576, -2.601e-10
0.577, -2.605e-10
0.578, -2.607e-10
0.579, -2.610e-10
0.580, -2.613e-10
0.581, -2.617e-10
0.582, -2.622e-10
0.583, -2.626e-10
0.584, -2.631e-10
0.585, -2.637e-10
0.586, -2.642e-10
0.587, -2.648e-10
0.588, -2.651e-10
0.589, -2.654e-10
0.590, -2.657e-10
0.591, -2.661e-10
0.592, -2.664e-10
0.593, -2.668e-10
0.594, -2.671e-10
0.595, -2.677e-10
0.596, -2.680e-10
0.597, -2.684e-10
0.598, -2.689e-10
0.599, -2.693e-10
0.600, -2.696e-10
0.601, -2.700e-10
0.602, -2.704e-10
0.603, -2.708e-10
0.604, -2.713e-10
0.605, -2.716e-10
0.606, -2.720e-10
0.607, -2.724e-10
0.608, -2.729e-10
0.609, -2.733e-10
0.610, -2.737e-10
0.611, -2.741e-10
0.612, -2.745e-10
0.613, -2.749e-10
0.614, -2.754e-10
0.615, -2.758e-10
0.616, -2.762e-10
0.617, -2.766e-10
0.618, -2.769e-10
0.619, -2.773e-10
0.620, -2.777e-10
0.621, -2.781e-10
0.622, -2.784e-10
0.623, -2.788e-10
0.624, -2.792e-10
0.625, -2.797e-10
0.626, -2.801e-10
0.627, -2.805e-10
0.628, -2.809e-10
0.629, -2.813e-10
0.630, -2.817e-10
0.631, -2.821e-10
0.632, -2.825e-10
0.633, -2.828e-10
0.634, -2.831e-10
0.635, -2.833e-10
0.636, -2.836e-10
0.637, -2.838e-10
0.638, -2.841e-10
0.639, -2.845e-10
0.640, -2.847e-10
0.641, -2.850e-10
0.642, -2.853e-10
0.643, -2.857e-10
0.644, -2.860e-10
0.645, -2.864e-10
0.646, -2.868e-10
0.647, -2.872e-10
0.648, -2.876e-10
0.649, -2.881e-10
0.650, -2.886e-10
0.651, -2.891e-10
0.652, -2.896e-10
0.653, -2.902e-10
0.654, -2.907e-10
0.655, -2.912e-10
0.656, -2.917e-10
0.657, -2.923e-10
0.658, -2.929e-10
0.659, -2.934e-10
0.660, -2.939e-10
0.661, -2.945e-10
0.662, -2.951e-10
0.663, -2.956e-10
0.664, -2.963e-10
0.665, -2.968e-10
0.666, -2.975e-10
0.667, -2.980e-10
0.668, -2.987e-10
0.669, -2.993e-10
0.670, -2.998e-10
0.671, -3.004e-10
0.672, -3.009e-10
0.673, -3.014e-10
0.674, -3.018e-10
0.675, -3.023e-10
0.676, -3.028e-10
0.677, -3.032e-10
0.678, -3.037e-10
0.679, -3.043e-10
0.680, -3.048e-10
0.681, -3.054e-10
0.682, -3.059e-10
0.683, -3.065e-10
0.684, -3.070e-10
0.685, -3.077e-10
0.686, -3.084e-10
0.687, -3.092e-10
0.688, -3.100e-10
0.689, -3.108e-10
0.690, -3.117e-10
0.691, -3.125e-10
0.692, -3.134e-10
0.693, -3.142e-10
0.694, -3.151e-10
0.695, -3.160e-10
0.696, -3.169e-10
0.697, -3.178e-10
0.698, -3.188e-10
0.699, -3.198e-10
0.700, -3.203e-10
0.699, -3.185e-10
0.698, -3.167e-10
0.697, -3.152e-10
0.696, -3.139e-10
0.695, -3.127e-10
0.694, -3.115e-10
0.693, -3.104e-10
0.692, -3.092e-10
0.691, -3.081e-10
0.690, -3.071e-10
0.689, -3.060e-10
0.688, -3.048e-10
0.687, -3.038e-10
0.686, -3.028e-10
0.685, -3.019e-10
0.684, -3.011e-10
0.683, -2.998e-10
0.682, -2.988e-10
0.681, -2.977e-10
0.680, -2.967e-10
0.679, -2.957e-10
0.678, -2.946e-10
0.677, -2.935e-10
0.676, -2.924e-10
0.675, -2.913e-10
0.674, -2.905e-10
0.673, -2.895e-10
0.672, -2.885e-10
0.671, -2.875e-10
0.670, -2.866e-10
0.669, -2.857e-10
0.668, -2.848e-10
0.667, -2.840e-10
0.666, -2.831e-10
0.665, -2.823e-10
0.664, -2.815e-10
0.663, -2.806e-10
0.662, -2.797e-10
0.661, -2.789e-10
0.660, -2.781e-10
0.659, -2.773e-10
0.658, -2.765e-10
0.657, -2.757e-10
0.656, -2.749e-10
0.655, -2.742e-10
0.654, -2.736e-10
0.653, -2.729e-10
0.652, -2.722e-10
0.651, -2.716e-10
0.650, -2.711e-10
0.649, -2.705e-10
0.648, -2.699e-10
0.647, -2.692e-10
0.646, -2.686e-10
0.645, -2.679e-10
0.644, -2.672e-10
0.643, -2.664e-10
0.642, -2.657e-10
0.641, -2.651e-10
0.640, -2.645e-10
0.639, -2.637e-10
0.638, -2.630e-10
0.637, -2.624e-10
0.636, -2.616e-10
0.635, -2.609e-10
0.634, -2.602e-10
0.633, -2.595e-10
0.632, -2.588e-10
0.631, -2.581e-10
0.630, -2.573e-10
0.629, -2.564e-10
0.628, -2.556e-10
0.627, -2.548e-10
0.626, -2.538e-10
0.625, -2.529e-10
0.624, -2.519e-10
0.623, -2.510e-10
0.622, -2.501e-10
0.621, -2.492e-10
0.620, -2.484e-10
0.619, -2.475e-10
0.618, -2.467e-10
0.617, -2.460e-10
0.616, -2.453e-10
0.615, -2.446e-10
0.614, -2.439e-10
0.613, -2.432e-10
0.612, -2.425e-10
0.611, -2.418e-10
0.610, -2.411e-10
0.609, -2.403e-10
0.608, -2.396e-10
0.607, -2.391e-10
0.606, -2.383e-10
0.605, -2.376e-10
0.604, -2.369e-10
0.603, -2.360e-10
0.602, -2.353e-10
0.601, -2.344e-10
0.600, -2.335e-10
0.599, -2.327e-10
0.598, -2.320e-10
0.597, -2.312e-10
0.596, -2.304e-10
0.595, -2.297e-10
0.594, -2.290e-10
0.593, -2.284e-10
0.592, -2.277e-10
0.591, -2.273e-10
0.590, -2.267e-10
0.589, -2.260e-10
0.588, -2.253e-10
0.587, -2.245e-10
0.586, -2.240e-10
0.585, -2.232e-10
0.584, -2.222e-10
0.583, -2.213e-10
0.582, -2.204e-10
0.581, -2.195e-10
0.580, -2.186e-10
0.579, -2.177e-10
0.578, -2.168e-10
0.577, -2.160e-10
0.576, -2.150e-10
0.575, -2.141e-10
0.574, -2.132e-10
0.573, -2.124e-10
0.572, -2.115e-10
0.571, -2.106e-10
0.570, -2.097e-10
0.569, -2.088e-10
0.568, -2.079e-10
0.567, -2.069e-10
0.566, -2.060e-10
0.565, -2.050e-10
0.564, -2.041e-10
0.563, -2.030e-10
0.562, -2.020e-10
0.561, -2.011e-10
0.560, -2.001e-10
0.559, -1.991e-10
0.558, -1.982e-10
0.557, -1.972e-10
0.556, -1.962e-10
0.555, -1.953e-10
0.554, -1.944e-10
0.553, -1.935e-10
0.552, -1.926e-10
0.551, -1.917e-10
0.550, -1.908e-10
0.549, -1.898e-10
0.548, -1.889e-10
0.547, -1.881e-10
0.546, -1.872e-10
0.545, -1.863e-10
0.544, -1.854e-10
0.543, -1.845e-10
0.542, -1.837e-10
0.541, -1.827e-10
0.540, -1.819e-10
0.539, -1.810e-10
0.538, -1.801e-10
0.537, -1.792e-10
0.536, -1.783e-10
0.535, -1.774e-10
0.534, -1.765e-10
0.533, -1.757e-10
0.532, -1.747e-10
0.531, -1.739e-10
0.530, -1.729e-10
0.529, -1.720e-10
0.528, -1.711e-10
0.527, -1.703e-10
0.526, -1.694e-10
0.525, -1.685e-10
0.524, -1.677e-10
0.523, -1.668e-10
0.522, -1.658e-10
0.521, -1.649e-10
0.520, -1.641e-10
0.519, -1.632e-10
0.518, -1.623e-10
0.517, -1.614e-10
0.516, -1.605e-10
0.515, -1.597e-10
0.514, -1.588e-10
0.513, -1.579e-10
0.512, -1.570e-10
0.511, -1.561e-10
0.510, -1.553e-10
0.509, -1.544e-10
0.508, -1.535e-10
0.507, -1.526e-10
0.506, -1.518e-10
0.505, -1.510e-10
0.504, -1.500e-10
0.503, -1.492e-10
0.502, -1.483e-10
0.501, -1.475e-10
0.500, -1.467e-10
0.499, -1.458e-10
0.498, -1.450e-10
0.497, -1.441e-10
0.496, -1.433e-10
0.495, -1.424e-10
0.494, -1.416e-10
0.493, -1.408e-10
0.492, -1.399e-10
0.491, -1.391e-10
0.490, -1.383e-10
0.489, -1.374e-10
0.488, -1.366e-10
0.487, -1.357e-10
0.486, -1.349e-10
0.485, -1.340e-10
0.484, -1.332e-10
0.483, -1.324e-10
0.482, -1.316e-10
0.481, -1.308e-10
0.480, -1.299e-10
0.479, -1.291e-10
0.478, -1.283e-10
0.477, -1.276e-10
0.476, -1.268e-10
0.475, -1.261e-10
0.474, -1.252e-10
0.473, -1.244e-10
0.472, -1.236e-10
0.471, -1.229e-10
0.470, -1.222e-10
0.469, -1.213e-10
0.468, -1.205e-10
0.467, -1.198e-10
0.466, -1.190e-10
0.465, -1.183e-10
0.464, -1.175e-10
0.463, -1.168e-10
0.462, -1.161e-10
0.461, -1.153e-10
0.460, -1.146e-10
0.459, -1.138e-10
0.458, -1.131e-10
0.457, -1.123e-10
0.456, -1.116e-10
0.455, -1.109e-10
0.454, -1.102e-10
0.453, -1.094e-10
0.452, -1.086e-10
0.451, -1.080e-10
0.450, -1.072e-10
0.449, -1.064e-10
0.448, -1.057e-10
0.447, -1.050e-10
0.446, -1.042e-10
0.445, -1.035e-10
0.444, -1.029e-10
0.443, -1.022e-10
0.442, -1.015e-10
0.441, -1.008e-10
0.440, -1.001e-10
0.439, -9.930e-11
0.438, -9.867e-11
0.437, -9.804e-11
0.436, -9.733e-11
0.435, -9.665e-11
0.434, -9.599e-11
0.433, -9.534e-11
0.432, -9.470e-11
0.431, -9.403e-11
0.430, -9.342e-11
0.429, -9.282e-11
0.428, -9.223e-11
0.427, -9.154e-11
0.426, -9.090e-11
0.425, -9.029e-11
0.424, -8.968e-11
0.423, -8.906e-11
0.422, -8.849e-11
0.421, -8.785e-11
0.420, -8.718e-11
0.419, -8.657e-11
0.418, -8.597e-11
0.417, -8.543e-11
0.416, -8.488e-11
0.415, -8.432e-11
0.414, -8.371e-11
0.413, -8.311e-11
0.412, -8.252e-11
0.411, -8.195e-11
0.410, -8.135e-11
0.409, -8.072e-11
0.408, -8.015e-11
0.407, -7.959e-11
0.406, -7.904e-11
0.405, -7.847e-11
0.404, -7.794e-11
0.403, -7.737e-11
0.402, -7.683e-11
0.401, -7.631e-11
0.400, -7.576e-11
0.399, -7.521e-11
0.398, -7.468e-11
0.397, -7.420e-11
0.396, -7.361e-11
0.395, -7.317e-11
0.394, -7.263e-11
0.393, -7.202e-11
0.392, -7.153e-11
0.391, -7.099e-11
0.390, -7.055e-11
0.389, -7.003e-11
0.388, -6.952e-11
0.387, -6.895e-11
0.386, -6.849e-11
0.385, -6.796e-11
0.384, -6.747e-11
0.383, -6.699e-11
0.382, -6.651e-11
0.381, -6.605e-11
0.380, -6.553e-11
0.379, -6.502e-11
0.378, -6.457e-11
0.377, -6.408e-11
0.376, -6.357e-11
0.375, -6.304e-11
0.374, -6.253e-11
0.373, -6.203e-11
0.372, -6.157e-11
0.371, -6.108e-11
0.370, -6.067e-11
0.369, -6.031e-11
0.368, -5.979e-11
0.367, -5.922e-11
0.366, -5.872e-11
0.365, -5.826e-11
0.364, -5.774e-11
0.363, -5.721e-11
0.362, -5.682e-11
0.361, -5.633e-11
0.360, -5.580e-11
0.359, -5.531e-11
0.358, -5.489e-11
0.357, -5.433e-11
0.356, -5.383e-11
0.355, -5.347e-11
0.354, -5.311e-11
0.353, -5.258e-11
0.352, -5.205e-11
0.351, -5.171e-11
0.350, -5.125e-11
0.349, -5.078e-11
0.348, -5.034e-11
0.347, -4.992e-11
0.346, -4.944e-11
0.345, -4.901e-11
0.344, -4.857e-11
0.343, -4.814e-11
0.342, -4.768e-11
0.341, -4.723e-11
0.340, -4.681e-11
0.339, -4.643e-11
0.338, -4.596e-11
0.337, -4.553e-11
0.336, -4.510e-11
0.335, -4.473e-11
0.334, -4.432e-11
0.333, -4.385e-11
0.332, -4.354e-11
0.331, -4.316e-11
0.330, -4.267e-11
0.329, -4.222e-11
0.328, -4.189e-11
0.327, -4.147e-11
0.326, -4.107e-11
0.325, -4.067e-11
0.324, -4.016e-11
0.323, -3.976e-11
0.322, -3.937e-11
0.321, -3.892e-11
0.320, -3.861e-11
0.319, -3.815e-11
0.318, -3.776e-11
0.317, -3.730e-11
0.316, -3.693e-11
0.315, -3.653e-11
0.314, -3.617e-11
0.313, -3.578e-11
0.312, -3.540e-11
0.311, -3.504e-11
0.310, -3.474e-11
0.309, -3.441e-11
0.308, -3.402e-11
0.307, -3.376e-11
0.306, -3.344e-11
0.305, -3.303e-11
0.304, -3.261e-11
0.303, -3.226e-11
0.302, -3.203e-11
0.301, -3.168e-11
0.300, -3.139e-11
0.299, -3.111e-11
0.298, -3.076e-11
0.297, -3.041e-11
0.296, -3.011e-11
0.295, -2.980e-11
0.294, -2.951e-11
0.293, -2.921e-11
0.292, -2.885e-11
0.291, -2.864e-11
0.290, -2.839e-11
0.289, -2.809e-11
0.288, -2.782e-11
0.287, -2.757e-11
0.286, -2.726e-11
0.285, -2.702e-11
0.284, -2.673e-11
0.283, -2.645e-11
0.282, -2.620e-11
0.281, -2.595e-11
0.280, -2.569e-11
0.279, -2.542e-11
0.278, -2.511e-11
0.277, -2.479e-11
0.276, -2.450e-11
0.275, -2.432e-11
0.274, -2.407e-11
0.273, -2.380e-11
0.272, -2.358e-11
0.271, -2.335e-11
0.270, -2.304e-11
0.269, -2.278e-11
0.268, -2.255e-11
0.267, -2.225e-11
0.266, -2.201e-11
0.265, -2.175e-11
0.264, -2.153e-11
0.263, -2.130e-11
0.262, -2.103e-11
0.261, -2.074e-11
0.260, -2.049e-11
0.259, -2.030e-11
0.258, -2.008e-11
0.257, -1.979e-11
0.256, -1.954e-11
0.255, -1.932e-11
0.254, -1.904e-11
0.253, -1.884e-11
0.252, -1.864e-11
0.251, -1.839e-11
0.250, -1.816e-11
0.249, -1.794e-11
0.248, -1.772e-11
0.247, -1.749e-11
0.246, -1.730e-11
0.245, -1.708e-11
0.244, -1.690e-11
0.243, -1.666e-11
0.242, -1.641e-11
0.241, -1.618e-11
0.240, -1.600e-11
0.239, -1.576e-11
0.238, -1.551e-11
0.237, -1.535e-11
0.236, -1.519e-11
0.235, -1.495e-11
0.234, -1.473e-11
0.233, -1.456e-11
0.232, -1.433e-11
0.231, -1.417e-11
0.230, -1.398e-11
0.229, -1.376e-11
0.228, -1.358e-11
0.227, -1.338e-11
0.226, -1.322e-11
0.225, -1.300e-11
0.224, -1.279e-11
0.223, -1.263e-11
0.222, -1.240e-11
0.221, -1.227e-11
0.220, -1.201e-11
0.219, -1.185e-11
0.218, -1.168e-11
0.217, -1.152e-11
0.216, -1.135e-11
0.215, -1.118e-11
0.214, -1.106e-11
0.213, -1.082e-11
0.212, -1.063e-11
0.211, -1.043e-11
0.210, -1.033e-11
0.209, -1.015e-11
0.208, -9.900e-12
0.207, -9.730e-12
0.206, -9.611e-12
0.205, -9.460e-12
0.204, -9.239e-12
0.203, -9.060e-12
0.202, -8.916e-12
0.201, -8.781e-12
0.200, -8.634e-12
0.199, -8.415e-12
0.198, -8.268e-12
0.197, -8.113e-12
0.196, -7.908e-12
0.195, -7.835e-12
0.194, -7.683e-12
0.193, -7.537e-12
0.192, -7.363e-12
0.191, -7.186e-12
0.190, -7.080e-12
0.189, -6.926e-12
0.188, -6.844e-12
0.187, -6.659e-12
0.186, -6.485e-12
0.185, -6.330e-12
0.184, -6.216e-12
0.183, -6.076e-12
0.182, -5.948e-12
0.181, -5.833e-12
0.180, -5.671e-12
0.179, -5.591e-12
0.178, -5.482e-12
0.177, -5.330e-12
0.176, -5.189e-12
0.175, -4.984e-12
0.174, -4.918e-12
0.173, -4.789e-12
0.172, -4.615e-12
0.171, -4.444e-12
0.170, -4.393e-12
0.169, -4.309e-12
0.168, -4.162e-12
0.167, -4.015e-12
0.166, -3.884e-12
0.165, -3.740e-12
0.164, -3.671e-12
0.163, -3.595e-12
0.162, -3.454e-12
0.161, -3.298e-12
0.160, -3.211e-12
0.159, -3.082e-12
0.158, -2.932e-12
0.157, -2.858e-12
0.156, -2.753e-12
0.155, -2.666e-12
0.154, -2.531e-12
0.153, -2.427e-12
0.152, -2.304e-12
0.151, -2.197e-12
0.150, -2.124e-12
0.149, -1.968e-12
0.148, -1.867e-12
0.147, -1.779e-12
0.146, -1.660e-12
0.145, -1.603e-12
0.144, -1.515e-12
0.143, -1.399e-12
0.142, -1.284e-12
0.141, -1.185e-12
0.140, -1.158e-12
0.139, -1.041e-12
0.138, -9.435e-13
0.137, -8.585e-13
0.136, -7.750e-13
0.135, -6.616e-13
0.134, -5.198e-13
0.133, -4.655e-13
0.132, -4.237e-13
0.131, -3.150e-13
0.130, -2.473e-13
0.129, -1.252e-13
0.128, 4.725e-14
0.127, 1.142e-13
0.126, 1.599e-13
0.125, 2.205e-13
0.124, 3.513e-13
0.123, 4.347e-13
0.122, 5.253e-13
0.121, 5.702e-13
0.120, 6.781e-13
0.119, 7.309e-13
0.118, 8.096e-13
0.117, 8.837e-13
0.116, 9.656e-13
0.115, 1.032e-12
0.114, 1.166e-12
0.113, 1.243e-12
0.112, 1.303e-12
0.111, 1.370e-12
0.110, 1.439e-12
0.109, 1.496e-12
0.108, 1.599e-12
0.107, 1.733e-12
0.106, 1.756e-12
0.105, 1.785e-12
0.104, 1.877e-12
0.103, 1.983e-12
0.102, 2.054e-12
0.101, 2.143e-12
0.100, 2.256e-12
0.099, 2.319e-12
0.098, 2.375e-12
0.097, 2.488e-12
0.096, 2.527e-12
0.095, 2.569e-12
0.094, 2.624e-12
0.093, 2.716e-12
0.092, 2.764e-12
0.091, 2.814e-12
0.090, 2.846e-12
0.089, 2.938e-12
0.088, 2.995e-12
0.087, 3.085e-12
0.086, 3.240e-12
0.085, 3.276e-12
0.084, 3.274e-12
0.083, 3.320e-12
0.082, 3.416e-12
0.081, 3.536e-12
0.080, 3.594e-12
0.079, 3.660e-12
0.078, 3.719e-12
0.077, 3.776e-12
0.076, 3.832e-12
0.075, 3.928e-12
0.074, 3.979e-12
0.073, 4.068e-12
0.072, 4.135e-12
0.071, 4.195e-12
0.070, 4.242e-12
0.069, 4.286e-12
0.068, 4.380e-12
0.067, 4.462e-12
0.066, 4.570e-12
0.065, 4.586e-12
0.064, 4.627e-12
0.063, 4.756e-12
0.062, 4.723e-12
0.061, 4.736e-12
0.060, 4.875e-12
0.059, 4.950e-12
0.058, 5.016e-12
0.057, 5.032e-12
0.056, 5.111e-12
0.055, 5.206e-12
0.054, 5.297e-12
0.053, 5.319e-12
0.052, 5.329e-12
0.051, 5.428e-12
0.050, 5.482e-12
0.049, 5.544e-12
0.048, 5.526e-12
0.047, 5.619e-12
0.046, 5.763e-12
0.045, 5.790e-12
0.044, 5.938e-12
0.043, 5.984e-12
0.042, 6.070e-12
0.041, 6.149e-12
0.040, 6.121e-12
0.039, 6.246e-12
0.038, 6.240e-12
0.037, 6.330e-12
0.036, 6.465e-12
0.035, 6.518e-12
0.034, 6.564e-12
0.033, 6.583e-12
0.032, 6.575e-12
0.031, 6.671e-12
0.030, 6.728e-12
0.029, 6.815e-12
0.028, 6.896e-12
0.027, 6.970e-12
0.026, 7.007e-12
0.025, 7.010e-12
0.024, 7.058e-12
0.023, 7.120e-12
0.022, 7.184e-12
0.021, 7.211e-12
0.020, 7.214e-12
0.019, 7.284e-12
0.018, 7.428e-12
0.017, 7.443e-12
0.016, 7.580e-12
0.015, 7.610e-12
0.014, 7.608e-12
0.013, 7.707e-12
0.012, 7.748e-12
0.011, 7.794e-12
0.010, 7.865e-12
0.009, 7.840e-12
0.008, 7.910e-12
0.007, 8.008e-12
0.006, 8.096e-12
0.005, 8.174e-12
0.004, 8.195e-12
0.003, 8.257e-12
0.002, 8.345e-12
0.001, 8.431e-12
