May 24, 2023   18:04:10
Cyclic Voltammetry
File: c:/users/mapence2/desktop/data/2023_05_24\expt1\mix_5\cv_1.bin
Data Source:  Experiment
Instrument Model:  CHI760E
Header: CV
Note: 

Init E (V) = 0
High E (V) = 0.7
Low E (V) = 0
Final E (V) = 0
Init P/N = P
Scan Rate (V/s) = 0.005
Segment = 3
Sample Interval (V) = 0.001
Quiet Time (sec) = 2
Sensitivity (A/V) = 1e-9

Results:

Channel 1:
Segment 1:

Segment 2:

Segment 3:

Potential/V, Current/A

0.000, 8.842e-12
0.001, 6.979e-12
0.002, 5.796e-12
0.003, 5.104e-12
0.004, 4.404e-12
0.005, 3.805e-12
0.006, 3.409e-12
0.007, 3.020e-12
0.008, 2.591e-12
0.009, 2.256e-12
0.010, 2.021e-12
0.011, 1.537e-12
0.012, 1.487e-12
0.013, 1.543e-12
0.014, 1.325e-12
0.015, 7.577e-13
0.016, 4.938e-13
0.017, 4.269e-13
0.018, 1.221e-13
0.019, 1.166e-13
0.020, 2.260e-13
0.021, 8.663e-14
0.022, -1.481e-13
0.023, -1.536e-13
0.024, -9.530e-14
0.025, -1.284e-13
0.026, -3.268e-13
0.027, -4.481e-13
0.028, -4.757e-13
0.029, -5.340e-13
0.030, -6.277e-13
0.031, -7.332e-13
0.032, -8.317e-13
0.033, -8.986e-13
0.034, -9.845e-13
0.035, -1.014e-12
0.036, -1.105e-12
0.037, -1.148e-12
0.038, -1.248e-12
0.039, -1.317e-12
0.040, -1.448e-12
0.041, -1.540e-12
0.042, -1.604e-12
0.043, -1.774e-12
0.044, -1.828e-12
0.045, -1.695e-12
0.046, -1.824e-12
0.047, -2.030e-12
0.048, -2.137e-12
0.049, -2.156e-12
0.050, -2.045e-12
0.051, -2.350e-12
0.052, -2.410e-12
0.053, -2.410e-12
0.054, -2.435e-12
0.055, -2.525e-12
0.056, -2.567e-12
0.057, -2.695e-12
0.058, -2.826e-12
0.059, -2.926e-12
0.060, -2.920e-12
0.061, -2.920e-12
0.062, -2.976e-12
0.063, -3.021e-12
0.064, -3.054e-12
0.065, -3.105e-12
0.066, -3.314e-12
0.067, -3.401e-12
0.068, -3.464e-12
0.069, -3.571e-12
0.070, -3.627e-12
0.071, -3.629e-12
0.072, -3.586e-12
0.073, -3.737e-12
0.074, -3.821e-12
0.075, -3.888e-12
0.076, -3.991e-12
0.077, -4.105e-12
0.078, -4.160e-12
0.079, -4.244e-12
0.080, -4.287e-12
0.081, -4.341e-12
0.082, -4.440e-12
0.083, -4.477e-12
0.084, -4.514e-12
0.085, -4.532e-12
0.086, -4.618e-12
0.087, -4.735e-12
0.088, -4.848e-12
0.089, -4.943e-12
0.090, -5.032e-12
0.091, -5.322e-12
0.092, -5.284e-12
0.093, -5.238e-12
0.094, -5.323e-12
0.095, -5.400e-12
0.096, -5.442e-12
0.097, -5.720e-12
0.098, -5.872e-12
0.099, -5.712e-12
0.100, -5.718e-12
0.101, -6.091e-12
0.102, -6.235e-12
0.103, -6.137e-12
0.104, -6.302e-12
0.105, -6.260e-12
0.106, -6.341e-12
0.107, -6.371e-12
0.108, -6.425e-12
0.109, -6.461e-12
0.110, -6.530e-12
0.111, -6.553e-12
0.112, -6.720e-12
0.113, -6.769e-12
0.114, -6.872e-12
0.115, -7.019e-12
0.116, -7.013e-12
0.117, -7.087e-12
0.118, -7.162e-12
0.119, -7.320e-12
0.120, -7.510e-12
0.121, -7.660e-12
0.122, -7.594e-12
0.123, -7.684e-12
0.124, -7.711e-12
0.125, -7.850e-12
0.126, -8.028e-12
0.127, -8.054e-12
0.128, -8.029e-12
0.129, -8.187e-12
0.130, -8.308e-12
0.131, -8.412e-12
0.132, -8.420e-12
0.133, -8.530e-12
0.134, -8.656e-12
0.135, -9.487e-12
0.136, -8.986e-12
0.137, -8.916e-12
0.138, -9.050e-12
0.139, -9.149e-12
0.140, -9.205e-12
0.141, -9.281e-12
0.142, -9.404e-12
0.143, -9.513e-12
0.144, -9.529e-12
0.145, -9.696e-12
0.146, -9.779e-12
0.147, -9.881e-12
0.148, -9.987e-12
0.149, -1.005e-11
0.150, -1.019e-11
0.151, -1.029e-11
0.152, -1.039e-11
0.153, -1.053e-11
0.154, -1.063e-11
0.155, -1.075e-11
0.156, -1.083e-11
0.157, -1.094e-11
0.158, -1.107e-11
0.159, -1.125e-11
0.160, -1.135e-11
0.161, -1.138e-11
0.162, -1.146e-11
0.163, -1.162e-11
0.164, -1.173e-11
0.165, -1.190e-11
0.166, -1.202e-11
0.167, -1.212e-11
0.168, -1.222e-11
0.169, -1.235e-11
0.170, -1.249e-11
0.171, -1.264e-11
0.172, -1.274e-11
0.173, -1.283e-11
0.174, -1.295e-11
0.175, -1.305e-11
0.176, -1.311e-11
0.177, -1.326e-11
0.178, -1.340e-11
0.179, -1.347e-11
0.180, -1.365e-11
0.181, -1.379e-11
0.182, -1.389e-11
0.183, -1.397e-11
0.184, -1.417e-11
0.185, -1.427e-11
0.186, -1.446e-11
0.187, -1.456e-11
0.188, -1.468e-11
0.189, -1.479e-11
0.190, -1.499e-11
0.191, -1.507e-11
0.192, -1.518e-11
0.193, -1.538e-11
0.194, -1.545e-11
0.195, -1.563e-11
0.196, -1.579e-11
0.197, -1.590e-11
0.198, -1.602e-11
0.199, -1.610e-11
0.200, -1.631e-11
0.201, -1.646e-11
0.202, -1.659e-11
0.203, -1.672e-11
0.204, -1.686e-11
0.205, -1.702e-11
0.206, -1.714e-11
0.207, -1.734e-11
0.208, -1.752e-11
0.209, -1.768e-11
0.210, -1.786e-11
0.211, -1.798e-11
0.212, -1.813e-11
0.213, -1.833e-11
0.214, -1.849e-11
0.215, -1.860e-11
0.216, -1.867e-11
0.217, -1.883e-11
0.218, -1.896e-11
0.219, -1.910e-11
0.220, -1.919e-11
0.221, -1.946e-11
0.222, -1.963e-11
0.223, -1.968e-11
0.224, -1.976e-11
0.225, -1.992e-11
0.226, -2.002e-11
0.227, -2.022e-11
0.228, -2.054e-11
0.229, -2.065e-11
0.230, -2.080e-11
0.231, -2.099e-11
0.232, -2.112e-11
0.233, -2.130e-11
0.234, -2.143e-11
0.235, -2.163e-11
0.236, -2.183e-11
0.237, -2.198e-11
0.238, -2.211e-11
0.239, -2.231e-11
0.240, -2.251e-11
0.241, -2.263e-11
0.242, -2.277e-11
0.243, -2.291e-11
0.244, -2.309e-11
0.245, -2.330e-11
0.246, -2.347e-11
0.247, -2.369e-11
0.248, -2.382e-11
0.249, -2.404e-11
0.250, -2.425e-11
0.251, -2.447e-11
0.252, -2.467e-11
0.253, -2.490e-11
0.254, -2.504e-11
0.255, -2.523e-11
0.256, -2.547e-11
0.257, -2.569e-11
0.258, -2.593e-11
0.259, -2.612e-11
0.260, -2.635e-11
0.261, -2.658e-11
0.262, -2.692e-11
0.263, -2.721e-11
0.264, -2.749e-11
0.265, -2.767e-11
0.266, -2.786e-11
0.267, -2.805e-11
0.268, -2.838e-11
0.269, -2.858e-11
0.270, -2.880e-11
0.271, -2.901e-11
0.272, -2.924e-11
0.273, -2.954e-11
0.274, -2.960e-11
0.275, -2.995e-11
0.276, -3.028e-11
0.277, -3.051e-11
0.278, -3.079e-11
0.279, -3.099e-11
0.280, -3.133e-11
0.281, -3.190e-11
0.282, -3.213e-11
0.283, -3.229e-11
0.284, -3.251e-11
0.285, -3.281e-11
0.286, -3.316e-11
0.287, -3.344e-11
0.288, -3.374e-11
0.289, -3.414e-11
0.290, -3.446e-11
0.291, -3.482e-11
0.292, -3.518e-11
0.293, -3.549e-11
0.294, -3.585e-11
0.295, -3.641e-11
0.296, -3.693e-11
0.297, -3.732e-11
0.298, -3.752e-11
0.299, -3.790e-11
0.300, -3.841e-11
0.301, -3.889e-11
0.302, -3.921e-11
0.303, -3.961e-11
0.304, -3.996e-11
0.305, -4.034e-11
0.306, -4.082e-11
0.307, -4.126e-11
0.308, -4.173e-11
0.309, -4.225e-11
0.310, -4.283e-11
0.311, -4.327e-11
0.312, -4.413e-11
0.313, -4.453e-11
0.314, -4.481e-11
0.315, -4.535e-11
0.316, -4.576e-11
0.317, -4.615e-11
0.318, -4.681e-11
0.319, -4.736e-11
0.320, -4.789e-11
0.321, -4.846e-11
0.322, -4.905e-11
0.323, -4.953e-11
0.324, -5.022e-11
0.325, -5.086e-11
0.326, -5.152e-11
0.327, -5.226e-11
0.328, -5.287e-11
0.329, -5.347e-11
0.330, -5.416e-11
0.331, -5.488e-11
0.332, -5.575e-11
0.333, -5.651e-11
0.334, -5.725e-11
0.335, -5.808e-11
0.336, -5.899e-11
0.337, -5.974e-11
0.338, -6.056e-11
0.339, -6.128e-11
0.340, -6.195e-11
0.341, -6.273e-11
0.342, -6.355e-11
0.343, -6.449e-11
0.344, -6.537e-11
0.345, -6.642e-11
0.346, -6.740e-11
0.347, -6.830e-11
0.348, -6.982e-11
0.349, -7.077e-11
0.350, -7.173e-11
0.351, -7.259e-11
0.352, -7.333e-11
0.353, -7.434e-11
0.354, -7.519e-11
0.355, -7.636e-11
0.356, -7.720e-11
0.357, -7.802e-11
0.358, -7.909e-11
0.359, -8.013e-11
0.360, -8.129e-11
0.361, -8.247e-11
0.362, -8.382e-11
0.363, -8.500e-11
0.364, -8.580e-11
0.365, -8.679e-11
0.366, -8.809e-11
0.367, -8.943e-11
0.368, -9.027e-11
0.369, -9.141e-11
0.370, -9.262e-11
0.371, -9.373e-11
0.372, -9.510e-11
0.373, -9.648e-11
0.374, -9.763e-11
0.375, -9.896e-11
0.376, -1.001e-10
0.377, -1.014e-10
0.378, -1.026e-10
0.379, -1.039e-10
0.380, -1.047e-10
0.381, -1.057e-10
0.382, -1.070e-10
0.383, -1.085e-10
0.384, -1.098e-10
0.385, -1.110e-10
0.386, -1.122e-10
0.387, -1.132e-10
0.388, -1.141e-10
0.389, -1.153e-10
0.390, -1.165e-10
0.391, -1.178e-10
0.392, -1.190e-10
0.393, -1.204e-10
0.394, -1.216e-10
0.395, -1.228e-10
0.396, -1.237e-10
0.397, -1.247e-10
0.398, -1.256e-10
0.399, -1.266e-10
0.400, -1.277e-10
0.401, -1.288e-10
0.402, -1.298e-10
0.403, -1.308e-10
0.404, -1.318e-10
0.405, -1.328e-10
0.406, -1.337e-10
0.407, -1.348e-10
0.408, -1.358e-10
0.409, -1.367e-10
0.410, -1.377e-10
0.411, -1.387e-10
0.412, -1.396e-10
0.413, -1.406e-10
0.414, -1.420e-10
0.415, -1.430e-10
0.416, -1.436e-10
0.417, -1.444e-10
0.418, -1.453e-10
0.419, -1.462e-10
0.420, -1.470e-10
0.421, -1.475e-10
0.422, -1.486e-10
0.423, -1.495e-10
0.424, -1.502e-10
0.425, -1.510e-10
0.426, -1.516e-10
0.427, -1.525e-10
0.428, -1.533e-10
0.429, -1.541e-10
0.430, -1.549e-10
0.431, -1.558e-10
0.432, -1.567e-10
0.433, -1.576e-10
0.434, -1.584e-10
0.435, -1.589e-10
0.436, -1.595e-10
0.437, -1.603e-10
0.438, -1.613e-10
0.439, -1.621e-10
0.440, -1.628e-10
0.441, -1.634e-10
0.442, -1.641e-10
0.443, -1.647e-10
0.444, -1.652e-10
0.445, -1.656e-10
0.446, -1.664e-10
0.447, -1.676e-10
0.448, -1.682e-10
0.449, -1.686e-10
0.450, -1.692e-10
0.451, -1.696e-10
0.452, -1.700e-10
0.453, -1.706e-10
0.454, -1.710e-10
0.455, -1.715e-10
0.456, -1.720e-10
0.457, -1.722e-10
0.458, -1.725e-10
0.459, -1.730e-10
0.460, -1.735e-10
0.461, -1.735e-10
0.462, -1.740e-10
0.463, -1.745e-10
0.464, -1.751e-10
0.465, -1.754e-10
0.466, -1.757e-10
0.467, -1.764e-10
0.468, -1.771e-10
0.469, -1.776e-10
0.470, -1.781e-10
0.471, -1.782e-10
0.472, -1.788e-10
0.473, -1.795e-10
0.474, -1.801e-10
0.475, -1.809e-10
0.476, -1.817e-10
0.477, -1.822e-10
0.478, -1.828e-10
0.479, -1.834e-10
0.480, -1.839e-10
0.481, -1.846e-10
0.482, -1.852e-10
0.483, -1.855e-10
0.484, -1.859e-10
0.485, -1.863e-10
0.486, -1.865e-10
0.487, -1.870e-10
0.488, -1.879e-10
0.489, -1.885e-10
0.490, -1.889e-10
0.491, -1.891e-10
0.492, -1.892e-10
0.493, -1.892e-10
0.494, -1.893e-10
0.495, -1.895e-10
0.496, -1.897e-10
0.497, -1.901e-10
0.498, -1.901e-10
0.499, -1.904e-10
0.500, -1.907e-10
0.501, -1.908e-10
0.502, -1.912e-10
0.503, -1.915e-10
0.504, -1.917e-10
0.505, -1.919e-10
0.506, -1.921e-10
0.507, -1.923e-10
0.508, -1.925e-10
0.509, -1.927e-10
0.510, -1.929e-10
0.511, -1.932e-10
0.512, -1.935e-10
0.513, -1.937e-10
0.514, -1.940e-10
0.515, -1.942e-10
0.516, -1.945e-10
0.517, -1.947e-10
0.518, -1.949e-10
0.519, -1.952e-10
0.520, -1.954e-10
0.521, -1.960e-10
0.522, -1.964e-10
0.523, -1.967e-10
0.524, -1.970e-10
0.525, -1.973e-10
0.526, -1.976e-10
0.527, -1.979e-10
0.528, -1.982e-10
0.529, -1.985e-10
0.530, -1.988e-10
0.531, -1.992e-10
0.532, -1.996e-10
0.533, -1.999e-10
0.534, -2.001e-10
0.535, -2.003e-10
0.536, -2.007e-10
0.537, -2.009e-10
0.538, -2.011e-10
0.539, -2.013e-10
0.540, -2.015e-10
0.541, -2.018e-10
0.542, -2.020e-10
0.543, -2.022e-10
0.544, -2.025e-10
0.545, -2.027e-10
0.546, -2.029e-10
0.547, -2.032e-10
0.548, -2.034e-10
0.549, -2.038e-10
0.550, -2.042e-10
0.551, -2.046e-10
0.552, -2.050e-10
0.553, -2.055e-10
0.554, -2.059e-10
0.555, -2.062e-10
0.556, -2.066e-10
0.557, -2.071e-10
0.558, -2.077e-10
0.559, -2.081e-10
0.560, -2.083e-10
0.561, -2.085e-10
0.562, -2.086e-10
0.563, -2.088e-10
0.564, -2.091e-10
0.565, -2.094e-10
0.566, -2.097e-10
0.567, -2.100e-10
0.568, -2.102e-10
0.569, -2.103e-10
0.570, -2.106e-10
0.571, -2.108e-10
0.572, -2.109e-10
0.573, -2.113e-10
0.574, -2.114e-10
0.575, -2.116e-10
0.576, -2.117e-10
0.577, -2.120e-10
0.578, -2.125e-10
0.579, -2.129e-10
0.580, -2.132e-10
0.581, -2.137e-10
0.582, -2.139e-10
0.583, -2.141e-10
0.584, -2.146e-10
0.585, -2.152e-10
0.586, -2.157e-10
0.587, -2.161e-10
0.588, -2.166e-10
0.589, -2.172e-10
0.590, -2.178e-10
0.591, -2.181e-10
0.592, -2.189e-10
0.593, -2.194e-10
0.594, -2.197e-10
0.595, -2.199e-10
0.596, -2.200e-10
0.597, -2.207e-10
0.598, -2.213e-10
0.599, -2.213e-10
0.600, -2.220e-10
0.601, -2.226e-10
0.602, -2.232e-10
0.603, -2.237e-10
0.604, -2.240e-10
0.605, -2.242e-10
0.606, -2.245e-10
0.607, -2.248e-10
0.608, -2.250e-10
0.609, -2.252e-10
0.610, -2.255e-10
0.611, -2.258e-10
0.612, -2.261e-10
0.613, -2.266e-10
0.614, -2.272e-10
0.615, -2.277e-10
0.616, -2.282e-10
0.617, -2.288e-10
0.618, -2.294e-10
0.619, -2.295e-10
0.620, -2.299e-10
0.621, -2.310e-10
0.622, -2.314e-10
0.623, -2.313e-10
0.624, -2.317e-10
0.625, -2.321e-10
0.626, -2.322e-10
0.627, -2.320e-10
0.628, -2.318e-10
0.629, -2.317e-10
0.630, -2.318e-10
0.631, -2.324e-10
0.632, -2.327e-10
0.633, -2.333e-10
0.634, -2.338e-10
0.635, -2.340e-10
0.636, -2.344e-10
0.637, -2.348e-10
0.638, -2.350e-10
0.639, -2.351e-10
0.640, -2.357e-10
0.641, -2.356e-10
0.642, -2.356e-10
0.643, -2.357e-10
0.644, -2.362e-10
0.645, -2.368e-10
0.646, -2.372e-10
0.647, -2.378e-10
0.648, -2.383e-10
0.649, -2.387e-10
0.650, -2.390e-10
0.651, -2.393e-10
0.652, -2.396e-10
0.653, -2.397e-10
0.654, -2.399e-10
0.655, -2.402e-10
0.656, -2.404e-10
0.657, -2.406e-10
0.658, -2.407e-10
0.659, -2.408e-10
0.660, -2.412e-10
0.661, -2.415e-10
0.662, -2.419e-10
0.663, -2.421e-10
0.664, -2.424e-10
0.665, -2.425e-10
0.666, -2.428e-10
0.667, -2.433e-10
0.668, -2.434e-10
0.669, -2.435e-10
0.670, -2.436e-10
0.671, -2.438e-10
0.672, -2.442e-10
0.673, -2.446e-10
0.674, -2.448e-10
0.675, -2.450e-10
0.676, -2.450e-10
0.677, -2.453e-10
0.678, -2.460e-10
0.679, -2.471e-10
0.680, -2.475e-10
0.681, -2.480e-10
0.682, -2.486e-10
0.683, -2.492e-10
0.684, -2.500e-10
0.685, -2.502e-10
0.686, -2.505e-10
0.687, -2.508e-10
0.688, -2.507e-10
0.689, -2.502e-10
0.690, -2.500e-10
0.691, -2.501e-10
0.692, -2.504e-10
0.693, -2.508e-10
0.694, -2.512e-10
0.695, -2.514e-10
0.696, -2.517e-10
0.697, -2.519e-10
0.698, -2.521e-10
0.699, -2.525e-10
0.700, -2.524e-10
0.699, -2.505e-10
0.698, -2.491e-10
0.697, -2.483e-10
0.696, -2.474e-10
0.695, -2.464e-10
0.694, -2.455e-10
0.693, -2.448e-10
0.692, -2.441e-10
0.691, -2.436e-10
0.690, -2.430e-10
0.689, -2.424e-10
0.688, -2.417e-10
0.687, -2.413e-10
0.686, -2.406e-10
0.685, -2.400e-10
0.684, -2.395e-10
0.683, -2.391e-10
0.682, -2.389e-10
0.681, -2.387e-10
0.680, -2.385e-10
0.679, -2.378e-10
0.678, -2.375e-10
0.677, -2.376e-10
0.676, -2.372e-10
0.675, -2.368e-10
0.674, -2.367e-10
0.673, -2.362e-10
0.672, -2.354e-10
0.671, -2.350e-10
0.670, -2.343e-10
0.669, -2.338e-10
0.668, -2.334e-10
0.667, -2.329e-10
0.666, -2.321e-10
0.665, -2.318e-10
0.664, -2.313e-10
0.663, -2.308e-10
0.662, -2.306e-10
0.661, -2.302e-10
0.660, -2.297e-10
0.659, -2.291e-10
0.658, -2.287e-10
0.657, -2.282e-10
0.656, -2.278e-10
0.655, -2.272e-10
0.654, -2.269e-10
0.653, -2.266e-10
0.652, -2.264e-10
0.651, -2.260e-10
0.650, -2.254e-10
0.649, -2.249e-10
0.648, -2.245e-10
0.647, -2.240e-10
0.646, -2.236e-10
0.645, -2.232e-10
0.644, -2.227e-10
0.643, -2.221e-10
0.642, -2.216e-10
0.641, -2.209e-10
0.640, -2.204e-10
0.639, -2.199e-10
0.638, -2.195e-10
0.637, -2.189e-10
0.636, -2.184e-10
0.635, -2.179e-10
0.634, -2.172e-10
0.633, -2.166e-10
0.632, -2.161e-10
0.631, -2.157e-10
0.630, -2.152e-10
0.629, -2.149e-10
0.628, -2.143e-10
0.627, -2.135e-10
0.626, -2.129e-10
0.625, -2.125e-10
0.624, -2.122e-10
0.623, -2.117e-10
0.622, -2.111e-10
0.621, -2.106e-10
0.620, -2.102e-10
0.619, -2.097e-10
0.618, -2.093e-10
0.617, -2.088e-10
0.616, -2.083e-10
0.615, -2.078e-10
0.614, -2.073e-10
0.613, -2.067e-10
0.612, -2.063e-10
0.611, -2.058e-10
0.610, -2.053e-10
0.609, -2.048e-10
0.608, -2.043e-10
0.607, -2.038e-10
0.606, -2.032e-10
0.605, -2.026e-10
0.604, -2.021e-10
0.603, -2.017e-10
0.602, -2.012e-10
0.601, -2.007e-10
0.600, -2.003e-10
0.599, -1.998e-10
0.598, -1.994e-10
0.597, -1.989e-10
0.596, -1.984e-10
0.595, -1.979e-10
0.594, -1.975e-10
0.593, -1.973e-10
0.592, -1.970e-10
0.591, -1.967e-10
0.590, -1.962e-10
0.589, -1.955e-10
0.588, -1.949e-10
0.587, -1.943e-10
0.586, -1.939e-10
0.585, -1.936e-10
0.584, -1.933e-10
0.583, -1.929e-10
0.582, -1.924e-10
0.581, -1.919e-10
0.580, -1.916e-10
0.579, -1.912e-10
0.578, -1.907e-10
0.577, -1.902e-10
0.576, -1.899e-10
0.575, -1.896e-10
0.574, -1.892e-10
0.573, -1.887e-10
0.572, -1.883e-10
0.571, -1.880e-10
0.570, -1.877e-10
0.569, -1.872e-10
0.568, -1.866e-10
0.567, -1.860e-10
0.566, -1.857e-10
0.565, -1.851e-10
0.564, -1.846e-10
0.563, -1.840e-10
0.562, -1.835e-10
0.561, -1.831e-10
0.560, -1.827e-10
0.559, -1.820e-10
0.558, -1.815e-10
0.557, -1.811e-10
0.556, -1.808e-10
0.555, -1.805e-10
0.554, -1.801e-10
0.553, -1.796e-10
0.552, -1.793e-10
0.551, -1.788e-10
0.550, -1.785e-10
0.549, -1.784e-10
0.548, -1.778e-10
0.547, -1.774e-10
0.546, -1.771e-10
0.545, -1.765e-10
0.544, -1.759e-10
0.543, -1.759e-10
0.542, -1.758e-10
0.541, -1.749e-10
0.540, -1.738e-10
0.539, -1.731e-10
0.538, -1.725e-10
0.537, -1.719e-10
0.536, -1.713e-10
0.535, -1.707e-10
0.534, -1.701e-10
0.533, -1.695e-10
0.532, -1.689e-10
0.531, -1.682e-10
0.530, -1.676e-10
0.529, -1.672e-10
0.528, -1.667e-10
0.527, -1.661e-10
0.526, -1.655e-10
0.525, -1.647e-10
0.524, -1.639e-10
0.523, -1.632e-10
0.522, -1.625e-10
0.521, -1.616e-10
0.520, -1.610e-10
0.519, -1.605e-10
0.518, -1.599e-10
0.517, -1.593e-10
0.516, -1.586e-10
0.515, -1.583e-10
0.514, -1.577e-10
0.513, -1.577e-10
0.512, -1.572e-10
0.511, -1.563e-10
0.510, -1.559e-10
0.509, -1.554e-10
0.508, -1.549e-10
0.507, -1.545e-10
0.506, -1.539e-10
0.505, -1.534e-10
0.504, -1.528e-10
0.503, -1.519e-10
0.502, -1.511e-10
0.501, -1.505e-10
0.500, -1.500e-10
0.499, -1.494e-10
0.498, -1.489e-10
0.497, -1.488e-10
0.496, -1.483e-10
0.495, -1.477e-10
0.494, -1.470e-10
0.493, -1.465e-10
0.492, -1.460e-10
0.491, -1.454e-10
0.490, -1.451e-10
0.489, -1.443e-10
0.488, -1.434e-10
0.487, -1.427e-10
0.486, -1.420e-10
0.485, -1.413e-10
0.484, -1.405e-10
0.483, -1.398e-10
0.482, -1.391e-10
0.481, -1.384e-10
0.480, -1.378e-10
0.479, -1.372e-10
0.478, -1.366e-10
0.477, -1.359e-10
0.476, -1.354e-10
0.475, -1.349e-10
0.474, -1.343e-10
0.473, -1.337e-10
0.472, -1.330e-10
0.471, -1.323e-10
0.470, -1.317e-10
0.469, -1.311e-10
0.468, -1.305e-10
0.467, -1.298e-10
0.466, -1.292e-10
0.465, -1.285e-10
0.464, -1.278e-10
0.463, -1.272e-10
0.462, -1.266e-10
0.461, -1.261e-10
0.460, -1.256e-10
0.459, -1.251e-10
0.458, -1.245e-10
0.457, -1.238e-10
0.456, -1.231e-10
0.455, -1.226e-10
0.454, -1.220e-10
0.453, -1.216e-10
0.452, -1.211e-10
0.451, -1.204e-10
0.450, -1.200e-10
0.449, -1.195e-10
0.448, -1.187e-10
0.447, -1.178e-10
0.446, -1.172e-10
0.445, -1.166e-10
0.444, -1.160e-10
0.443, -1.156e-10
0.442, -1.151e-10
0.441, -1.144e-10
0.440, -1.136e-10
0.439, -1.129e-10
0.438, -1.122e-10
0.437, -1.115e-10
0.436, -1.107e-10
0.435, -1.101e-10
0.434, -1.094e-10
0.433, -1.089e-10
0.432, -1.083e-10
0.431, -1.076e-10
0.430, -1.070e-10
0.429, -1.065e-10
0.428, -1.058e-10
0.427, -1.053e-10
0.426, -1.048e-10
0.425, -1.042e-10
0.424, -1.035e-10
0.423, -1.028e-10
0.422, -1.022e-10
0.421, -1.016e-10
0.420, -1.012e-10
0.419, -1.008e-10
0.418, -1.001e-10
0.417, -9.970e-11
0.416, -9.939e-11
0.415, -9.868e-11
0.414, -9.808e-11
0.413, -9.764e-11
0.412, -9.706e-11
0.411, -9.650e-11
0.410, -9.579e-11
0.409, -9.502e-11
0.408, -9.444e-11
0.407, -9.371e-11
0.406, -9.292e-11
0.405, -9.232e-11
0.404, -9.189e-11
0.403, -9.133e-11
0.402, -9.051e-11
0.401, -8.976e-11
0.400, -8.912e-11
0.399, -8.857e-11
0.398, -8.798e-11
0.397, -8.731e-11
0.396, -8.656e-11
0.395, -8.589e-11
0.394, -8.529e-11
0.393, -8.471e-11
0.392, -8.410e-11
0.391, -8.353e-11
0.390, -8.295e-11
0.389, -8.235e-11
0.388, -8.173e-11
0.387, -8.118e-11
0.386, -8.050e-11
0.385, -7.993e-11
0.384, -7.932e-11
0.383, -7.859e-11
0.382, -7.803e-11
0.381, -7.762e-11
0.380, -7.705e-11
0.379, -7.639e-11
0.378, -7.580e-11
0.377, -7.510e-11
0.376, -7.443e-11
0.375, -7.374e-11
0.374, -7.309e-11
0.373, -7.254e-11
0.372, -7.191e-11
0.371, -7.116e-11
0.370, -7.042e-11
0.369, -6.961e-11
0.368, -6.913e-11
0.367, -6.852e-11
0.366, -6.782e-11
0.365, -6.726e-11
0.364, -6.664e-11
0.363, -6.589e-11
0.362, -6.518e-11
0.361, -6.449e-11
0.360, -6.387e-11
0.359, -6.323e-11
0.358, -6.260e-11
0.357, -6.194e-11
0.356, -6.132e-11
0.355, -6.070e-11
0.354, -6.006e-11
0.353, -5.941e-11
0.352, -5.877e-11
0.351, -5.810e-11
0.350, -5.751e-11
0.349, -5.686e-11
0.348, -5.632e-11
0.347, -5.576e-11
0.346, -5.517e-11
0.345, -5.457e-11
0.344, -5.392e-11
0.343, -5.331e-11
0.342, -5.290e-11
0.341, -5.249e-11
0.340, -5.186e-11
0.339, -5.136e-11
0.338, -5.101e-11
0.337, -5.033e-11
0.336, -4.953e-11
0.335, -4.903e-11
0.334, -4.861e-11
0.333, -4.811e-11
0.332, -4.752e-11
0.331, -4.723e-11
0.330, -4.685e-11
0.329, -4.608e-11
0.328, -4.544e-11
0.327, -4.501e-11
0.326, -4.433e-11
0.325, -4.374e-11
0.324, -4.321e-11
0.323, -4.276e-11
0.322, -4.231e-11
0.321, -4.188e-11
0.320, -4.139e-11
0.319, -4.086e-11
0.318, -4.041e-11
0.317, -3.993e-11
0.316, -3.938e-11
0.315, -3.879e-11
0.314, -3.836e-11
0.313, -3.799e-11
0.312, -3.759e-11
0.311, -3.720e-11
0.310, -3.673e-11
0.309, -3.626e-11
0.308, -3.578e-11
0.307, -3.532e-11
0.306, -3.495e-11
0.305, -3.457e-11
0.304, -3.418e-11
0.303, -3.377e-11
0.302, -3.344e-11
0.301, -3.303e-11
0.300, -3.262e-11
0.299, -3.222e-11
0.298, -3.182e-11
0.297, -3.145e-11
0.296, -3.104e-11
0.295, -3.075e-11
0.294, -3.037e-11
0.293, -2.998e-11
0.292, -2.958e-11
0.291, -2.930e-11
0.290, -2.902e-11
0.289, -2.869e-11
0.288, -2.836e-11
0.287, -2.801e-11
0.286, -2.757e-11
0.285, -2.718e-11
0.284, -2.681e-11
0.283, -2.650e-11
0.282, -2.626e-11
0.281, -2.598e-11
0.280, -2.561e-11
0.279, -2.529e-11
0.278, -2.496e-11
0.277, -2.465e-11
0.276, -2.435e-11
0.275, -2.412e-11
0.274, -2.388e-11
0.273, -2.351e-11
0.272, -2.333e-11
0.271, -2.308e-11
0.270, -2.273e-11
0.269, -2.247e-11
0.268, -2.218e-11
0.267, -2.198e-11
0.266, -2.171e-11
0.265, -2.154e-11
0.264, -2.133e-11
0.263, -2.100e-11
0.262, -2.065e-11
0.261, -2.038e-11
0.260, -2.019e-11
0.259, -2.001e-11
0.258, -1.972e-11
0.257, -1.946e-11
0.256, -1.918e-11
0.255, -1.896e-11
0.254, -1.876e-11
0.253, -1.874e-11
0.252, -1.857e-11
0.251, -1.825e-11
0.250, -1.805e-11
0.249, -1.795e-11
0.248, -1.775e-11
0.247, -1.760e-11
0.246, -1.715e-11
0.245, -1.697e-11
0.244, -1.671e-11
0.243, -1.660e-11
0.242, -1.636e-11
0.241, -1.602e-11
0.240, -1.574e-11
0.239, -1.559e-11
0.238, -1.539e-11
0.237, -1.533e-11
0.236, -1.512e-11
0.235, -1.480e-11
0.234, -1.450e-11
0.233, -1.429e-11
0.232, -1.415e-11
0.231, -1.397e-11
0.230, -1.376e-11
0.229, -1.354e-11
0.228, -1.335e-11
0.227, -1.319e-11
0.226, -1.302e-11
0.225, -1.282e-11
0.224, -1.267e-11
0.223, -1.250e-11
0.222, -1.229e-11
0.221, -1.215e-11
0.220, -1.199e-11
0.219, -1.173e-11
0.218, -1.153e-11
0.217, -1.141e-11
0.216, -1.127e-11
0.215, -1.109e-11
0.214, -1.092e-11
0.213, -1.076e-11
0.212, -1.060e-11
0.211, -1.048e-11
0.210, -1.034e-11
0.209, -1.010e-11
0.208, -1.000e-11
0.207, -9.906e-12
0.206, -9.705e-12
0.205, -9.630e-12
0.204, -9.468e-12
0.203, -9.184e-12
0.202, -9.034e-12
0.201, -8.947e-12
0.200, -8.933e-12
0.199, -8.804e-12
0.198, -8.564e-12
0.197, -8.383e-12
0.196, -8.159e-12
0.195, -8.118e-12
0.194, -7.996e-12
0.193, -7.870e-12
0.192, -7.688e-12
0.191, -7.471e-12
0.190, -7.387e-12
0.189, -7.272e-12
0.188, -7.129e-12
0.187, -6.995e-12
0.186, -6.811e-12
0.185, -6.617e-12
0.184, -6.457e-12
0.183, -6.376e-12
0.182, -6.239e-12
0.181, -6.095e-12
0.180, -5.972e-12
0.179, -5.890e-12
0.178, -5.742e-12
0.177, -5.633e-12
0.176, -5.515e-12
0.175, -5.383e-12
0.174, -5.325e-12
0.173, -5.222e-12
0.172, -5.126e-12
0.171, -4.941e-12
0.170, -4.748e-12
0.169, -4.676e-12
0.168, -4.630e-12
0.167, -4.478e-12
0.166, -4.370e-12
0.165, -4.186e-12
0.164, -4.071e-12
0.163, -3.931e-12
0.162, -3.780e-12
0.161, -3.727e-12
0.160, -3.671e-12
0.159, -3.477e-12
0.158, -3.404e-12
0.157, -3.281e-12
0.156, -3.113e-12
0.155, -3.067e-12
0.154, -2.989e-12
0.153, -2.847e-12
0.152, -2.770e-12
0.151, -2.675e-12
0.150, -2.545e-12
0.149, -2.470e-12
0.148, -2.374e-12
0.147, -2.243e-12
0.146, -2.116e-12
0.145, -2.000e-12
0.144, -1.948e-12
0.143, -1.848e-12
0.142, -1.767e-12
0.141, -1.769e-12
0.140, -1.755e-12
0.139, -1.623e-12
0.138, -1.548e-12
0.137, -1.415e-12
0.136, -1.229e-12
0.135, -1.140e-12
0.134, -1.057e-12
0.133, -9.656e-13
0.132, -1.034e-12
0.131, -9.160e-13
0.130, -7.569e-13
0.129, -7.175e-13
0.128, -5.978e-13
0.127, -4.985e-13
0.126, -4.379e-13
0.125, -3.654e-13
0.124, -3.087e-13
0.123, -2.071e-13
0.122, -1.378e-13
0.121, -5.434e-14
0.120, -1.055e-13
0.119, -1.701e-13
0.118, -5.198e-14
0.117, 1.355e-13
0.116, 3.780e-13
0.115, 3.182e-13
0.114, 5.214e-13
0.113, 5.576e-13
0.112, 7.167e-13
0.111, 7.608e-13
0.110, 8.333e-13
0.109, 8.782e-13
0.108, 1.012e-12
0.107, 9.648e-13
0.106, 1.154e-12
0.105, 1.052e-12
0.104, 1.251e-12
0.103, 1.335e-12
0.102, 1.459e-12
0.101, 1.559e-12
0.100, 1.516e-12
0.099, 1.530e-12
0.098, 1.693e-12
0.097, 1.840e-12
0.096, 1.886e-12
0.095, 1.919e-12
0.094, 1.956e-12
0.093, 1.942e-12
0.092, 1.887e-12
0.091, 2.019e-12
0.090, 2.098e-12
0.089, 2.295e-12
0.088, 2.306e-12
0.087, 2.326e-12
0.086, 2.505e-12
0.085, 2.549e-12
0.084, 2.746e-12
0.083, 2.687e-12
0.082, 2.726e-12
0.081, 2.844e-12
0.080, 2.831e-12
0.079, 2.844e-12
0.078, 2.989e-12
0.077, 3.077e-12
0.076, 3.102e-12
0.075, 3.197e-12
0.074, 3.227e-12
0.073, 3.289e-12
0.072, 3.388e-12
0.071, 3.320e-12
0.070, 3.456e-12
0.069, 3.590e-12
0.068, 3.647e-12
0.067, 3.553e-12
0.066, 3.630e-12
0.065, 3.766e-12
0.064, 3.877e-12
0.063, 3.945e-12
0.062, 3.964e-12
0.061, 4.061e-12
0.060, 4.040e-12
0.059, 4.062e-12
0.058, 4.120e-12
0.057, 4.140e-12
0.056, 4.286e-12
0.055, 4.405e-12
0.054, 4.169e-12
0.053, 4.131e-12
0.052, 4.538e-12
0.051, 4.718e-12
0.050, 4.733e-12
0.049, 4.755e-12
0.048, 4.793e-12
0.047, 4.829e-12
0.046, 4.890e-12
0.045, 4.959e-12
0.044, 5.047e-12
0.043, 5.092e-12
0.042, 5.105e-12
0.041, 5.077e-12
0.040, 5.170e-12
0.039, 5.256e-12
0.038, 5.292e-12
0.037, 5.347e-12
0.036, 5.421e-12
0.035, 5.534e-12
0.034, 5.635e-12
0.033, 5.629e-12
0.032, 5.633e-12
0.031, 5.665e-12
0.030, 5.786e-12
0.029, 5.821e-12
0.028, 5.802e-12
0.027, 5.828e-12
0.026, 5.882e-12
0.025, 5.936e-12
0.024, 6.017e-12
0.023, 6.105e-12
0.022, 6.166e-12
0.021, 6.209e-12
0.020, 6.279e-12
0.019, 6.276e-12
0.018, 6.394e-12
0.017, 6.461e-12
0.016, 6.515e-12
0.015, 6.643e-12
0.014, 6.567e-12
0.013, 6.654e-12
0.012, 6.817e-12
0.011, 6.841e-12
0.010, 6.870e-12
0.009, 6.954e-12
0.008, 6.936e-12
0.007, 6.932e-12
0.006, 6.988e-12
0.005, 7.057e-12
0.004, 7.149e-12
0.003, 7.146e-12
0.002, 7.207e-12
0.001, 7.252e-12
