Mar. 16, 2023   09:22:38
Cyclic Voltammetry
File: c:/users/oliverrz/desktop/electrolab/data/2023_03_16\fcmeoh_macros_500_um\electrode4_cv_250mvs_500_um.bin
Data Source:  Experiment
Instrument Model:  CHI760E
Header: CV
Note: 

Init E (V) = -0.2
High E (V) = 0.3
Low E (V) = -0.2
Final E (V) = -0.2
Init P/N = P
Scan Rate (V/s) = 0.25
Segment = 3
Sample Interval (V) = 0.001
Quiet Time (sec) = 2
Sensitivity (A/V) = 1e-7

Results:

Channel 1:
Segment 1:
Ep = 0.068V
ip = -4.171e-8A
Ah = -9.555e-9C

Segment 2:
Ep = 0.010V
ip = 4.549e-8A
Ah = 1.121e-8C

Segment 3:

Potential/V, Current/A

-0.200, 1.487e-8
-0.199, 1.250e-8
-0.198, 1.204e-8
-0.197, 1.194e-8
-0.196, 1.164e-8
-0.195, 1.121e-8
-0.194, 1.093e-8
-0.193, 1.087e-8
-0.192, 1.074e-8
-0.191, 1.037e-8
-0.190, 1.004e-8
-0.189, 1.010e-8
-0.188, 9.944e-9
-0.187, 9.667e-9
-0.186, 9.329e-9
-0.185, 9.267e-9
-0.184, 9.329e-9
-0.183, 8.990e-9
-0.182, 8.683e-9
-0.181, 8.590e-9
-0.180, 8.590e-9
-0.179, 8.406e-9
-0.178, 8.037e-9
-0.177, 7.913e-9
-0.176, 8.067e-9
-0.175, 7.790e-9
-0.174, 7.513e-9
-0.173, 7.360e-9
-0.172, 7.390e-9
-0.171, 7.298e-9
-0.170, 6.960e-9
-0.169, 6.775e-9
-0.168, 6.867e-9
-0.167, 6.775e-9
-0.166, 6.498e-9
-0.165, 6.252e-9
-0.164, 6.283e-9
-0.163, 6.283e-9
-0.162, 6.006e-9
-0.161, 5.729e-9
-0.160, 5.760e-9
-0.159, 5.821e-9
-0.158, 5.545e-9
-0.157, 5.268e-9
-0.156, 5.237e-9
-0.155, 5.329e-9
-0.154, 5.145e-9
-0.153, 4.806e-9
-0.152, 4.775e-9
-0.151, 4.868e-9
-0.150, 4.683e-9
-0.149, 4.437e-9
-0.148, 4.283e-9
-0.147, 4.437e-9
-0.146, 4.345e-9
-0.145, 3.976e-9
-0.144, 3.914e-9
-0.143, 3.945e-9
-0.142, 3.914e-9
-0.141, 3.668e-9
-0.140, 3.422e-9
-0.139, 3.545e-9
-0.138, 3.545e-9
-0.137, 3.268e-9
-0.136, 3.083e-9
-0.135, 3.083e-9
-0.134, 3.176e-9
-0.133, 2.960e-9
-0.132, 2.653e-9
-0.131, 2.714e-9
-0.130, 2.776e-9
-0.129, 2.622e-9
-0.128, 2.314e-9
-0.127, 2.253e-9
-0.126, 2.406e-9
-0.125, 2.253e-9
-0.124, 1.976e-9
-0.123, 1.883e-9
-0.122, 2.037e-9
-0.121, 1.914e-9
-0.120, 1.668e-9
-0.119, 1.545e-9
-0.118, 1.668e-9
-0.117, 1.637e-9
-0.116, 1.330e-9
-0.115, 1.145e-9
-0.114, 1.268e-9
-0.113, 1.237e-9
-0.112, 1.084e-9
-0.111, 8.067e-10
-0.110, 8.375e-10
-0.109, 9.913e-10
-0.108, 7.144e-10
-0.107, 4.991e-10
-0.106, 4.991e-10
-0.105, 5.913e-10
-0.104, 4.375e-10
-0.103, 1.299e-10
-0.102, 9.911e-11
-0.101, 2.529e-10
-0.100, 6.834e-11
-0.099, -1.162e-10
-0.098, -2.393e-10
-0.097, -1.162e-10
-0.096, -1.778e-10
-0.095, -4.854e-10
-0.094, -6.085e-10
-0.093, -4.854e-10
-0.092, -5.470e-10
-0.091, -7.315e-10
-0.090, -1.008e-9
-0.089, -8.854e-10
-0.088, -8.546e-10
-0.087, -1.070e-9
-0.086, -1.316e-9
-0.085, -1.285e-9
-0.084, -1.224e-9
-0.083, -1.439e-9
-0.082, -1.685e-9
-0.081, -1.716e-9
-0.080, -1.593e-9
-0.079, -1.778e-9
-0.078, -2.054e-9
-0.077, -2.085e-9
-0.076, -2.024e-9
-0.075, -2.147e-9
-0.074, -2.424e-9
-0.073, -2.577e-9
-0.072, -2.393e-9
-0.071, -2.516e-9
-0.070, -2.824e-9
-0.069, -2.947e-9
-0.068, -2.916e-9
-0.067, -2.916e-9
-0.066, -3.224e-9
-0.065, -3.470e-9
-0.064, -3.347e-9
-0.063, -3.408e-9
-0.062, -3.654e-9
-0.061, -3.900e-9
-0.060, -3.962e-9
-0.059, -3.839e-9
-0.058, -4.146e-9
-0.057, -4.485e-9
-0.056, -4.454e-9
-0.055, -4.454e-9
-0.054, -4.669e-9
-0.053, -4.977e-9
-0.052, -5.131e-9
-0.051, -5.039e-9
-0.050, -5.285e-9
-0.049, -5.623e-9
-0.048, -5.777e-9
-0.047, -5.746e-9
-0.046, -5.931e-9
-0.045, -6.269e-9
-0.044, -6.515e-9
-0.043, -6.485e-9
-0.042, -6.638e-9
-0.041, -7.008e-9
-0.040, -7.315e-9
-0.039, -7.315e-9
-0.038, -7.500e-9
-0.037, -7.838e-9
-0.036, -8.207e-9
-0.035, -8.269e-9
-0.034, -8.361e-9
-0.033, -8.761e-9
-0.032, -9.130e-9
-0.031, -9.315e-9
-0.030, -9.438e-9
-0.029, -9.715e-9
-0.028, -1.024e-8
-0.027, -1.042e-8
-0.026, -1.058e-8
-0.025, -1.095e-8
-0.024, -1.138e-8
-0.023, -1.175e-8
-0.022, -1.184e-8
-0.021, -1.218e-8
-0.020, -1.276e-8
-0.019, -1.307e-8
-0.018, -1.325e-8
-0.017, -1.362e-8
-0.016, -1.408e-8
-0.015, -1.467e-8
-0.014, -1.482e-8
-0.013, -1.516e-8
-0.012, -1.578e-8
-0.011, -1.630e-8
-0.010, -1.664e-8
-0.009, -1.691e-8
-0.008, -1.750e-8
-0.007, -1.814e-8
-0.006, -1.854e-8
-0.005, -1.882e-8
-0.004, -1.944e-8
-0.003, -2.011e-8
-0.002, -2.058e-8
-0.001, -2.094e-8
-0.000, -2.184e-8
0.001, -2.242e-8
0.002, -2.291e-8
0.003, -2.325e-8
0.004, -2.390e-8
0.005, -2.464e-8
0.006, -2.528e-8
0.007, -2.571e-8
0.008, -2.624e-8
0.009, -2.710e-8
0.010, -2.784e-8
0.011, -2.824e-8
0.012, -2.888e-8
0.013, -2.962e-8
0.014, -3.045e-8
0.015, -3.100e-8
0.016, -3.147e-8
0.017, -3.236e-8
0.018, -3.316e-8
0.019, -3.371e-8
0.020, -3.433e-8
0.021, -3.500e-8
0.022, -3.590e-8
0.023, -3.654e-8
0.024, -3.700e-8
0.025, -3.783e-8
0.026, -3.866e-8
0.027, -3.931e-8
0.028, -3.983e-8
0.029, -4.048e-8
0.030, -4.134e-8
0.031, -4.205e-8
0.032, -4.245e-8
0.033, -4.310e-8
0.034, -4.389e-8
0.035, -4.457e-8
0.036, -4.509e-8
0.037, -4.553e-8
0.038, -4.629e-8
0.039, -4.706e-8
0.040, -4.740e-8
0.041, -4.789e-8
0.042, -4.851e-8
0.043, -4.913e-8
0.044, -4.965e-8
0.045, -4.983e-8
0.046, -5.048e-8
0.047, -5.109e-8
0.048, -5.137e-8
0.049, -5.168e-8
0.050, -5.214e-8
0.051, -5.263e-8
0.052, -5.303e-8
0.053, -5.309e-8
0.054, -5.349e-8
0.055, -5.392e-8
0.056, -5.417e-8
0.057, -5.432e-8
0.058, -5.448e-8
0.059, -5.482e-8
0.060, -5.519e-8
0.061, -5.509e-8
0.062, -5.522e-8
0.063, -5.549e-8
0.064, -5.568e-8
0.065, -5.574e-8
0.066, -5.562e-8
0.067, -5.580e-8
0.068, -5.602e-8
0.069, -5.592e-8
0.070, -5.577e-8
0.071, -5.589e-8
0.072, -5.599e-8
0.073, -5.595e-8
0.074, -5.568e-8
0.075, -5.571e-8
0.076, -5.580e-8
0.077, -5.568e-8
0.078, -5.537e-8
0.079, -5.531e-8
0.080, -5.531e-8
0.081, -5.528e-8
0.082, -5.491e-8
0.083, -5.466e-8
0.084, -5.476e-8
0.085, -5.463e-8
0.086, -5.423e-8
0.087, -5.405e-8
0.088, -5.392e-8
0.089, -5.389e-8
0.090, -5.352e-8
0.091, -5.316e-8
0.092, -5.312e-8
0.093, -5.303e-8
0.094, -5.269e-8
0.095, -5.236e-8
0.096, -5.214e-8
0.097, -5.214e-8
0.098, -5.183e-8
0.099, -5.137e-8
0.100, -5.125e-8
0.101, -5.112e-8
0.102, -5.094e-8
0.103, -5.048e-8
0.104, -5.020e-8
0.105, -5.020e-8
0.106, -4.996e-8
0.107, -4.949e-8
0.108, -4.922e-8
0.109, -4.913e-8
0.110, -4.900e-8
0.111, -4.857e-8
0.112, -4.820e-8
0.113, -4.817e-8
0.114, -4.805e-8
0.115, -4.765e-8
0.116, -4.728e-8
0.117, -4.716e-8
0.118, -4.709e-8
0.119, -4.676e-8
0.120, -4.633e-8
0.121, -4.620e-8
0.122, -4.617e-8
0.123, -4.583e-8
0.124, -4.543e-8
0.125, -4.528e-8
0.126, -4.525e-8
0.127, -4.503e-8
0.128, -4.457e-8
0.129, -4.442e-8
0.130, -4.439e-8
0.131, -4.417e-8
0.132, -4.380e-8
0.133, -4.353e-8
0.134, -4.353e-8
0.135, -4.343e-8
0.136, -4.300e-8
0.137, -4.276e-8
0.138, -4.273e-8
0.139, -4.263e-8
0.140, -4.236e-8
0.141, -4.199e-8
0.142, -4.199e-8
0.143, -4.196e-8
0.144, -4.162e-8
0.145, -4.134e-8
0.146, -4.125e-8
0.147, -4.125e-8
0.148, -4.106e-8
0.149, -4.063e-8
0.150, -4.057e-8
0.151, -4.063e-8
0.152, -4.042e-8
0.153, -4.008e-8
0.154, -3.996e-8
0.155, -3.996e-8
0.156, -3.986e-8
0.157, -3.950e-8
0.158, -3.934e-8
0.159, -3.943e-8
0.160, -3.931e-8
0.161, -3.900e-8
0.162, -3.876e-8
0.163, -3.882e-8
0.164, -3.885e-8
0.165, -3.851e-8
0.166, -3.826e-8
0.167, -3.833e-8
0.168, -3.830e-8
0.169, -3.811e-8
0.170, -3.780e-8
0.171, -3.777e-8
0.172, -3.790e-8
0.173, -3.765e-8
0.174, -3.737e-8
0.175, -3.734e-8
0.176, -3.740e-8
0.177, -3.731e-8
0.178, -3.700e-8
0.179, -3.691e-8
0.180, -3.703e-8
0.181, -3.694e-8
0.182, -3.663e-8
0.183, -3.654e-8
0.184, -3.657e-8
0.185, -3.660e-8
0.186, -3.630e-8
0.187, -3.614e-8
0.188, -3.627e-8
0.189, -3.627e-8
0.190, -3.602e-8
0.191, -3.583e-8
0.192, -3.587e-8
0.193, -3.599e-8
0.194, -3.577e-8
0.195, -3.550e-8
0.196, -3.559e-8
0.197, -3.568e-8
0.198, -3.553e-8
0.199, -3.528e-8
0.200, -3.525e-8
0.201, -3.543e-8
0.202, -3.534e-8
0.203, -3.503e-8
0.204, -3.503e-8
0.205, -3.519e-8
0.206, -3.513e-8
0.207, -3.488e-8
0.208, -3.479e-8
0.209, -3.494e-8
0.210, -3.497e-8
0.211, -3.470e-8
0.212, -3.460e-8
0.213, -3.470e-8
0.214, -3.479e-8
0.215, -3.460e-8
0.216, -3.442e-8
0.217, -3.454e-8
0.218, -3.467e-8
0.219, -3.448e-8
0.220, -3.433e-8
0.221, -3.436e-8
0.222, -3.454e-8
0.223, -3.445e-8
0.224, -3.417e-8
0.225, -3.427e-8
0.226, -3.439e-8
0.227, -3.436e-8
0.228, -3.417e-8
0.229, -3.411e-8
0.230, -3.436e-8
0.231, -3.433e-8
0.232, -3.408e-8
0.233, -3.408e-8
0.234, -3.423e-8
0.235, -3.427e-8
0.236, -3.411e-8
0.237, -3.399e-8
0.238, -3.417e-8
0.239, -3.433e-8
0.240, -3.411e-8
0.241, -3.405e-8
0.242, -3.414e-8
0.243, -3.433e-8
0.244, -3.420e-8
0.245, -3.402e-8
0.246, -3.414e-8
0.247, -3.436e-8
0.248, -3.427e-8
0.249, -3.411e-8
0.250, -3.420e-8
0.251, -3.442e-8
0.252, -3.442e-8
0.253, -3.420e-8
0.254, -3.427e-8
0.255, -3.451e-8
0.256, -3.451e-8
0.257, -3.433e-8
0.258, -3.439e-8
0.259, -3.454e-8
0.260, -3.473e-8
0.261, -3.451e-8
0.262, -3.448e-8
0.263, -3.473e-8
0.264, -3.482e-8
0.265, -3.473e-8
0.266, -3.467e-8
0.267, -3.479e-8
0.268, -3.507e-8
0.269, -3.491e-8
0.270, -3.485e-8
0.271, -3.500e-8
0.272, -3.519e-8
0.273, -3.522e-8
0.274, -3.507e-8
0.275, -3.519e-8
0.276, -3.547e-8
0.277, -3.547e-8
0.278, -3.534e-8
0.279, -3.547e-8
0.280, -3.568e-8
0.281, -3.580e-8
0.282, -3.565e-8
0.283, -3.574e-8
0.284, -3.596e-8
0.285, -3.608e-8
0.286, -3.596e-8
0.287, -3.602e-8
0.288, -3.623e-8
0.289, -3.645e-8
0.290, -3.636e-8
0.291, -3.630e-8
0.292, -3.654e-8
0.293, -3.679e-8
0.294, -3.673e-8
0.295, -3.667e-8
0.296, -3.688e-8
0.297, -3.713e-8
0.298, -3.716e-8
0.299, -3.703e-8
0.300, -3.377e-8
0.299, -2.888e-8
0.298, -2.768e-8
0.297, -2.673e-8
0.296, -2.611e-8
0.295, -2.574e-8
0.294, -2.531e-8
0.293, -2.467e-8
0.292, -2.430e-8
0.291, -2.411e-8
0.290, -2.384e-8
0.289, -2.331e-8
0.288, -2.297e-8
0.287, -2.285e-8
0.286, -2.270e-8
0.285, -2.230e-8
0.284, -2.190e-8
0.283, -2.187e-8
0.282, -2.177e-8
0.281, -2.141e-8
0.280, -2.110e-8
0.279, -2.097e-8
0.278, -2.097e-8
0.277, -2.073e-8
0.276, -2.030e-8
0.275, -2.030e-8
0.274, -2.027e-8
0.273, -2.008e-8
0.272, -1.978e-8
0.271, -1.959e-8
0.270, -1.968e-8
0.269, -1.956e-8
0.268, -1.916e-8
0.267, -1.910e-8
0.266, -1.910e-8
0.265, -1.907e-8
0.264, -1.876e-8
0.263, -1.851e-8
0.262, -1.864e-8
0.261, -1.861e-8
0.260, -1.830e-8
0.259, -1.811e-8
0.258, -1.814e-8
0.257, -1.821e-8
0.256, -1.796e-8
0.255, -1.768e-8
0.254, -1.774e-8
0.253, -1.781e-8
0.252, -1.762e-8
0.251, -1.734e-8
0.250, -1.734e-8
0.249, -1.744e-8
0.248, -1.731e-8
0.247, -1.701e-8
0.246, -1.698e-8
0.245, -1.710e-8
0.244, -1.701e-8
0.243, -1.673e-8
0.242, -1.667e-8
0.241, -1.673e-8
0.240, -1.679e-8
0.239, -1.642e-8
0.238, -1.636e-8
0.237, -1.648e-8
0.236, -1.645e-8
0.235, -1.627e-8
0.234, -1.602e-8
0.233, -1.614e-8
0.232, -1.624e-8
0.231, -1.596e-8
0.230, -1.578e-8
0.229, -1.584e-8
0.228, -1.596e-8
0.227, -1.584e-8
0.226, -1.553e-8
0.225, -1.556e-8
0.224, -1.571e-8
0.223, -1.559e-8
0.222, -1.534e-8
0.221, -1.531e-8
0.220, -1.544e-8
0.219, -1.541e-8
0.218, -1.510e-8
0.217, -1.507e-8
0.216, -1.519e-8
0.215, -1.516e-8
0.214, -1.491e-8
0.213, -1.482e-8
0.212, -1.491e-8
0.211, -1.498e-8
0.210, -1.473e-8
0.209, -1.458e-8
0.208, -1.470e-8
0.207, -1.476e-8
0.206, -1.455e-8
0.205, -1.436e-8
0.204, -1.442e-8
0.203, -1.458e-8
0.202, -1.439e-8
0.201, -1.415e-8
0.200, -1.421e-8
0.199, -1.433e-8
0.198, -1.424e-8
0.197, -1.396e-8
0.196, -1.393e-8
0.195, -1.411e-8
0.194, -1.402e-8
0.193, -1.378e-8
0.192, -1.371e-8
0.191, -1.384e-8
0.190, -1.384e-8
0.189, -1.359e-8
0.188, -1.347e-8
0.187, -1.365e-8
0.186, -1.365e-8
0.185, -1.341e-8
0.184, -1.328e-8
0.183, -1.335e-8
0.182, -1.344e-8
0.181, -1.325e-8
0.180, -1.301e-8
0.179, -1.310e-8
0.178, -1.322e-8
0.177, -1.304e-8
0.176, -1.282e-8
0.175, -1.282e-8
0.174, -1.298e-8
0.173, -1.285e-8
0.172, -1.255e-8
0.171, -1.258e-8
0.170, -1.267e-8
0.169, -1.261e-8
0.168, -1.233e-8
0.167, -1.227e-8
0.166, -1.239e-8
0.165, -1.236e-8
0.164, -1.208e-8
0.163, -1.199e-8
0.162, -1.208e-8
0.161, -1.208e-8
0.160, -1.187e-8
0.159, -1.165e-8
0.158, -1.175e-8
0.157, -1.181e-8
0.156, -1.156e-8
0.155, -1.135e-8
0.154, -1.138e-8
0.153, -1.147e-8
0.152, -1.128e-8
0.151, -1.098e-8
0.150, -1.101e-8
0.149, -1.110e-8
0.148, -1.095e-8
0.147, -1.064e-8
0.146, -1.061e-8
0.145, -1.067e-8
0.144, -1.061e-8
0.143, -1.018e-8
0.142, -1.015e-8
0.141, -1.018e-8
0.140, -1.011e-8
0.139, -9.838e-9
0.138, -9.623e-9
0.137, -9.684e-9
0.136, -9.684e-9
0.135, -9.284e-9
0.134, -9.161e-9
0.133, -9.100e-9
0.132, -9.100e-9
0.131, -8.823e-9
0.130, -8.515e-9
0.129, -8.515e-9
0.128, -8.484e-9
0.127, -8.207e-9
0.126, -7.869e-9
0.125, -7.777e-9
0.124, -7.808e-9
0.123, -7.561e-9
0.122, -7.131e-9
0.121, -7.008e-9
0.120, -7.008e-9
0.119, -6.762e-9
0.118, -6.331e-9
0.117, -6.146e-9
0.116, -6.085e-9
0.115, -5.900e-9
0.114, -5.439e-9
0.113, -5.162e-9
0.112, -5.131e-9
0.111, -4.885e-9
0.110, -4.454e-9
0.109, -4.146e-9
0.108, -3.931e-9
0.107, -3.839e-9
0.106, -3.347e-9
0.105, -2.885e-9
0.104, -2.762e-9
0.103, -2.485e-9
0.102, -2.085e-9
0.101, -1.624e-9
0.100, -1.285e-9
0.099, -1.193e-9
0.098, -6.700e-10
0.097, -1.162e-10
0.096, 1.914e-10
0.095, 4.991e-10
0.094, 8.375e-10
0.093, 1.514e-9
0.092, 1.945e-9
0.091, 2.191e-9
0.090, 2.653e-9
0.089, 3.268e-9
0.088, 3.791e-9
0.087, 4.129e-9
0.086, 4.529e-9
0.085, 5.206e-9
0.084, 5.821e-9
0.083, 6.191e-9
0.082, 6.621e-9
0.081, 7.329e-9
0.080, 7.975e-9
0.079, 8.467e-9
0.078, 8.929e-9
0.077, 9.575e-9
0.076, 1.041e-8
0.075, 1.084e-8
0.074, 1.133e-8
0.073, 1.201e-8
0.072, 1.277e-8
0.071, 1.345e-8
0.070, 1.385e-8
0.069, 1.453e-8
0.068, 1.548e-8
0.067, 1.600e-8
0.066, 1.659e-8
0.065, 1.720e-8
0.064, 1.804e-8
0.063, 1.884e-8
0.062, 1.930e-8
0.061, 1.991e-8
0.060, 2.080e-8
0.059, 2.151e-8
0.058, 2.210e-8
0.057, 2.265e-8
0.056, 2.345e-8
0.055, 2.437e-8
0.054, 2.480e-8
0.053, 2.539e-8
0.052, 2.616e-8
0.051, 2.699e-8
0.050, 2.757e-8
0.049, 2.800e-8
0.048, 2.865e-8
0.047, 2.957e-8
0.046, 3.003e-8
0.045, 3.050e-8
0.044, 3.111e-8
0.043, 3.188e-8
0.042, 3.246e-8
0.041, 3.283e-8
0.040, 3.333e-8
0.039, 3.409e-8
0.038, 3.459e-8
0.037, 3.493e-8
0.036, 3.536e-8
0.035, 3.588e-8
0.034, 3.643e-8
0.033, 3.677e-8
0.032, 3.699e-8
0.031, 3.757e-8
0.030, 3.803e-8
0.029, 3.822e-8
0.028, 3.846e-8
0.027, 3.880e-8
0.026, 3.932e-8
0.025, 3.948e-8
0.024, 3.957e-8
0.023, 3.988e-8
0.022, 4.025e-8
0.021, 4.040e-8
0.020, 4.043e-8
0.019, 4.049e-8
0.018, 4.096e-8
0.017, 4.099e-8
0.016, 4.092e-8
0.015, 4.099e-8
0.014, 4.123e-8
0.013, 4.136e-8
0.012, 4.123e-8
0.011, 4.114e-8
0.010, 4.139e-8
0.009, 4.139e-8
0.008, 4.123e-8
0.007, 4.114e-8
0.006, 4.120e-8
0.005, 4.129e-8
0.004, 4.111e-8
0.003, 4.080e-8
0.002, 4.089e-8
0.001, 4.099e-8
0.000, 4.096e-8
-0.001, 4.056e-8
-0.002, 4.046e-8
-0.003, 4.049e-8
-0.004, 4.031e-8
-0.005, 3.991e-8
-0.006, 3.982e-8
-0.007, 3.988e-8
-0.008, 3.963e-8
-0.009, 3.936e-8
-0.010, 3.911e-8
-0.011, 3.914e-8
-0.012, 3.902e-8
-0.013, 3.859e-8
-0.014, 3.840e-8
-0.015, 3.840e-8
-0.016, 3.822e-8
-0.017, 3.794e-8
-0.018, 3.757e-8
-0.019, 3.754e-8
-0.020, 3.751e-8
-0.021, 3.711e-8
-0.022, 3.683e-8
-0.023, 3.668e-8
-0.024, 3.671e-8
-0.025, 3.640e-8
-0.026, 3.600e-8
-0.027, 3.591e-8
-0.028, 3.588e-8
-0.029, 3.563e-8
-0.030, 3.526e-8
-0.031, 3.505e-8
-0.032, 3.508e-8
-0.033, 3.493e-8
-0.034, 3.449e-8
-0.035, 3.428e-8
-0.036, 3.434e-8
-0.037, 3.416e-8
-0.038, 3.382e-8
-0.039, 3.357e-8
-0.040, 3.354e-8
-0.041, 3.348e-8
-0.042, 3.317e-8
-0.043, 3.286e-8
-0.044, 3.289e-8
-0.045, 3.280e-8
-0.046, 3.253e-8
-0.047, 3.225e-8
-0.048, 3.216e-8
-0.049, 3.225e-8
-0.050, 3.194e-8
-0.051, 3.160e-8
-0.052, 3.157e-8
-0.053, 3.160e-8
-0.054, 3.145e-8
-0.055, 3.111e-8
-0.056, 3.096e-8
-0.057, 3.111e-8
-0.058, 3.089e-8
-0.059, 3.062e-8
-0.060, 3.050e-8
-0.061, 3.056e-8
-0.062, 3.050e-8
-0.063, 3.019e-8
-0.064, 3.000e-8
-0.065, 3.013e-8
-0.066, 3.006e-8
-0.067, 2.982e-8
-0.068, 2.963e-8
-0.069, 2.966e-8
-0.070, 2.976e-8
-0.071, 2.948e-8
-0.072, 2.926e-8
-0.073, 2.933e-8
-0.074, 2.939e-8
-0.075, 2.920e-8
-0.076, 2.896e-8
-0.077, 2.896e-8
-0.078, 2.911e-8
-0.079, 2.896e-8
-0.080, 2.868e-8
-0.081, 2.868e-8
-0.082, 2.883e-8
-0.083, 2.874e-8
-0.084, 2.853e-8
-0.085, 2.840e-8
-0.086, 2.862e-8
-0.087, 2.859e-8
-0.088, 2.834e-8
-0.089, 2.828e-8
-0.090, 2.840e-8
-0.091, 2.843e-8
-0.092, 2.828e-8
-0.093, 2.810e-8
-0.094, 2.825e-8
-0.095, 2.834e-8
-0.096, 2.816e-8
-0.097, 2.803e-8
-0.098, 2.810e-8
-0.099, 2.825e-8
-0.100, 2.816e-8
-0.101, 2.791e-8
-0.102, 2.806e-8
-0.103, 2.822e-8
-0.104, 2.810e-8
-0.105, 2.794e-8
-0.106, 2.794e-8
-0.107, 2.819e-8
-0.108, 2.813e-8
-0.109, 2.794e-8
-0.110, 2.794e-8
-0.111, 2.816e-8
-0.112, 2.816e-8
-0.113, 2.803e-8
-0.114, 2.797e-8
-0.115, 2.819e-8
-0.116, 2.825e-8
-0.117, 2.813e-8
-0.118, 2.800e-8
-0.119, 2.822e-8
-0.120, 2.837e-8
-0.121, 2.822e-8
-0.122, 2.813e-8
-0.123, 2.825e-8
-0.124, 2.850e-8
-0.125, 2.837e-8
-0.126, 2.825e-8
-0.127, 2.837e-8
-0.128, 2.862e-8
-0.129, 2.859e-8
-0.130, 2.840e-8
-0.131, 2.850e-8
-0.132, 2.877e-8
-0.133, 2.874e-8
-0.134, 2.862e-8
-0.135, 2.868e-8
-0.136, 2.893e-8
-0.137, 2.902e-8
-0.138, 2.886e-8
-0.139, 2.886e-8
-0.140, 2.914e-8
-0.141, 2.926e-8
-0.142, 2.917e-8
-0.143, 2.914e-8
-0.144, 2.933e-8
-0.145, 2.954e-8
-0.146, 2.945e-8
-0.147, 2.939e-8
-0.148, 2.960e-8
-0.149, 2.982e-8
-0.150, 2.982e-8
-0.151, 2.970e-8
-0.152, 2.988e-8
-0.153, 3.019e-8
-0.154, 3.016e-8
-0.155, 3.006e-8
-0.156, 3.022e-8
-0.157, 3.046e-8
-0.158, 3.056e-8
-0.159, 3.046e-8
-0.160, 3.050e-8
-0.161, 3.086e-8
-0.162, 3.096e-8
-0.163, 3.089e-8
-0.164, 3.093e-8
-0.165, 3.123e-8
-0.166, 3.142e-8
-0.167, 3.139e-8
-0.168, 3.136e-8
-0.169, 3.166e-8
-0.170, 3.185e-8
-0.171, 3.185e-8
-0.172, 3.185e-8
-0.173, 3.206e-8
-0.174, 3.237e-8
-0.175, 3.240e-8
-0.176, 3.234e-8
-0.177, 3.259e-8
-0.178, 3.289e-8
-0.179, 3.299e-8
-0.180, 3.293e-8
-0.181, 3.308e-8
-0.182, 3.348e-8
-0.183, 3.357e-8
-0.184, 3.348e-8
-0.185, 3.369e-8
-0.186, 3.403e-8
-0.187, 3.419e-8
-0.188, 3.419e-8
-0.189, 3.425e-8
-0.190, 3.468e-8
-0.191, 3.489e-8
-0.192, 3.489e-8
-0.193, 3.496e-8
-0.194, 3.529e-8
-0.195, 3.560e-8
-0.196, 3.563e-8
-0.197, 3.563e-8
-0.198, 3.600e-8
-0.199, 3.634e-8
