Mar. 16, 2023   09:18:19
Cyclic Voltammetry
File: c:/users/oliverrz/desktop/electrolab/data/2023_03_16\fcmeoh_macros_500_um\electrode1_cv_150mvs_500_um.bin
Data Source:  Experiment
Instrument Model:  CHI760E
Header: CV
Note: 

Init E (V) = -0.2
High E (V) = 0.3
Low E (V) = -0.2
Final E (V) = -0.2
Init P/N = P
Scan Rate (V/s) = 0.15
Segment = 3
Sample Interval (V) = 0.001
Quiet Time (sec) = 2
Sensitivity (A/V) = 1e-7

Results:

Channel 1:
Segment 1:
Ep = 0.093V
ip = -3.884e-8A
Ah = -1.623e-8C

Segment 2:
Ep = 0.031V
ip = 3.654e-8A
Ah = 1.493e-8C

Segment 3:

Potential/V, Current/A

-0.200, 3.237e-9
-0.199, 2.613e-9
-0.198, 2.729e-9
-0.197, 2.455e-9
-0.196, 2.545e-9
-0.195, 2.490e-9
-0.194, 2.341e-9
-0.193, 2.491e-9
-0.192, 2.264e-9
-0.191, 2.372e-9
-0.190, 2.301e-9
-0.189, 2.188e-9
-0.188, 2.336e-9
-0.187, 2.102e-9
-0.186, 2.237e-9
-0.185, 2.155e-9
-0.184, 2.036e-9
-0.183, 2.224e-9
-0.182, 1.963e-9
-0.181, 2.106e-9
-0.180, 2.045e-9
-0.179, 1.906e-9
-0.178, 2.100e-9
-0.177, 1.851e-9
-0.176, 1.988e-9
-0.175, 1.935e-9
-0.174, 1.798e-9
-0.173, 1.990e-9
-0.172, 1.751e-9
-0.171, 1.883e-9
-0.170, 1.831e-9
-0.169, 1.697e-9
-0.168, 1.892e-9
-0.167, 1.646e-9
-0.166, 1.779e-9
-0.165, 1.742e-9
-0.164, 1.608e-9
-0.163, 1.788e-9
-0.162, 1.573e-9
-0.161, 1.683e-9
-0.160, 1.644e-9
-0.159, 1.529e-9
-0.158, 1.694e-9
-0.157, 1.480e-9
-0.156, 1.607e-9
-0.155, 1.557e-9
-0.154, 1.437e-9
-0.153, 1.618e-9
-0.152, 1.391e-9
-0.151, 1.525e-9
-0.150, 1.472e-9
-0.149, 1.357e-9
-0.148, 1.541e-9
-0.147, 1.315e-9
-0.146, 1.449e-9
-0.145, 1.389e-9
-0.144, 1.290e-9
-0.143, 1.466e-9
-0.142, 1.228e-9
-0.141, 1.377e-9
-0.140, 1.321e-9
-0.139, 1.213e-9
-0.138, 1.395e-9
-0.137, 1.151e-9
-0.136, 1.315e-9
-0.135, 1.257e-9
-0.134, 1.132e-9
-0.133, 1.325e-9
-0.132, 1.095e-9
-0.131, 1.230e-9
-0.130, 1.196e-9
-0.129, 1.065e-9
-0.128, 1.250e-9
-0.127, 1.028e-9
-0.126, 1.164e-9
-0.125, 1.127e-9
-0.124, 1.000e-9
-0.123, 1.190e-9
-0.122, 9.647e-10
-0.121, 1.087e-9
-0.120, 1.062e-9
-0.119, 9.395e-10
-0.118, 1.113e-9
-0.117, 9.016e-10
-0.116, 1.033e-9
-0.115, 9.766e-10
-0.114, 8.758e-10
-0.113, 1.043e-9
-0.112, 8.324e-10
-0.111, 9.739e-10
-0.110, 9.094e-10
-0.109, 8.101e-10
-0.108, 9.817e-10
-0.107, 7.584e-10
-0.106, 9.075e-10
-0.105, 8.387e-10
-0.104, 7.387e-10
-0.103, 9.104e-10
-0.102, 6.747e-10
-0.101, 8.285e-10
-0.100, 7.750e-10
-0.099, 6.638e-10
-0.098, 8.467e-10
-0.097, 6.006e-10
-0.096, 7.656e-10
-0.095, 6.994e-10
-0.094, 5.717e-10
-0.093, 7.702e-10
-0.092, 5.265e-10
-0.091, 6.718e-10
-0.090, 6.202e-10
-0.089, 4.873e-10
-0.088, 6.838e-10
-0.087, 4.517e-10
-0.086, 5.760e-10
-0.085, 5.323e-10
-0.084, 4.093e-10
-0.083, 5.876e-10
-0.082, 3.495e-10
-0.081, 4.807e-10
-0.080, 4.342e-10
-0.079, 3.104e-10
-0.078, 4.750e-10
-0.077, 2.477e-10
-0.076, 3.775e-10
-0.075, 3.142e-10
-0.074, 2.033e-10
-0.073, 3.560e-10
-0.072, 1.386e-10
-0.071, 2.677e-10
-0.070, 1.834e-10
-0.069, 7.851e-11
-0.068, 2.363e-10
-0.067, -4.791e-12
-0.066, 1.334e-10
-0.065, 4.975e-11
-0.064, -7.175e-11
-0.063, 9.706e-11
-0.062, -1.646e-10
-0.061, -2.977e-11
-0.060, -1.107e-10
-0.059, -2.428e-10
-0.058, -8.158e-11
-0.057, -3.389e-10
-0.056, -2.051e-10
-0.055, -2.982e-10
-0.054, -4.385e-10
-0.053, -2.704e-10
-0.052, -5.539e-10
-0.051, -4.280e-10
-0.050, -5.158e-10
-0.049, -6.753e-10
-0.048, -5.123e-10
-0.047, -7.831e-10
-0.046, -6.897e-10
-0.045, -7.754e-10
-0.044, -9.306e-10
-0.043, -8.079e-10
-0.042, -1.058e-9
-0.041, -9.933e-10
-0.040, -1.081e-9
-0.039, -1.242e-9
-0.038, -1.136e-9
-0.037, -1.408e-9
-0.036, -1.328e-9
-0.035, -1.449e-9
-0.034, -1.621e-9
-0.033, -1.517e-9
-0.032, -1.804e-9
-0.031, -1.743e-9
-0.030, -1.894e-9
-0.029, -2.060e-9
-0.028, -1.986e-9
-0.027, -2.285e-9
-0.026, -2.242e-9
-0.025, -2.409e-9
-0.024, -2.584e-9
-0.023, -2.528e-9
-0.022, -2.858e-9
-0.021, -2.811e-9
-0.020, -3.009e-9
-0.019, -3.219e-9
-0.018, -3.167e-9
-0.017, -3.536e-9
-0.016, -3.499e-9
-0.015, -3.697e-9
-0.014, -3.967e-9
-0.013, -3.924e-9
-0.012, -4.319e-9
-0.011, -4.320e-9
-0.010, -4.547e-9
-0.009, -4.829e-9
-0.008, -4.833e-9
-0.007, -5.230e-9
-0.006, -5.287e-9
-0.005, -5.538e-9
-0.004, -5.843e-9
-0.003, -5.875e-9
-0.002, -6.320e-9
-0.001, -6.404e-9
-0.000, -6.801e-9
0.001, -7.068e-9
0.002, -7.148e-9
0.003, -7.601e-9
0.004, -7.743e-9
0.005, -8.067e-9
0.006, -8.416e-9
0.007, -8.575e-9
0.008, -9.037e-9
0.009, -9.219e-9
0.010, -9.614e-9
0.011, -9.994e-9
0.012, -1.018e-8
0.013, -1.073e-8
0.014, -1.091e-8
0.015, -1.136e-8
0.016, -1.180e-8
0.017, -1.201e-8
0.018, -1.260e-8
0.019, -1.284e-8
0.020, -1.330e-8
0.021, -1.380e-8
0.022, -1.404e-8
0.023, -1.469e-8
0.024, -1.498e-8
0.025, -1.551e-8
0.026, -1.604e-8
0.027, -1.632e-8
0.028, -1.700e-8
0.029, -1.730e-8
0.030, -1.786e-8
0.031, -1.845e-8
0.032, -1.873e-8
0.033, -1.945e-8
0.034, -1.983e-8
0.035, -2.035e-8
0.036, -2.098e-8
0.037, -2.132e-8
0.038, -2.203e-8
0.039, -2.247e-8
0.040, -2.301e-8
0.041, -2.362e-8
0.042, -2.403e-8
0.043, -2.472e-8
0.044, -2.513e-8
0.045, -2.571e-8
0.046, -2.632e-8
0.047, -2.670e-8
0.048, -2.740e-8
0.049, -2.779e-8
0.050, -2.839e-8
0.051, -2.897e-8
0.052, -2.934e-8
0.053, -3.000e-8
0.054, -3.039e-8
0.055, -3.097e-8
0.056, -3.148e-8
0.057, -3.183e-8
0.058, -3.249e-8
0.059, -3.277e-8
0.060, -3.334e-8
0.061, -3.380e-8
0.062, -3.405e-8
0.063, -3.473e-8
0.064, -3.494e-8
0.065, -3.539e-8
0.066, -3.586e-8
0.067, -3.604e-8
0.068, -3.661e-8
0.069, -3.676e-8
0.070, -3.715e-8
0.071, -3.755e-8
0.072, -3.765e-8
0.073, -3.812e-8
0.074, -3.826e-8
0.075, -3.853e-8
0.076, -3.889e-8
0.077, -3.893e-8
0.078, -3.931e-8
0.079, -3.938e-8
0.080, -3.957e-8
0.081, -3.982e-8
0.082, -3.980e-8
0.083, -4.008e-8
0.084, -4.008e-8
0.085, -4.022e-8
0.086, -4.035e-8
0.087, -4.032e-8
0.088, -4.051e-8
0.089, -4.043e-8
0.090, -4.054e-8
0.091, -4.059e-8
0.092, -4.045e-8
0.093, -4.063e-8
0.094, -4.046e-8
0.095, -4.051e-8
0.096, -4.052e-8
0.097, -4.032e-8
0.098, -4.046e-8
0.099, -4.021e-8
0.100, -4.023e-8
0.101, -4.019e-8
0.102, -3.996e-8
0.103, -4.009e-8
0.104, -3.979e-8
0.105, -3.974e-8
0.106, -3.971e-8
0.107, -3.938e-8
0.108, -3.948e-8
0.109, -3.917e-8
0.110, -3.909e-8
0.111, -3.904e-8
0.112, -3.868e-8
0.113, -3.875e-8
0.114, -3.844e-8
0.115, -3.834e-8
0.116, -3.826e-8
0.117, -3.792e-8
0.118, -3.794e-8
0.119, -3.764e-8
0.120, -3.750e-8
0.121, -3.741e-8
0.122, -3.709e-8
0.123, -3.709e-8
0.124, -3.678e-8
0.125, -3.664e-8
0.126, -3.654e-8
0.127, -3.622e-8
0.128, -3.624e-8
0.129, -3.589e-8
0.130, -3.581e-8
0.131, -3.567e-8
0.132, -3.535e-8
0.133, -3.538e-8
0.134, -3.503e-8
0.135, -3.495e-8
0.136, -3.482e-8
0.137, -3.449e-8
0.138, -3.454e-8
0.139, -3.419e-8
0.140, -3.411e-8
0.141, -3.401e-8
0.142, -3.367e-8
0.143, -3.374e-8
0.144, -3.338e-8
0.145, -3.330e-8
0.146, -3.322e-8
0.147, -3.288e-8
0.148, -3.294e-8
0.149, -3.262e-8
0.150, -3.254e-8
0.151, -3.247e-8
0.152, -3.213e-8
0.153, -3.222e-8
0.154, -3.191e-8
0.155, -3.182e-8
0.156, -3.176e-8
0.157, -3.145e-8
0.158, -3.151e-8
0.159, -3.124e-8
0.160, -3.115e-8
0.161, -3.109e-8
0.162, -3.080e-8
0.163, -3.088e-8
0.164, -3.058e-8
0.165, -3.054e-8
0.166, -3.047e-8
0.167, -3.019e-8
0.168, -3.029e-8
0.169, -2.999e-8
0.170, -2.996e-8
0.171, -2.991e-8
0.172, -2.962e-8
0.173, -2.974e-8
0.174, -2.945e-8
0.175, -2.942e-8
0.176, -2.937e-8
0.177, -2.911e-8
0.178, -2.923e-8
0.179, -2.895e-8
0.180, -2.894e-8
0.181, -2.891e-8
0.182, -2.863e-8
0.183, -2.878e-8
0.184, -2.848e-8
0.185, -2.848e-8
0.186, -2.847e-8
0.187, -2.819e-8
0.188, -2.833e-8
0.189, -2.808e-8
0.190, -2.805e-8
0.191, -2.806e-8
0.192, -2.780e-8
0.193, -2.793e-8
0.194, -2.769e-8
0.195, -2.769e-8
0.196, -2.767e-8
0.197, -2.743e-8
0.198, -2.758e-8
0.199, -2.733e-8
0.200, -2.733e-8
0.201, -2.733e-8
0.202, -2.710e-8
0.203, -2.724e-8
0.204, -2.702e-8
0.205, -2.702e-8
0.206, -2.702e-8
0.207, -2.681e-8
0.208, -2.693e-8
0.209, -2.671e-8
0.210, -2.674e-8
0.211, -2.671e-8
0.212, -2.651e-8
0.213, -2.668e-8
0.214, -2.641e-8
0.215, -2.647e-8
0.216, -2.646e-8
0.217, -2.624e-8
0.218, -2.642e-8
0.219, -2.618e-8
0.220, -2.620e-8
0.221, -2.623e-8
0.222, -2.601e-8
0.223, -2.617e-8
0.224, -2.595e-8
0.225, -2.598e-8
0.226, -2.600e-8
0.227, -2.579e-8
0.228, -2.597e-8
0.229, -2.574e-8
0.230, -2.579e-8
0.231, -2.582e-8
0.232, -2.559e-8
0.233, -2.577e-8
0.234, -2.557e-8
0.235, -2.558e-8
0.236, -2.563e-8
0.237, -2.543e-8
0.238, -2.559e-8
0.239, -2.541e-8
0.240, -2.543e-8
0.241, -2.544e-8
0.242, -2.528e-8
0.243, -2.545e-8
0.244, -2.523e-8
0.245, -2.530e-8
0.246, -2.531e-8
0.247, -2.513e-8
0.248, -2.530e-8
0.249, -2.510e-8
0.250, -2.516e-8
0.251, -2.519e-8
0.252, -2.500e-8
0.253, -2.518e-8
0.254, -2.498e-8
0.255, -2.505e-8
0.256, -2.507e-8
0.257, -2.488e-8
0.258, -2.509e-8
0.259, -2.486e-8
0.260, -2.495e-8
0.261, -2.497e-8
0.262, -2.478e-8
0.263, -2.499e-8
0.264, -2.478e-8
0.265, -2.484e-8
0.266, -2.490e-8
0.267, -2.470e-8
0.268, -2.490e-8
0.269, -2.472e-8
0.270, -2.477e-8
0.271, -2.482e-8
0.272, -2.463e-8
0.273, -2.483e-8
0.274, -2.465e-8
0.275, -2.471e-8
0.276, -2.476e-8
0.277, -2.458e-8
0.278, -2.477e-8
0.279, -2.460e-8
0.280, -2.465e-8
0.281, -2.472e-8
0.282, -2.454e-8
0.283, -2.473e-8
0.284, -2.455e-8
0.285, -2.463e-8
0.286, -2.467e-8
0.287, -2.452e-8
0.288, -2.470e-8
0.289, -2.453e-8
0.290, -2.462e-8
0.291, -2.465e-8
0.292, -2.449e-8
0.293, -2.471e-8
0.294, -2.451e-8
0.295, -2.461e-8
0.296, -2.465e-8
0.297, -2.449e-8
0.298, -2.471e-8
0.299, -2.452e-8
0.300, -2.226e-8
0.299, -2.086e-8
0.298, -2.033e-8
0.297, -2.026e-8
0.296, -1.986e-8
0.295, -1.974e-8
0.294, -1.962e-8
0.293, -1.931e-8
0.292, -1.937e-8
0.291, -1.908e-8
0.290, -1.903e-8
0.289, -1.896e-8
0.288, -1.870e-8
0.287, -1.880e-8
0.286, -1.852e-8
0.285, -1.852e-8
0.284, -1.846e-8
0.283, -1.822e-8
0.282, -1.836e-8
0.281, -1.808e-8
0.280, -1.811e-8
0.279, -1.807e-8
0.278, -1.784e-8
0.277, -1.799e-8
0.276, -1.773e-8
0.275, -1.776e-8
0.274, -1.774e-8
0.273, -1.751e-8
0.272, -1.768e-8
0.271, -1.743e-8
0.270, -1.745e-8
0.269, -1.745e-8
0.268, -1.722e-8
0.267, -1.740e-8
0.266, -1.716e-8
0.265, -1.718e-8
0.264, -1.719e-8
0.263, -1.698e-8
0.262, -1.714e-8
0.261, -1.691e-8
0.260, -1.694e-8
0.259, -1.696e-8
0.258, -1.675e-8
0.257, -1.690e-8
0.256, -1.669e-8
0.255, -1.674e-8
0.254, -1.673e-8
0.253, -1.654e-8
0.252, -1.669e-8
0.251, -1.648e-8
0.250, -1.653e-8
0.249, -1.652e-8
0.248, -1.634e-8
0.247, -1.651e-8
0.246, -1.629e-8
0.245, -1.634e-8
0.244, -1.634e-8
0.243, -1.615e-8
0.242, -1.633e-8
0.241, -1.609e-8
0.240, -1.616e-8
0.239, -1.616e-8
0.238, -1.596e-8
0.237, -1.616e-8
0.236, -1.591e-8
0.235, -1.598e-8
0.234, -1.600e-8
0.233, -1.578e-8
0.232, -1.598e-8
0.231, -1.574e-8
0.230, -1.580e-8
0.229, -1.583e-8
0.228, -1.562e-8
0.227, -1.581e-8
0.226, -1.560e-8
0.225, -1.563e-8
0.224, -1.566e-8
0.223, -1.547e-8
0.222, -1.563e-8
0.221, -1.542e-8
0.220, -1.547e-8
0.219, -1.549e-8
0.218, -1.529e-8
0.217, -1.548e-8
0.216, -1.526e-8
0.215, -1.532e-8
0.214, -1.534e-8
0.213, -1.513e-8
0.212, -1.530e-8
0.211, -1.510e-8
0.210, -1.514e-8
0.209, -1.515e-8
0.208, -1.497e-8
0.207, -1.513e-8
0.206, -1.491e-8
0.205, -1.497e-8
0.204, -1.495e-8
0.203, -1.479e-8
0.202, -1.497e-8
0.201, -1.471e-8
0.200, -1.479e-8
0.199, -1.480e-8
0.198, -1.458e-8
0.197, -1.478e-8
0.196, -1.454e-8
0.195, -1.459e-8
0.194, -1.460e-8
0.193, -1.440e-8
0.192, -1.457e-8
0.191, -1.434e-8
0.190, -1.439e-8
0.189, -1.439e-8
0.188, -1.418e-8
0.187, -1.437e-8
0.186, -1.413e-8
0.185, -1.416e-8
0.184, -1.417e-8
0.183, -1.394e-8
0.182, -1.413e-8
0.181, -1.389e-8
0.180, -1.391e-8
0.179, -1.391e-8
0.178, -1.371e-8
0.177, -1.384e-8
0.176, -1.362e-8
0.175, -1.366e-8
0.174, -1.362e-8
0.173, -1.343e-8
0.172, -1.356e-8
0.171, -1.331e-8
0.170, -1.336e-8
0.169, -1.331e-8
0.168, -1.310e-8
0.167, -1.324e-8
0.166, -1.298e-8
0.165, -1.299e-8
0.164, -1.295e-8
0.163, -1.274e-8
0.162, -1.285e-8
0.161, -1.258e-8
0.160, -1.261e-8
0.159, -1.254e-8
0.158, -1.231e-8
0.157, -1.243e-8
0.156, -1.212e-8
0.155, -1.214e-8
0.154, -1.207e-8
0.153, -1.180e-8
0.152, -1.192e-8
0.151, -1.161e-8
0.150, -1.159e-8
0.149, -1.153e-8
0.148, -1.123e-8
0.147, -1.134e-8
0.146, -1.101e-8
0.145, -1.097e-8
0.144, -1.088e-8
0.143, -1.059e-8
0.142, -1.065e-8
0.141, -1.030e-8
0.140, -1.023e-8
0.139, -1.013e-8
0.138, -9.817e-9
0.137, -9.832e-9
0.136, -9.490e-9
0.135, -9.401e-9
0.134, -9.246e-9
0.133, -8.925e-9
0.132, -8.903e-9
0.131, -8.554e-9
0.130, -8.431e-9
0.129, -8.236e-9
0.128, -7.874e-9
0.127, -7.848e-9
0.126, -7.420e-9
0.125, -7.295e-9
0.124, -7.056e-9
0.123, -6.669e-9
0.122, -6.617e-9
0.121, -6.133e-9
0.120, -5.975e-9
0.119, -5.718e-9
0.118, -5.288e-9
0.117, -5.188e-9
0.116, -4.675e-9
0.115, -4.485e-9
0.114, -4.186e-9
0.113, -3.684e-9
0.112, -3.583e-9
0.111, -3.033e-9
0.110, -2.775e-9
0.109, -2.449e-9
0.108, -1.909e-9
0.107, -1.746e-9
0.106, -1.175e-9
0.105, -8.569e-10
0.104, -4.874e-10
0.103, 9.898e-11
0.102, 3.135e-10
0.101, 9.278e-10
0.100, 1.287e-9
0.099, 1.688e-9
0.098, 2.294e-9
0.097, 2.566e-9
0.096, 3.210e-9
0.095, 3.596e-9
0.094, 4.056e-9
0.093, 4.657e-9
0.092, 4.987e-9
0.091, 5.662e-9
0.090, 6.081e-9
0.089, 6.587e-9
0.088, 7.214e-9
0.087, 7.568e-9
0.086, 8.247e-9
0.085, 8.690e-9
0.084, 9.246e-9
0.083, 9.867e-9
0.082, 1.022e-8
0.081, 1.097e-8
0.080, 1.136e-8
0.079, 1.190e-8
0.078, 1.257e-8
0.077, 1.291e-8
0.076, 1.366e-8
0.075, 1.405e-8
0.074, 1.458e-8
0.073, 1.523e-8
0.072, 1.556e-8
0.071, 1.627e-8
0.070, 1.665e-8
0.069, 1.715e-8
0.068, 1.781e-8
0.067, 1.806e-8
0.066, 1.874e-8
0.065, 1.910e-8
0.064, 1.956e-8
0.063, 2.015e-8
0.062, 2.037e-8
0.061, 2.097e-8
0.060, 2.133e-8
0.059, 2.168e-8
0.058, 2.219e-8
0.057, 2.242e-8
0.056, 2.293e-8
0.055, 2.319e-8
0.054, 2.353e-8
0.053, 2.393e-8
0.052, 2.410e-8
0.051, 2.457e-8
0.050, 2.473e-8
0.049, 2.502e-8
0.048, 2.535e-8
0.047, 2.541e-8
0.046, 2.580e-8
0.045, 2.588e-8
0.044, 2.610e-8
0.043, 2.634e-8
0.042, 2.634e-8
0.041, 2.666e-8
0.040, 2.667e-8
0.039, 2.680e-8
0.038, 2.700e-8
0.037, 2.690e-8
0.036, 2.718e-8
0.035, 2.708e-8
0.034, 2.715e-8
0.033, 2.732e-8
0.032, 2.712e-8
0.031, 2.734e-8
0.030, 2.722e-8
0.029, 2.718e-8
0.028, 2.731e-8
0.027, 2.706e-8
0.026, 2.722e-8
0.025, 2.708e-8
0.024, 2.697e-8
0.023, 2.704e-8
0.022, 2.678e-8
0.021, 2.686e-8
0.020, 2.667e-8
0.019, 2.655e-8
0.018, 2.658e-8
0.017, 2.627e-8
0.016, 2.634e-8
0.015, 2.611e-8
0.014, 2.597e-8
0.013, 2.597e-8
0.012, 2.565e-8
0.011, 2.565e-8
0.010, 2.543e-8
0.009, 2.527e-8
0.008, 2.523e-8
0.007, 2.489e-8
0.006, 2.492e-8
0.005, 2.463e-8
0.004, 2.450e-8
0.003, 2.443e-8
0.002, 2.406e-8
0.001, 2.412e-8
0.000, 2.392e-8
-0.001, 2.366e-8
-0.002, 2.364e-8
-0.003, 2.324e-8
-0.004, 2.329e-8
-0.005, 2.298e-8
-0.006, 2.279e-8
-0.007, 2.277e-8
-0.008, 2.240e-8
-0.009, 2.243e-8
-0.010, 2.214e-8
-0.011, 2.197e-8
-0.012, 2.195e-8
-0.013, 2.155e-8
-0.014, 2.160e-8
-0.015, 2.132e-8
-0.016, 2.113e-8
-0.017, 2.113e-8
-0.018, 2.075e-8
-0.019, 2.078e-8
-0.020, 2.054e-8
-0.021, 2.035e-8
-0.022, 2.033e-8
-0.023, 2.000e-8
-0.024, 2.003e-8
-0.025, 1.977e-8
-0.026, 1.962e-8
-0.027, 1.960e-8
-0.028, 1.925e-8
-0.029, 1.931e-8
-0.030, 1.904e-8
-0.031, 1.890e-8
-0.032, 1.891e-8
-0.033, 1.855e-8
-0.034, 1.863e-8
-0.035, 1.838e-8
-0.036, 1.824e-8
-0.037, 1.823e-8
-0.038, 1.792e-8
-0.039, 1.799e-8
-0.040, 1.774e-8
-0.041, 1.762e-8
-0.042, 1.763e-8
-0.043, 1.730e-8
-0.044, 1.742e-8
-0.045, 1.714e-8
-0.046, 1.703e-8
-0.047, 1.707e-8
-0.048, 1.673e-8
-0.049, 1.684e-8
-0.050, 1.663e-8
-0.051, 1.650e-8
-0.052, 1.654e-8
-0.053, 1.621e-8
-0.054, 1.632e-8
-0.055, 1.611e-8
-0.056, 1.600e-8
-0.057, 1.604e-8
-0.058, 1.573e-8
-0.059, 1.585e-8
-0.060, 1.564e-8
-0.061, 1.553e-8
-0.062, 1.558e-8
-0.063, 1.530e-8
-0.064, 1.541e-8
-0.065, 1.521e-8
-0.066, 1.512e-8
-0.067, 1.516e-8
-0.068, 1.489e-8
-0.069, 1.500e-8
-0.070, 1.480e-8
-0.071, 1.473e-8
-0.072, 1.478e-8
-0.073, 1.450e-8
-0.074, 1.464e-8
-0.075, 1.443e-8
-0.076, 1.437e-8
-0.077, 1.443e-8
-0.078, 1.414e-8
-0.079, 1.430e-8
-0.080, 1.409e-8
-0.081, 1.403e-8
-0.082, 1.411e-8
-0.083, 1.382e-8
-0.084, 1.399e-8
-0.085, 1.377e-8
-0.086, 1.372e-8
-0.087, 1.380e-8
-0.088, 1.352e-8
-0.089, 1.368e-8
-0.090, 1.350e-8
-0.091, 1.343e-8
-0.092, 1.353e-8
-0.093, 1.324e-8
-0.094, 1.340e-8
-0.095, 1.324e-8
-0.096, 1.317e-8
-0.097, 1.325e-8
-0.098, 1.300e-8
-0.099, 1.315e-8
-0.100, 1.299e-8
-0.101, 1.293e-8
-0.102, 1.302e-8
-0.103, 1.277e-8
-0.104, 1.292e-8
-0.105, 1.275e-8
-0.106, 1.270e-8
-0.107, 1.279e-8
-0.108, 1.255e-8
-0.109, 1.270e-8
-0.110, 1.253e-8
-0.111, 1.251e-8
-0.112, 1.258e-8
-0.113, 1.235e-8
-0.114, 1.251e-8
-0.115, 1.234e-8
-0.116, 1.233e-8
-0.117, 1.239e-8
-0.118, 1.215e-8
-0.119, 1.234e-8
-0.120, 1.216e-8
-0.121, 1.213e-8
-0.122, 1.224e-8
-0.123, 1.199e-8
-0.124, 1.217e-8
-0.125, 1.200e-8
-0.126, 1.197e-8
-0.127, 1.208e-8
-0.128, 1.184e-8
-0.129, 1.201e-8
-0.130, 1.185e-8
-0.131, 1.182e-8
-0.132, 1.193e-8
-0.133, 1.168e-8
-0.134, 1.187e-8
-0.135, 1.172e-8
-0.136, 1.168e-8
-0.137, 1.179e-8
-0.138, 1.156e-8
-0.139, 1.173e-8
-0.140, 1.160e-8
-0.141, 1.155e-8
-0.142, 1.166e-8
-0.143, 1.144e-8
-0.144, 1.161e-8
-0.145, 1.146e-8
-0.146, 1.145e-8
-0.147, 1.154e-8
-0.148, 1.133e-8
-0.149, 1.150e-8
-0.150, 1.135e-8
-0.151, 1.135e-8
-0.152, 1.144e-8
-0.153, 1.122e-8
-0.154, 1.142e-8
-0.155, 1.126e-8
-0.156, 1.125e-8
-0.157, 1.135e-8
-0.158, 1.113e-8
-0.159, 1.133e-8
-0.160, 1.117e-8
-0.161, 1.116e-8
-0.162, 1.127e-8
-0.163, 1.105e-8
-0.164, 1.126e-8
-0.165, 1.108e-8
-0.166, 1.109e-8
-0.167, 1.120e-8
-0.168, 1.096e-8
-0.169, 1.119e-8
-0.170, 1.103e-8
-0.171, 1.101e-8
-0.172, 1.115e-8
-0.173, 1.091e-8
-0.174, 1.111e-8
-0.175, 1.098e-8
-0.176, 1.096e-8
-0.177, 1.107e-8
-0.178, 1.087e-8
-0.179, 1.107e-8
-0.180, 1.092e-8
-0.181, 1.092e-8
-0.182, 1.104e-8
-0.183, 1.082e-8
-0.184, 1.102e-8
-0.185, 1.088e-8
-0.186, 1.088e-8
-0.187, 1.100e-8
-0.188, 1.080e-8
-0.189, 1.098e-8
-0.190, 1.086e-8
-0.191, 1.086e-8
-0.192, 1.096e-8
-0.193, 1.078e-8
-0.194, 1.097e-8
-0.195, 1.082e-8
-0.196, 1.085e-8
-0.197, 1.095e-8
-0.198, 1.074e-8
-0.199, 1.098e-8
