Mar. 16, 2023   09:20:46
Cyclic Voltammetry
File: c:/users/oliverrz/desktop/electrolab/data/2023_03_16\fcmeoh_macros_500_um\electrode3_cv_100mvs_500_um.bin
Data Source:  Experiment
Instrument Model:  CHI760E
Header: CV
Note: 

Init E (V) = -0.2
High E (V) = 0.3
Low E (V) = -0.2
Final E (V) = -0.2
Init P/N = P
Scan Rate (V/s) = 0.1
Segment = 3
Sample Interval (V) = 0.001
Quiet Time (sec) = 2
Sensitivity (A/V) = 1e-7

Results:

Channel 1:
Segment 1:
Ep = 0.089V
ip = -3.268e-8A
Ah = -2.069e-8C

Segment 2:
Ep = 0.025V
ip = 3.093e-8A
Ah = 1.891e-8C

Segment 3:

Potential/V, Current/A

-0.200, 3.168e-9
-0.199, 2.707e-9
-0.198, 2.668e-9
-0.197, 2.601e-9
-0.196, 2.542e-9
-0.195, 2.573e-9
-0.194, 2.476e-9
-0.193, 2.507e-9
-0.192, 2.458e-9
-0.191, 2.413e-9
-0.190, 2.450e-9
-0.189, 2.357e-9
-0.188, 2.391e-9
-0.187, 2.350e-9
-0.186, 2.308e-9
-0.185, 2.344e-9
-0.184, 2.258e-9
-0.183, 2.294e-9
-0.182, 2.253e-9
-0.181, 2.214e-9
-0.180, 2.251e-9
-0.179, 2.162e-9
-0.178, 2.206e-9
-0.177, 2.165e-9
-0.176, 2.126e-9
-0.175, 2.168e-9
-0.174, 2.080e-9
-0.173, 2.123e-9
-0.172, 2.085e-9
-0.171, 2.045e-9
-0.170, 2.090e-9
-0.169, 2.002e-9
-0.168, 2.047e-9
-0.167, 2.009e-9
-0.166, 1.969e-9
-0.165, 2.017e-9
-0.164, 1.928e-9
-0.163, 1.976e-9
-0.162, 1.943e-9
-0.161, 1.901e-9
-0.160, 1.953e-9
-0.159, 1.863e-9
-0.158, 1.910e-9
-0.157, 1.878e-9
-0.156, 1.839e-9
-0.155, 1.889e-9
-0.154, 1.801e-9
-0.153, 1.845e-9
-0.152, 1.820e-9
-0.151, 1.778e-9
-0.150, 1.828e-9
-0.149, 1.746e-9
-0.148, 1.789e-9
-0.147, 1.762e-9
-0.146, 1.724e-9
-0.145, 1.774e-9
-0.144, 1.694e-9
-0.143, 1.736e-9
-0.142, 1.706e-9
-0.141, 1.670e-9
-0.140, 1.719e-9
-0.139, 1.640e-9
-0.138, 1.686e-9
-0.137, 1.655e-9
-0.136, 1.620e-9
-0.135, 1.671e-9
-0.134, 1.586e-9
-0.133, 1.634e-9
-0.132, 1.603e-9
-0.131, 1.567e-9
-0.130, 1.620e-9
-0.129, 1.534e-9
-0.128, 1.580e-9
-0.127, 1.554e-9
-0.126, 1.516e-9
-0.125, 1.571e-9
-0.124, 1.485e-9
-0.123, 1.533e-9
-0.122, 1.508e-9
-0.121, 1.464e-9
-0.120, 1.521e-9
-0.119, 1.437e-9
-0.118, 1.484e-9
-0.117, 1.458e-9
-0.116, 1.414e-9
-0.115, 1.469e-9
-0.114, 1.388e-9
-0.113, 1.428e-9
-0.112, 1.408e-9
-0.111, 1.365e-9
-0.110, 1.416e-9
-0.109, 1.336e-9
-0.108, 1.377e-9
-0.107, 1.354e-9
-0.106, 1.313e-9
-0.105, 1.363e-9
-0.104, 1.286e-9
-0.103, 1.320e-9
-0.102, 1.296e-9
-0.101, 1.254e-9
-0.100, 1.303e-9
-0.099, 1.227e-9
-0.098, 1.262e-9
-0.097, 1.237e-9
-0.096, 1.197e-9
-0.095, 1.245e-9
-0.094, 1.161e-9
-0.093, 1.201e-9
-0.092, 1.171e-9
-0.091, 1.128e-9
-0.090, 1.177e-9
-0.089, 1.087e-9
-0.088, 1.129e-9
-0.087, 1.098e-9
-0.086, 1.052e-9
-0.085, 1.102e-9
-0.084, 1.010e-9
-0.083, 1.047e-9
-0.082, 1.017e-9
-0.081, 9.636e-10
-0.080, 1.013e-9
-0.079, 9.176e-10
-0.078, 9.546e-10
-0.077, 9.224e-10
-0.076, 8.633e-10
-0.075, 9.132e-10
-0.074, 8.167e-10
-0.073, 8.440e-10
-0.072, 8.128e-10
-0.071, 7.522e-10
-0.070, 7.922e-10
-0.069, 6.997e-10
-0.068, 7.187e-10
-0.067, 6.863e-10
-0.066, 6.206e-10
-0.065, 6.609e-10
-0.064, 5.537e-10
-0.063, 5.742e-10
-0.062, 5.352e-10
-0.061, 4.667e-10
-0.060, 4.953e-10
-0.059, 3.956e-10
-0.058, 4.087e-10
-0.057, 3.636e-10
-0.056, 2.921e-10
-0.055, 3.149e-10
-0.054, 2.068e-10
-0.053, 2.155e-10
-0.052, 1.595e-10
-0.051, 8.045e-11
-0.050, 1.003e-10
-0.049, -2.046e-11
-0.048, -1.849e-11
-0.047, -7.707e-11
-0.046, -1.672e-10
-0.045, -1.522e-10
-0.044, -2.824e-10
-0.043, -2.917e-10
-0.042, -3.583e-10
-0.041, -4.604e-10
-0.040, -4.543e-10
-0.039, -5.948e-10
-0.038, -6.170e-10
-0.037, -6.924e-10
-0.036, -8.081e-10
-0.035, -8.134e-10
-0.034, -9.625e-10
-0.033, -9.997e-10
-0.032, -1.086e-9
-0.031, -1.213e-9
-0.030, -1.235e-9
-0.029, -1.398e-9
-0.028, -1.451e-9
-0.027, -1.550e-9
-0.026, -1.698e-9
-0.025, -1.744e-9
-0.024, -1.915e-9
-0.023, -1.993e-9
-0.022, -2.110e-9
-0.021, -2.271e-9
-0.020, -2.336e-9
-0.019, -2.524e-9
-0.018, -2.619e-9
-0.017, -2.764e-9
-0.016, -2.942e-9
-0.015, -3.029e-9
-0.014, -3.247e-9
-0.013, -3.363e-9
-0.012, -3.529e-9
-0.011, -3.731e-9
-0.010, -3.840e-9
-0.009, -4.090e-9
-0.008, -4.222e-9
-0.007, -4.419e-9
-0.006, -4.659e-9
-0.005, -4.793e-9
-0.004, -5.073e-9
-0.003, -5.237e-9
-0.002, -5.466e-9
-0.001, -5.734e-9
-0.000, -5.956e-9
0.001, -6.253e-9
0.002, -6.444e-9
0.003, -6.692e-9
0.004, -6.998e-9
0.005, -7.196e-9
0.006, -7.539e-9
0.007, -7.783e-9
0.008, -8.064e-9
0.009, -8.412e-9
0.010, -8.646e-9
0.011, -9.017e-9
0.012, -9.304e-9
0.013, -9.627e-9
0.014, -1.000e-8
0.015, -1.028e-8
0.016, -1.068e-8
0.017, -1.100e-8
0.018, -1.136e-8
0.019, -1.176e-8
0.020, -1.208e-8
0.021, -1.251e-8
0.022, -1.287e-8
0.023, -1.326e-8
0.024, -1.369e-8
0.025, -1.405e-8
0.026, -1.452e-8
0.027, -1.490e-8
0.028, -1.533e-8
0.029, -1.578e-8
0.030, -1.615e-8
0.031, -1.665e-8
0.032, -1.704e-8
0.033, -1.748e-8
0.034, -1.797e-8
0.035, -1.834e-8
0.036, -1.886e-8
0.037, -1.926e-8
0.038, -1.972e-8
0.039, -2.021e-8
0.040, -2.058e-8
0.041, -2.109e-8
0.042, -2.150e-8
0.043, -2.194e-8
0.044, -2.244e-8
0.045, -2.280e-8
0.046, -2.331e-8
0.047, -2.371e-8
0.048, -2.413e-8
0.049, -2.459e-8
0.050, -2.496e-8
0.051, -2.543e-8
0.052, -2.582e-8
0.053, -2.619e-8
0.054, -2.663e-8
0.055, -2.694e-8
0.056, -2.737e-8
0.057, -2.771e-8
0.058, -2.805e-8
0.059, -2.844e-8
0.060, -2.872e-8
0.061, -2.908e-8
0.062, -2.937e-8
0.063, -2.968e-8
0.064, -3.000e-8
0.065, -3.023e-8
0.066, -3.055e-8
0.067, -3.076e-8
0.068, -3.101e-8
0.069, -3.127e-8
0.070, -3.143e-8
0.071, -3.169e-8
0.072, -3.184e-8
0.073, -3.203e-8
0.074, -3.222e-8
0.075, -3.232e-8
0.076, -3.252e-8
0.077, -3.261e-8
0.078, -3.273e-8
0.079, -3.288e-8
0.080, -3.290e-8
0.081, -3.305e-8
0.082, -3.308e-8
0.083, -3.313e-8
0.084, -3.323e-8
0.085, -3.319e-8
0.086, -3.328e-8
0.087, -3.327e-8
0.088, -3.326e-8
0.089, -3.331e-8
0.090, -3.324e-8
0.091, -3.328e-8
0.092, -3.322e-8
0.093, -3.316e-8
0.094, -3.317e-8
0.095, -3.306e-8
0.096, -3.304e-8
0.097, -3.296e-8
0.098, -3.288e-8
0.099, -3.285e-8
0.100, -3.270e-8
0.101, -3.267e-8
0.102, -3.256e-8
0.103, -3.246e-8
0.104, -3.240e-8
0.105, -3.223e-8
0.106, -3.218e-8
0.107, -3.203e-8
0.108, -3.191e-8
0.109, -3.183e-8
0.110, -3.165e-8
0.111, -3.159e-8
0.112, -3.142e-8
0.113, -3.129e-8
0.114, -3.121e-8
0.115, -3.101e-8
0.116, -3.094e-8
0.117, -3.076e-8
0.118, -3.063e-8
0.119, -3.054e-8
0.120, -3.033e-8
0.121, -3.026e-8
0.122, -3.009e-8
0.123, -2.994e-8
0.124, -2.986e-8
0.125, -2.965e-8
0.126, -2.957e-8
0.127, -2.941e-8
0.128, -2.926e-8
0.129, -2.918e-8
0.130, -2.898e-8
0.131, -2.890e-8
0.132, -2.874e-8
0.133, -2.859e-8
0.134, -2.851e-8
0.135, -2.831e-8
0.136, -2.824e-8
0.137, -2.809e-8
0.138, -2.795e-8
0.139, -2.787e-8
0.140, -2.768e-8
0.141, -2.762e-8
0.142, -2.747e-8
0.143, -2.733e-8
0.144, -2.726e-8
0.145, -2.708e-8
0.146, -2.702e-8
0.147, -2.687e-8
0.148, -2.675e-8
0.149, -2.668e-8
0.150, -2.650e-8
0.151, -2.646e-8
0.152, -2.631e-8
0.153, -2.620e-8
0.154, -2.614e-8
0.155, -2.597e-8
0.156, -2.593e-8
0.157, -2.579e-8
0.158, -2.568e-8
0.159, -2.563e-8
0.160, -2.546e-8
0.161, -2.543e-8
0.162, -2.531e-8
0.163, -2.520e-8
0.164, -2.516e-8
0.165, -2.500e-8
0.166, -2.497e-8
0.167, -2.486e-8
0.168, -2.476e-8
0.169, -2.473e-8
0.170, -2.457e-8
0.171, -2.455e-8
0.172, -2.444e-8
0.173, -2.434e-8
0.174, -2.432e-8
0.175, -2.417e-8
0.176, -2.415e-8
0.177, -2.405e-8
0.178, -2.396e-8
0.179, -2.394e-8
0.180, -2.380e-8
0.181, -2.378e-8
0.182, -2.369e-8
0.183, -2.361e-8
0.184, -2.359e-8
0.185, -2.346e-8
0.186, -2.345e-8
0.187, -2.336e-8
0.188, -2.328e-8
0.189, -2.327e-8
0.190, -2.314e-8
0.191, -2.314e-8
0.192, -2.306e-8
0.193, -2.298e-8
0.194, -2.298e-8
0.195, -2.285e-8
0.196, -2.285e-8
0.197, -2.277e-8
0.198, -2.269e-8
0.199, -2.270e-8
0.200, -2.257e-8
0.201, -2.258e-8
0.202, -2.251e-8
0.203, -2.244e-8
0.204, -2.245e-8
0.205, -2.233e-8
0.206, -2.234e-8
0.207, -2.227e-8
0.208, -2.221e-8
0.209, -2.222e-8
0.210, -2.210e-8
0.211, -2.212e-8
0.212, -2.205e-8
0.213, -2.199e-8
0.214, -2.201e-8
0.215, -2.189e-8
0.216, -2.191e-8
0.217, -2.185e-8
0.218, -2.179e-8
0.219, -2.181e-8
0.220, -2.170e-8
0.221, -2.172e-8
0.222, -2.166e-8
0.223, -2.160e-8
0.224, -2.162e-8
0.225, -2.152e-8
0.226, -2.154e-8
0.227, -2.149e-8
0.228, -2.143e-8
0.229, -2.145e-8
0.230, -2.136e-8
0.231, -2.138e-8
0.232, -2.133e-8
0.233, -2.127e-8
0.234, -2.130e-8
0.235, -2.120e-8
0.236, -2.123e-8
0.237, -2.118e-8
0.238, -2.113e-8
0.239, -2.116e-8
0.240, -2.106e-8
0.241, -2.109e-8
0.242, -2.104e-8
0.243, -2.100e-8
0.244, -2.103e-8
0.245, -2.093e-8
0.246, -2.096e-8
0.247, -2.092e-8
0.248, -2.087e-8
0.249, -2.091e-8
0.250, -2.082e-8
0.251, -2.085e-8
0.252, -2.082e-8
0.253, -2.076e-8
0.254, -2.081e-8
0.255, -2.072e-8
0.256, -2.075e-8
0.257, -2.071e-8
0.258, -2.067e-8
0.259, -2.071e-8
0.260, -2.062e-8
0.261, -2.066e-8
0.262, -2.062e-8
0.263, -2.058e-8
0.264, -2.062e-8
0.265, -2.053e-8
0.266, -2.057e-8
0.267, -2.053e-8
0.268, -2.050e-8
0.269, -2.054e-8
0.270, -2.045e-8
0.271, -2.050e-8
0.272, -2.046e-8
0.273, -2.042e-8
0.274, -2.047e-8
0.275, -2.039e-8
0.276, -2.043e-8
0.277, -2.040e-8
0.278, -2.036e-8
0.279, -2.041e-8
0.280, -2.032e-8
0.281, -2.037e-8
0.282, -2.035e-8
0.283, -2.031e-8
0.284, -2.036e-8
0.285, -2.028e-8
0.286, -2.033e-8
0.287, -2.030e-8
0.288, -2.026e-8
0.289, -2.032e-8
0.290, -2.024e-8
0.291, -2.028e-8
0.292, -2.027e-8
0.293, -2.023e-8
0.294, -2.029e-8
0.295, -2.021e-8
0.296, -2.026e-8
0.297, -2.024e-8
0.298, -2.020e-8
0.299, -2.026e-8
0.300, -1.964e-8
0.299, -1.874e-8
0.298, -1.841e-8
0.297, -1.821e-8
0.296, -1.815e-8
0.295, -1.797e-8
0.294, -1.792e-8
0.293, -1.782e-8
0.292, -1.771e-8
0.291, -1.770e-8
0.290, -1.755e-8
0.289, -1.754e-8
0.288, -1.746e-8
0.287, -1.737e-8
0.286, -1.737e-8
0.285, -1.725e-8
0.284, -1.724e-8
0.283, -1.718e-8
0.282, -1.709e-8
0.281, -1.711e-8
0.280, -1.699e-8
0.279, -1.700e-8
0.278, -1.694e-8
0.277, -1.687e-8
0.276, -1.689e-8
0.275, -1.678e-8
0.274, -1.679e-8
0.273, -1.674e-8
0.272, -1.667e-8
0.271, -1.670e-8
0.270, -1.659e-8
0.269, -1.660e-8
0.268, -1.655e-8
0.267, -1.649e-8
0.266, -1.652e-8
0.265, -1.641e-8
0.264, -1.643e-8
0.263, -1.638e-8
0.262, -1.632e-8
0.261, -1.636e-8
0.260, -1.625e-8
0.259, -1.627e-8
0.258, -1.623e-8
0.257, -1.616e-8
0.256, -1.620e-8
0.255, -1.609e-8
0.254, -1.612e-8
0.253, -1.608e-8
0.252, -1.601e-8
0.251, -1.606e-8
0.250, -1.595e-8
0.249, -1.598e-8
0.248, -1.594e-8
0.247, -1.588e-8
0.246, -1.592e-8
0.245, -1.582e-8
0.244, -1.584e-8
0.243, -1.581e-8
0.242, -1.575e-8
0.241, -1.579e-8
0.240, -1.570e-8
0.239, -1.571e-8
0.238, -1.569e-8
0.237, -1.562e-8
0.236, -1.566e-8
0.235, -1.557e-8
0.234, -1.559e-8
0.233, -1.556e-8
0.232, -1.550e-8
0.231, -1.554e-8
0.230, -1.545e-8
0.229, -1.547e-8
0.228, -1.543e-8
0.227, -1.538e-8
0.226, -1.541e-8
0.225, -1.532e-8
0.224, -1.534e-8
0.223, -1.531e-8
0.222, -1.525e-8
0.221, -1.529e-8
0.220, -1.519e-8
0.219, -1.521e-8
0.218, -1.518e-8
0.217, -1.512e-8
0.216, -1.516e-8
0.215, -1.506e-8
0.214, -1.509e-8
0.213, -1.505e-8
0.212, -1.499e-8
0.211, -1.504e-8
0.210, -1.494e-8
0.209, -1.496e-8
0.208, -1.493e-8
0.207, -1.486e-8
0.206, -1.491e-8
0.205, -1.481e-8
0.204, -1.482e-8
0.203, -1.480e-8
0.202, -1.473e-8
0.201, -1.477e-8
0.200, -1.467e-8
0.199, -1.469e-8
0.198, -1.466e-8
0.197, -1.459e-8
0.196, -1.463e-8
0.195, -1.453e-8
0.194, -1.454e-8
0.193, -1.451e-8
0.192, -1.444e-8
0.191, -1.447e-8
0.190, -1.438e-8
0.189, -1.439e-8
0.188, -1.435e-8
0.187, -1.428e-8
0.186, -1.431e-8
0.185, -1.421e-8
0.184, -1.422e-8
0.183, -1.418e-8
0.182, -1.411e-8
0.181, -1.414e-8
0.180, -1.403e-8
0.179, -1.403e-8
0.178, -1.399e-8
0.177, -1.391e-8
0.176, -1.394e-8
0.175, -1.383e-8
0.174, -1.383e-8
0.173, -1.379e-8
0.172, -1.370e-8
0.171, -1.373e-8
0.170, -1.361e-8
0.169, -1.360e-8
0.168, -1.356e-8
0.167, -1.346e-8
0.166, -1.348e-8
0.165, -1.337e-8
0.164, -1.335e-8
0.163, -1.330e-8
0.162, -1.320e-8
0.161, -1.321e-8
0.160, -1.308e-8
0.159, -1.306e-8
0.158, -1.300e-8
0.157, -1.289e-8
0.156, -1.289e-8
0.155, -1.276e-8
0.154, -1.272e-8
0.153, -1.265e-8
0.152, -1.254e-8
0.151, -1.252e-8
0.150, -1.238e-8
0.149, -1.234e-8
0.148, -1.226e-8
0.147, -1.213e-8
0.146, -1.211e-8
0.145, -1.195e-8
0.144, -1.189e-8
0.143, -1.180e-8
0.142, -1.165e-8
0.141, -1.161e-8
0.140, -1.144e-8
0.139, -1.137e-8
0.138, -1.127e-8
0.137, -1.110e-8
0.136, -1.105e-8
0.135, -1.085e-8
0.134, -1.077e-8
0.133, -1.064e-8
0.132, -1.045e-8
0.131, -1.039e-8
0.130, -1.018e-8
0.129, -1.006e-8
0.128, -9.909e-9
0.127, -9.703e-9
0.126, -9.614e-9
0.125, -9.380e-9
0.124, -9.246e-9
0.123, -9.075e-9
0.122, -8.843e-9
0.121, -8.722e-9
0.120, -8.469e-9
0.119, -8.291e-9
0.118, -8.104e-9
0.117, -7.839e-9
0.116, -7.684e-9
0.115, -7.403e-9
0.114, -7.195e-9
0.113, -6.968e-9
0.112, -6.679e-9
0.111, -6.490e-9
0.110, -6.179e-9
0.109, -5.945e-9
0.108, -5.684e-9
0.107, -5.364e-9
0.106, -5.144e-9
0.105, -4.797e-9
0.104, -4.533e-9
0.103, -4.227e-9
0.102, -3.866e-9
0.101, -3.621e-9
0.100, -3.239e-9
0.099, -2.941e-9
0.098, -2.609e-9
0.097, -2.227e-9
0.096, -1.936e-9
0.095, -1.513e-9
0.094, -1.192e-9
0.093, -8.201e-10
0.092, -3.987e-10
0.091, -7.628e-11
0.090, 3.778e-10
0.089, 7.536e-10
0.088, 1.140e-9
0.087, 1.606e-9
0.086, 1.945e-9
0.085, 2.422e-9
0.084, 2.824e-9
0.083, 3.222e-9
0.082, 3.712e-9
0.081, 4.077e-9
0.080, 4.572e-9
0.079, 4.995e-9
0.078, 5.412e-9
0.077, 5.927e-9
0.076, 6.313e-9
0.075, 6.797e-9
0.074, 7.225e-9
0.073, 7.665e-9
0.072, 8.155e-9
0.071, 8.559e-9
0.070, 9.037e-9
0.069, 9.461e-9
0.068, 9.886e-9
0.067, 1.036e-8
0.066, 1.075e-8
0.065, 1.122e-8
0.064, 1.163e-8
0.063, 1.204e-8
0.062, 1.248e-8
0.061, 1.283e-8
0.060, 1.329e-8
0.059, 1.365e-8
0.058, 1.402e-8
0.057, 1.443e-8
0.056, 1.474e-8
0.055, 1.516e-8
0.054, 1.548e-8
0.053, 1.581e-8
0.052, 1.619e-8
0.051, 1.646e-8
0.050, 1.682e-8
0.049, 1.708e-8
0.048, 1.735e-8
0.047, 1.768e-8
0.046, 1.787e-8
0.045, 1.817e-8
0.044, 1.838e-8
0.043, 1.858e-8
0.042, 1.885e-8
0.041, 1.898e-8
0.040, 1.923e-8
0.039, 1.939e-8
0.038, 1.953e-8
0.037, 1.973e-8
0.036, 1.981e-8
0.035, 1.998e-8
0.034, 2.007e-8
0.033, 2.016e-8
0.032, 2.029e-8
0.031, 2.032e-8
0.030, 2.044e-8
0.029, 2.047e-8
0.028, 2.050e-8
0.027, 2.059e-8
0.026, 2.057e-8
0.025, 2.064e-8
0.024, 2.062e-8
0.023, 2.061e-8
0.022, 2.064e-8
0.021, 2.057e-8
0.020, 2.060e-8
0.019, 2.054e-8
0.018, 2.048e-8
0.017, 2.049e-8
0.016, 2.036e-8
0.015, 2.036e-8
0.014, 2.027e-8
0.013, 2.018e-8
0.012, 2.017e-8
0.011, 2.002e-8
0.010, 1.999e-8
0.009, 1.987e-8
0.008, 1.975e-8
0.007, 1.972e-8
0.006, 1.954e-8
0.005, 1.949e-8
0.004, 1.936e-8
0.003, 1.922e-8
0.002, 1.917e-8
0.001, 1.899e-8
0.000, 1.898e-8
-0.001, 1.883e-8
-0.002, 1.866e-8
-0.003, 1.859e-8
-0.004, 1.840e-8
-0.005, 1.832e-8
-0.006, 1.817e-8
-0.007, 1.802e-8
-0.008, 1.795e-8
-0.009, 1.775e-8
-0.010, 1.767e-8
-0.011, 1.752e-8
-0.012, 1.737e-8
-0.013, 1.730e-8
-0.014, 1.710e-8
-0.015, 1.702e-8
-0.016, 1.687e-8
-0.017, 1.673e-8
-0.018, 1.665e-8
-0.019, 1.645e-8
-0.020, 1.638e-8
-0.021, 1.623e-8
-0.022, 1.608e-8
-0.023, 1.601e-8
-0.024, 1.582e-8
-0.025, 1.576e-8
-0.026, 1.562e-8
-0.027, 1.548e-8
-0.028, 1.542e-8
-0.029, 1.522e-8
-0.030, 1.516e-8
-0.031, 1.503e-8
-0.032, 1.489e-8
-0.033, 1.484e-8
-0.034, 1.465e-8
-0.035, 1.460e-8
-0.036, 1.448e-8
-0.037, 1.434e-8
-0.038, 1.430e-8
-0.039, 1.412e-8
-0.040, 1.407e-8
-0.041, 1.395e-8
-0.042, 1.382e-8
-0.043, 1.379e-8
-0.044, 1.361e-8
-0.045, 1.357e-8
-0.046, 1.346e-8
-0.047, 1.334e-8
-0.048, 1.330e-8
-0.049, 1.314e-8
-0.050, 1.311e-8
-0.051, 1.301e-8
-0.052, 1.289e-8
-0.053, 1.286e-8
-0.054, 1.271e-8
-0.055, 1.268e-8
-0.056, 1.257e-8
-0.057, 1.247e-8
-0.058, 1.244e-8
-0.059, 1.230e-8
-0.060, 1.228e-8
-0.061, 1.219e-8
-0.062, 1.208e-8
-0.063, 1.207e-8
-0.064, 1.193e-8
-0.065, 1.191e-8
-0.066, 1.182e-8
-0.067, 1.172e-8
-0.068, 1.172e-8
-0.069, 1.157e-8
-0.070, 1.157e-8
-0.071, 1.148e-8
-0.072, 1.138e-8
-0.073, 1.139e-8
-0.074, 1.125e-8
-0.075, 1.124e-8
-0.076, 1.117e-8
-0.077, 1.108e-8
-0.078, 1.108e-8
-0.079, 1.095e-8
-0.080, 1.094e-8
-0.081, 1.088e-8
-0.082, 1.079e-8
-0.083, 1.080e-8
-0.084, 1.068e-8
-0.085, 1.067e-8
-0.086, 1.061e-8
-0.087, 1.053e-8
-0.088, 1.053e-8
-0.089, 1.042e-8
-0.090, 1.042e-8
-0.091, 1.036e-8
-0.092, 1.028e-8
-0.093, 1.029e-8
-0.094, 1.018e-8
-0.095, 1.018e-8
-0.096, 1.012e-8
-0.097, 1.005e-8
-0.098, 1.007e-8
-0.099, 9.955e-9
-0.100, 9.963e-9
-0.101, 9.905e-9
-0.102, 9.838e-9
-0.103, 9.861e-9
-0.104, 9.747e-9
-0.105, 9.760e-9
-0.106, 9.708e-9
-0.107, 9.639e-9
-0.108, 9.666e-9
-0.109, 9.555e-9
-0.110, 9.572e-9
-0.111, 9.525e-9
-0.112, 9.452e-9
-0.113, 9.487e-9
-0.114, 9.378e-9
-0.115, 9.398e-9
-0.116, 9.353e-9
-0.117, 9.284e-9
-0.118, 9.318e-9
-0.119, 9.213e-9
-0.120, 9.233e-9
-0.121, 9.191e-9
-0.122, 9.123e-9
-0.123, 9.161e-9
-0.124, 9.061e-9
-0.125, 9.080e-9
-0.126, 9.042e-9
-0.127, 8.978e-9
-0.128, 9.019e-9
-0.129, 8.921e-9
-0.130, 8.942e-9
-0.131, 8.905e-9
-0.132, 8.845e-9
-0.133, 8.881e-9
-0.134, 8.787e-9
-0.135, 8.812e-9
-0.136, 8.773e-9
-0.137, 8.717e-9
-0.138, 8.753e-9
-0.139, 8.660e-9
-0.140, 8.690e-9
-0.141, 8.653e-9
-0.142, 8.595e-9
-0.143, 8.637e-9
-0.144, 8.541e-9
-0.145, 8.574e-9
-0.146, 8.539e-9
-0.147, 8.481e-9
-0.148, 8.531e-9
-0.149, 8.432e-9
-0.150, 8.464e-9
-0.151, 8.437e-9
-0.152, 8.375e-9
-0.153, 8.428e-9
-0.154, 8.335e-9
-0.155, 8.364e-9
-0.156, 8.345e-9
-0.157, 8.283e-9
-0.158, 8.334e-9
-0.159, 8.252e-9
-0.160, 8.276e-9
-0.161, 8.260e-9
-0.162, 8.203e-9
-0.163, 8.253e-9
-0.164, 8.172e-9
-0.165, 8.200e-9
-0.166, 8.183e-9
-0.167, 8.130e-9
-0.168, 8.182e-9
-0.169, 8.099e-9
-0.170, 8.131e-9
-0.171, 8.109e-9
-0.172, 8.060e-9
-0.173, 8.113e-9
-0.174, 8.032e-9
-0.175, 8.066e-9
-0.176, 8.046e-9
-0.177, 7.998e-9
-0.178, 8.052e-9
-0.179, 7.975e-9
-0.180, 8.011e-9
-0.181, 7.992e-9
-0.182, 7.944e-9
-0.183, 8.002e-9
-0.184, 7.921e-9
-0.185, 7.963e-9
-0.186, 7.945e-9
-0.187, 7.898e-9
-0.188, 7.960e-9
-0.189, 7.878e-9
-0.190, 7.918e-9
-0.191, 7.911e-9
-0.192, 7.860e-9
-0.193, 7.923e-9
-0.194, 7.846e-9
-0.195, 7.884e-9
-0.196, 7.877e-9
-0.197, 7.829e-9
-0.198, 7.893e-9
-0.199, 7.819e-9
