Mar. 16, 2023   09:23:58
Cyclic Voltammetry
File: c:/users/oliverrz/desktop/electrolab/data/2023_03_16\fcmeoh_macros_500_um\electrode5_cv_250mvs_500_um.bin
Data Source:  Experiment
Instrument Model:  CHI760E
Header: CV
Note: 

Init E (V) = -0.2
High E (V) = 0.3
Low E (V) = -0.2
Final E (V) = -0.2
Init P/N = P
Scan Rate (V/s) = 0.25
Segment = 3
Sample Interval (V) = 0.001
Quiet Time (sec) = 2
Sensitivity (A/V) = 1e-7

Results:

Channel 1:
Segment 1:
Ep = 0.166V
ip = -1.569e-6A
Ah = -4.524e-7C

Segment 2:
Ep = 0.063V
ip = 4.237e-7A
Ah = 1.074e-7C

Segment 3:

Potential/V, Current/A

-0.200, 1.009e-6
-0.199, 1.009e-6
-0.198, 1.009e-6
-0.197, 1.009e-6
-0.196, 1.009e-6
-0.195, 1.009e-6
-0.194, 1.009e-6
-0.193, 1.009e-6
-0.192, 1.009e-6
-0.191, 1.009e-6
-0.190, 1.009e-6
-0.189, 1.009e-6
-0.188, 1.009e-6
-0.187, 1.009e-6
-0.186, 1.009e-6
-0.185, 1.009e-6
-0.184, 1.009e-6
-0.183, 1.009e-6
-0.182, 1.009e-6
-0.181, 1.009e-6
-0.180, 1.009e-6
-0.179, 1.009e-6
-0.178, 1.009e-6
-0.177, 1.009e-6
-0.176, 1.009e-6
-0.175, 1.009e-6
-0.174, 1.009e-6
-0.173, 1.009e-6
-0.172, 1.009e-6
-0.171, 1.009e-6
-0.170, 1.009e-6
-0.169, 1.009e-6
-0.168, 1.009e-6
-0.167, 1.009e-6
-0.166, 1.009e-6
-0.165, 1.009e-6
-0.164, 1.009e-6
-0.163, 1.009e-6
-0.162, 1.009e-6
-0.161, 1.009e-6
-0.160, 1.009e-6
-0.159, 1.009e-6
-0.158, 1.009e-6
-0.157, 1.009e-6
-0.156, 1.009e-6
-0.155, 1.009e-6
-0.154, 1.009e-6
-0.153, 1.009e-6
-0.152, 1.009e-6
-0.151, 1.009e-6
-0.150, 1.009e-6
-0.149, 1.009e-6
-0.148, 1.009e-6
-0.147, 1.009e-6
-0.146, 1.009e-6
-0.145, 1.009e-6
-0.144, 1.009e-6
-0.143, 1.009e-6
-0.142, 1.009e-6
-0.141, 1.009e-6
-0.140, 1.009e-6
-0.139, 1.009e-6
-0.138, 1.009e-6
-0.137, 1.009e-6
-0.136, 1.009e-6
-0.135, 1.009e-6
-0.134, 1.009e-6
-0.133, 1.009e-6
-0.132, 1.009e-6
-0.131, 1.009e-6
-0.130, 1.009e-6
-0.129, 1.009e-6
-0.128, 1.009e-6
-0.127, 1.009e-6
-0.126, 1.009e-6
-0.125, 1.009e-6
-0.124, 1.009e-6
-0.123, 1.009e-6
-0.122, 1.009e-6
-0.121, 1.009e-6
-0.120, 1.009e-6
-0.119, 1.009e-6
-0.118, 1.009e-6
-0.117, 1.009e-6
-0.116, 1.009e-6
-0.115, 1.009e-6
-0.114, 1.009e-6
-0.113, 1.009e-6
-0.112, 1.009e-6
-0.111, 1.009e-6
-0.110, 1.009e-6
-0.109, 1.009e-6
-0.108, 1.009e-6
-0.107, 1.009e-6
-0.106, 1.009e-6
-0.105, 1.009e-6
-0.104, 1.009e-6
-0.103, 1.009e-6
-0.102, 1.009e-6
-0.101, 1.009e-6
-0.100, 1.009e-6
-0.099, 1.009e-6
-0.098, 1.009e-6
-0.097, 1.009e-6
-0.096, 1.009e-6
-0.095, 1.009e-6
-0.094, 1.009e-6
-0.093, 1.009e-6
-0.092, 1.009e-6
-0.091, 1.009e-6
-0.090, 1.009e-6
-0.089, 1.009e-6
-0.088, 1.009e-6
-0.087, 1.009e-6
-0.086, 1.009e-6
-0.085, 1.009e-6
-0.084, 1.009e-6
-0.083, 1.009e-6
-0.082, 1.009e-6
-0.081, 1.009e-6
-0.080, 1.009e-6
-0.079, 1.009e-6
-0.078, 1.009e-6
-0.077, 1.009e-6
-0.076, 1.009e-6
-0.075, 1.009e-6
-0.074, 1.009e-6
-0.073, 1.009e-6
-0.072, 1.009e-6
-0.071, 1.009e-6
-0.070, 1.009e-6
-0.069, 1.009e-6
-0.068, 1.009e-6
-0.067, 1.009e-6
-0.066, 1.009e-6
-0.065, 1.009e-6
-0.064, 1.009e-6
-0.063, 1.009e-6
-0.062, 1.009e-6
-0.061, 1.009e-6
-0.060, 1.009e-6
-0.059, 1.009e-6
-0.058, 1.009e-6
-0.057, 1.009e-6
-0.056, 1.009e-6
-0.055, 1.009e-6
-0.054, 1.009e-6
-0.053, 1.009e-6
-0.052, 1.009e-6
-0.051, 1.009e-6
-0.050, 1.009e-6
-0.049, 1.009e-6
-0.048, 1.009e-6
-0.047, 1.009e-6
-0.046, 1.009e-6
-0.045, 1.009e-6
-0.044, 1.009e-6
-0.043, 1.009e-6
-0.042, 1.009e-6
-0.041, 1.009e-6
-0.040, 1.009e-6
-0.039, 1.009e-6
-0.038, 1.009e-6
-0.037, 1.009e-6
-0.036, 1.009e-6
-0.035, 1.009e-6
-0.034, 1.009e-6
-0.033, 1.009e-6
-0.032, 1.009e-6
-0.031, 1.009e-6
-0.030, 1.009e-6
-0.029, 1.009e-6
-0.028, 1.009e-6
-0.027, 1.009e-6
-0.026, 1.009e-6
-0.025, 1.009e-6
-0.024, 1.009e-6
-0.023, 1.009e-6
-0.022, 1.009e-6
-0.021, 1.009e-6
-0.020, 1.009e-6
-0.019, 1.009e-6
-0.018, 1.009e-6
-0.017, 1.009e-6
-0.016, 1.009e-6
-0.015, 1.009e-6
-0.014, 1.009e-6
-0.013, 1.009e-6
-0.012, 1.009e-6
-0.011, 1.009e-6
-0.010, 1.009e-6
-0.009, 1.009e-6
-0.008, 1.009e-6
-0.007, 1.009e-6
-0.006, 1.009e-6
-0.005, 1.004e-6
-0.004, 9.989e-7
-0.003, 9.938e-7
-0.002, 9.884e-7
-0.001, 9.831e-7
-0.000, 9.776e-7
0.001, 9.731e-7
0.002, 9.681e-7
0.003, 9.632e-7
0.004, 9.583e-7
0.005, 9.538e-7
0.006, 9.490e-7
0.007, 9.441e-7
0.008, 9.395e-7
0.009, 9.349e-7
0.010, 9.304e-7
0.011, 9.257e-7
0.012, 9.209e-7
0.013, 9.166e-7
0.014, 9.121e-7
0.015, 9.073e-7
0.016, 9.028e-7
0.017, 8.982e-7
0.018, 8.939e-7
0.019, 8.893e-7
0.020, 8.846e-7
0.021, 8.803e-7
0.022, 8.758e-7
0.023, 8.711e-7
0.024, 8.666e-7
0.025, 8.619e-7
0.026, 8.574e-7
0.027, 8.526e-7
0.028, 8.478e-7
0.029, 8.432e-7
0.030, 8.387e-7
0.031, 8.338e-7
0.032, 8.291e-7
0.033, 8.241e-7
0.034, 8.194e-7
0.035, 8.146e-7
0.036, 8.095e-7
0.037, 8.045e-7
0.038, 7.995e-7
0.039, 7.945e-7
0.040, 7.893e-7
0.041, 7.840e-7
0.042, 7.789e-7
0.043, 7.736e-7
0.044, 7.680e-7
0.045, 7.628e-7
0.046, 7.572e-7
0.047, 7.517e-7
0.048, 7.461e-7
0.049, 7.402e-7
0.050, 7.346e-7
0.051, 7.288e-7
0.052, 7.226e-7
0.053, 7.167e-7
0.054, 7.106e-7
0.055, 7.045e-7
0.056, 6.981e-7
0.057, 6.914e-7
0.058, 6.851e-7
0.059, 6.785e-7
0.060, 6.716e-7
0.061, 6.650e-7
0.062, 6.578e-7
0.063, 6.508e-7
0.064, 6.438e-7
0.065, 6.361e-7
0.066, 6.288e-7
0.067, 6.212e-7
0.068, 6.135e-7
0.069, 6.058e-7
0.070, 5.975e-7
0.071, 5.894e-7
0.072, 5.814e-7
0.073, 5.725e-7
0.074, 5.642e-7
0.075, 5.554e-7
0.076, 5.464e-7
0.077, 5.370e-7
0.078, 5.278e-7
0.079, 5.183e-7
0.080, 5.091e-7
0.081, 4.987e-7
0.082, 4.890e-7
0.083, 4.788e-7
0.084, 4.683e-7
0.085, 4.579e-7
0.086, 4.469e-7
0.087, 4.360e-7
0.088, 4.251e-7
0.089, 4.135e-7
0.090, 4.018e-7
0.091, 3.902e-7
0.092, 3.779e-7
0.093, 3.663e-7
0.094, 3.531e-7
0.095, 3.408e-7
0.096, 3.283e-7
0.097, 3.151e-7
0.098, 3.016e-7
0.099, 2.882e-7
0.100, 2.744e-7
0.101, 2.610e-7
0.102, 2.460e-7
0.103, 2.316e-7
0.104, 2.174e-7
0.105, 2.025e-7
0.106, 1.877e-7
0.107, 1.724e-7
0.108, 1.575e-7
0.109, 1.422e-7
0.110, 1.261e-7
0.111, 1.101e-7
0.112, 9.458e-8
0.113, 7.793e-8
0.114, 6.194e-8
0.115, 4.499e-8
0.116, 2.850e-8
0.117, 1.219e-8
0.118, -5.069e-9
0.119, -2.211e-8
0.120, -3.888e-8
0.121, -5.663e-8
0.122, -7.321e-8
0.123, -9.084e-8
0.124, -1.077e-7
0.125, -1.247e-7
0.126, -1.419e-7
0.127, -1.595e-7
0.128, -1.765e-7
0.129, -1.939e-7
0.130, -2.102e-7
0.131, -2.273e-7
0.132, -2.439e-7
0.133, -2.600e-7
0.134, -2.768e-7
0.135, -2.926e-7
0.136, -3.083e-7
0.137, -3.244e-7
0.138, -3.391e-7
0.139, -3.542e-7
0.140, -3.692e-7
0.141, -3.828e-7
0.142, -3.970e-7
0.143, -4.102e-7
0.144, -4.232e-7
0.145, -4.358e-7
0.146, -4.473e-7
0.147, -4.585e-7
0.148, -4.701e-7
0.149, -4.797e-7
0.150, -4.898e-7
0.151, -4.987e-7
0.152, -5.072e-7
0.153, -5.154e-7
0.154, -5.224e-7
0.155, -5.289e-7
0.156, -5.358e-7
0.157, -5.403e-7
0.158, -5.451e-7
0.159, -5.491e-7
0.160, -5.524e-7
0.161, -5.555e-7
0.162, -5.574e-7
0.163, -5.589e-7
0.164, -5.602e-7
0.165, -5.602e-7
0.166, -5.603e-7
0.167, -5.601e-7
0.168, -5.587e-7
0.169, -5.578e-7
0.170, -5.551e-7
0.171, -5.531e-7
0.172, -5.506e-7
0.173, -5.472e-7
0.174, -5.442e-7
0.175, -5.405e-7
0.176, -5.364e-7
0.177, -5.330e-7
0.178, -5.284e-7
0.179, -5.243e-7
0.180, -5.199e-7
0.181, -5.150e-7
0.182, -5.106e-7
0.183, -5.059e-7
0.184, -5.005e-7
0.185, -4.964e-7
0.186, -4.912e-7
0.187, -4.864e-7
0.188, -4.816e-7
0.189, -4.768e-7
0.190, -4.721e-7
0.191, -4.676e-7
0.192, -4.629e-7
0.193, -4.584e-7
0.194, -4.539e-7
0.195, -4.493e-7
0.196, -4.453e-7
0.197, -4.406e-7
0.198, -4.369e-7
0.199, -4.329e-7
0.200, -4.285e-7
0.201, -4.248e-7
0.202, -4.210e-7
0.203, -4.172e-7
0.204, -4.139e-7
0.205, -4.101e-7
0.206, -4.070e-7
0.207, -4.036e-7
0.208, -3.999e-7
0.209, -3.971e-7
0.210, -3.939e-7
0.211, -3.907e-7
0.212, -3.881e-7
0.213, -3.849e-7
0.214, -3.824e-7
0.215, -3.798e-7
0.216, -3.769e-7
0.217, -3.748e-7
0.218, -3.719e-7
0.219, -3.698e-7
0.220, -3.676e-7
0.221, -3.649e-7
0.222, -3.630e-7
0.223, -3.606e-7
0.224, -3.583e-7
0.225, -3.569e-7
0.226, -3.542e-7
0.227, -3.523e-7
0.228, -3.507e-7
0.229, -3.485e-7
0.230, -3.466e-7
0.231, -3.451e-7
0.232, -3.429e-7
0.233, -3.414e-7
0.234, -3.392e-7
0.235, -3.375e-7
0.236, -3.359e-7
0.237, -3.339e-7
0.238, -3.322e-7
0.239, -3.305e-7
0.240, -3.286e-7
0.241, -3.272e-7
0.242, -3.253e-7
0.243, -3.233e-7
0.244, -3.222e-7
0.245, -3.199e-7
0.246, -3.184e-7
0.247, -3.167e-7
0.248, -3.148e-7
0.249, -3.132e-7
0.250, -3.114e-7
0.251, -3.094e-7
0.252, -3.082e-7
0.253, -3.059e-7
0.254, -3.045e-7
0.255, -3.024e-7
0.256, -3.006e-7
0.257, -2.992e-7
0.258, -2.973e-7
0.259, -2.951e-7
0.260, -2.937e-7
0.261, -2.914e-7
0.262, -2.900e-7
0.263, -2.880e-7
0.264, -2.861e-7
0.265, -2.845e-7
0.266, -2.824e-7
0.267, -2.806e-7
0.268, -2.792e-7
0.269, -2.769e-7
0.270, -2.753e-7
0.271, -2.736e-7
0.272, -2.713e-7
0.273, -2.700e-7
0.274, -2.679e-7
0.275, -2.661e-7
0.276, -2.643e-7
0.277, -2.625e-7
0.278, -2.607e-7
0.279, -2.592e-7
0.280, -2.567e-7
0.281, -2.556e-7
0.282, -2.538e-7
0.283, -2.517e-7
0.284, -2.502e-7
0.285, -2.483e-7
0.286, -2.467e-7
0.287, -2.451e-7
0.288, -2.430e-7
0.289, -2.419e-7
0.290, -2.397e-7
0.291, -2.382e-7
0.292, -2.368e-7
0.293, -2.349e-7
0.294, -2.335e-7
0.295, -2.319e-7
0.296, -2.300e-7
0.297, -2.288e-7
0.298, -2.270e-7
0.299, -2.254e-7
0.300, -2.005e-7
0.299, -1.461e-7
0.298, -1.341e-7
0.297, -1.261e-7
0.296, -1.198e-7
0.295, -1.136e-7
0.294, -1.089e-7
0.293, -1.044e-7
0.292, -1.002e-7
0.291, -9.656e-8
0.290, -9.281e-8
0.289, -8.958e-8
0.288, -8.675e-8
0.287, -8.349e-8
0.286, -8.112e-8
0.285, -7.823e-8
0.284, -7.574e-8
0.283, -7.377e-8
0.282, -7.100e-8
0.281, -6.909e-8
0.280, -6.697e-8
0.279, -6.466e-8
0.278, -6.318e-8
0.277, -6.103e-8
0.276, -5.912e-8
0.275, -5.768e-8
0.274, -5.546e-8
0.273, -5.411e-8
0.272, -5.242e-8
0.271, -5.057e-8
0.270, -4.916e-8
0.269, -4.756e-8
0.268, -4.586e-8
0.267, -4.473e-8
0.266, -4.279e-8
0.265, -4.165e-8
0.264, -4.011e-8
0.263, -3.870e-8
0.262, -3.750e-8
0.261, -3.605e-8
0.260, -3.445e-8
0.259, -3.368e-8
0.258, -3.208e-8
0.257, -3.067e-8
0.256, -2.944e-8
0.255, -2.799e-8
0.254, -2.731e-8
0.253, -2.571e-8
0.252, -2.445e-8
0.251, -2.359e-8
0.250, -2.208e-8
0.249, -2.082e-8
0.248, -1.999e-8
0.247, -1.842e-8
0.246, -1.756e-8
0.245, -1.636e-8
0.244, -1.507e-8
0.243, -1.418e-8
0.242, -1.279e-8
0.241, -1.184e-8
0.240, -1.088e-8
0.239, -9.223e-9
0.238, -8.700e-9
0.237, -7.315e-9
0.236, -6.177e-9
0.235, -5.346e-9
0.234, -3.993e-9
0.233, -2.977e-9
0.232, -2.147e-9
0.231, -6.393e-10
0.230, 1.606e-10
0.229, 1.330e-9
0.228, 2.437e-9
0.227, 3.268e-9
0.226, 4.591e-9
0.225, 5.421e-9
0.224, 6.560e-9
0.223, 7.790e-9
0.222, 8.652e-9
0.221, 9.636e-9
0.220, 1.105e-8
0.219, 1.170e-8
0.218, 1.333e-8
0.217, 1.410e-8
0.216, 1.511e-8
0.215, 1.656e-8
0.214, 1.748e-8
0.213, 1.880e-8
0.212, 2.022e-8
0.211, 2.090e-8
0.210, 2.247e-8
0.209, 2.333e-8
0.208, 2.428e-8
0.207, 2.603e-8
0.206, 2.653e-8
0.205, 2.810e-8
0.204, 2.917e-8
0.203, 3.013e-8
0.202, 3.157e-8
0.201, 3.253e-8
0.200, 3.366e-8
0.199, 3.533e-8
0.198, 3.594e-8
0.197, 3.748e-8
0.196, 3.889e-8
0.195, 4.000e-8
0.194, 4.163e-8
0.193, 4.271e-8
0.192, 4.403e-8
0.191, 4.591e-8
0.190, 4.680e-8
0.189, 4.862e-8
0.188, 4.978e-8
0.187, 5.138e-8
0.186, 5.298e-8
0.185, 5.458e-8
0.184, 5.603e-8
0.183, 5.806e-8
0.182, 5.944e-8
0.181, 6.129e-8
0.180, 6.323e-8
0.179, 6.498e-8
0.178, 6.714e-8
0.177, 6.867e-8
0.176, 7.083e-8
0.175, 7.310e-8
0.174, 7.510e-8
0.173, 7.726e-8
0.172, 7.969e-8
0.171, 8.184e-8
0.170, 8.473e-8
0.169, 8.686e-8
0.168, 8.938e-8
0.167, 9.249e-8
0.166, 9.519e-8
0.165, 9.796e-8
0.164, 1.013e-7
0.163, 1.038e-7
0.162, 1.076e-7
0.161, 1.106e-7
0.160, 1.139e-7
0.159, 1.177e-7
0.158, 1.213e-7
0.157, 1.252e-7
0.156, 1.290e-7
0.155, 1.329e-7
0.154, 1.375e-7
0.153, 1.416e-7
0.152, 1.459e-7
0.151, 1.508e-7
0.150, 1.550e-7
0.149, 1.606e-7
0.148, 1.652e-7
0.147, 1.702e-7
0.146, 1.759e-7
0.145, 1.814e-7
0.144, 1.868e-7
0.143, 1.928e-7
0.142, 1.984e-7
0.141, 2.049e-7
0.140, 2.110e-7
0.139, 2.172e-7
0.138, 2.239e-7
0.137, 2.304e-7
0.136, 2.372e-7
0.135, 2.443e-7
0.134, 2.510e-7
0.133, 2.583e-7
0.132, 2.656e-7
0.131, 2.726e-7
0.130, 2.805e-7
0.129, 2.878e-7
0.128, 2.959e-7
0.127, 3.035e-7
0.126, 3.110e-7
0.125, 3.190e-7
0.124, 3.271e-7
0.123, 3.341e-7
0.122, 3.429e-7
0.121, 3.503e-7
0.120, 3.586e-7
0.119, 3.664e-7
0.118, 3.741e-7
0.117, 3.825e-7
0.116, 3.905e-7
0.115, 3.978e-7
0.114, 4.062e-7
0.113, 4.135e-7
0.112, 4.213e-7
0.111, 4.289e-7
0.110, 4.360e-7
0.109, 4.436e-7
0.108, 4.509e-7
0.107, 4.577e-7
0.106, 4.649e-7
0.105, 4.716e-7
0.104, 4.786e-7
0.103, 4.852e-7
0.102, 4.916e-7
0.101, 4.980e-7
0.100, 5.039e-7
0.099, 5.098e-7
0.098, 5.154e-7
0.097, 5.209e-7
0.096, 5.264e-7
0.095, 5.318e-7
0.094, 5.364e-7
0.093, 5.413e-7
0.092, 5.459e-7
0.091, 5.504e-7
0.090, 5.547e-7
0.089, 5.587e-7
0.088, 5.626e-7
0.087, 5.665e-7
0.086, 5.694e-7
0.085, 5.729e-7
0.084, 5.763e-7
0.083, 5.787e-7
0.082, 5.821e-7
0.081, 5.844e-7
0.080, 5.869e-7
0.079, 5.894e-7
0.078, 5.913e-7
0.077, 5.935e-7
0.076, 5.952e-7
0.075, 5.966e-7
0.074, 5.987e-7
0.073, 5.995e-7
0.072, 6.008e-7
0.071, 6.020e-7
0.070, 6.029e-7
0.069, 6.037e-7
0.068, 6.044e-7
0.067, 6.048e-7
0.066, 6.056e-7
0.065, 6.056e-7
0.064, 6.060e-7
0.063, 6.062e-7
0.062, 6.060e-7
0.061, 6.062e-7
0.060, 6.058e-7
0.059, 6.054e-7
0.058, 6.055e-7
0.057, 6.048e-7
0.056, 6.043e-7
0.055, 6.037e-7
0.054, 6.029e-7
0.053, 6.024e-7
0.052, 6.015e-7
0.051, 6.008e-7
0.050, 5.999e-7
0.049, 5.990e-7
0.048, 5.978e-7
0.047, 5.968e-7
0.046, 5.956e-7
0.045, 5.947e-7
0.044, 5.934e-7
0.043, 5.919e-7
0.042, 5.909e-7
0.041, 5.896e-7
0.040, 5.882e-7
0.039, 5.869e-7
0.038, 5.853e-7
0.037, 5.842e-7
0.036, 5.826e-7
0.035, 5.809e-7
0.034, 5.796e-7
0.033, 5.780e-7
0.032, 5.766e-7
0.031, 5.750e-7
0.030, 5.733e-7
0.029, 5.719e-7
0.028, 5.705e-7
0.027, 5.685e-7
0.026, 5.671e-7
0.025, 5.654e-7
0.024, 5.639e-7
0.023, 5.622e-7
0.022, 5.604e-7
0.021, 5.589e-7
0.020, 5.574e-7
0.019, 5.555e-7
0.018, 5.539e-7
0.017, 5.522e-7
0.016, 5.507e-7
0.015, 5.491e-7
0.014, 5.472e-7
0.013, 5.456e-7
0.012, 5.441e-7
0.011, 5.424e-7
0.010, 5.407e-7
0.009, 5.390e-7
0.008, 5.374e-7
0.007, 5.360e-7
0.006, 5.342e-7
0.005, 5.325e-7
0.004, 5.310e-7
0.003, 5.294e-7
0.002, 5.278e-7
0.001, 5.261e-7
0.000, 5.251e-7
-0.001, 5.235e-7
-0.002, 5.215e-7
-0.003, 5.199e-7
-0.004, 5.183e-7
-0.005, 5.169e-7
-0.006, 5.154e-7
-0.007, 5.137e-7
-0.008, 5.121e-7
-0.009, 5.109e-7
-0.010, 5.092e-7
-0.011, 5.076e-7
-0.012, 5.061e-7
-0.013, 5.048e-7
-0.014, 5.033e-7
-0.015, 5.017e-7
-0.016, 5.002e-7
-0.017, 4.989e-7
-0.018, 4.975e-7
-0.019, 4.960e-7
-0.020, 4.945e-7
-0.021, 4.932e-7
-0.022, 4.918e-7
-0.023, 4.904e-7
-0.024, 4.889e-7
-0.025, 4.877e-7
-0.026, 4.864e-7
-0.027, 4.849e-7
-0.028, 4.835e-7
-0.029, 4.822e-7
-0.030, 4.812e-7
-0.031, 4.797e-7
-0.032, 4.782e-7
-0.033, 4.770e-7
-0.034, 4.758e-7
-0.035, 4.745e-7
-0.036, 4.732e-7
-0.037, 4.718e-7
-0.038, 4.708e-7
-0.039, 4.695e-7
-0.040, 4.682e-7
-0.041, 4.669e-7
-0.042, 4.658e-7
-0.043, 4.647e-7
-0.044, 4.634e-7
-0.045, 4.620e-7
-0.046, 4.611e-7
-0.047, 4.600e-7
-0.048, 4.587e-7
-0.049, 4.575e-7
-0.050, 4.563e-7
-0.051, 4.554e-7
-0.052, 4.542e-7
-0.053, 4.529e-7
-0.054, 4.518e-7
-0.055, 4.509e-7
-0.056, 4.497e-7
-0.057, 4.485e-7
-0.058, 4.475e-7
-0.059, 4.466e-7
-0.060, 4.455e-7
-0.061, 4.443e-7
-0.062, 4.432e-7
-0.063, 4.424e-7
-0.064, 4.413e-7
-0.065, 4.402e-7
-0.066, 4.391e-7
-0.067, 4.383e-7
-0.068, 4.374e-7
-0.069, 4.361e-7
-0.070, 4.351e-7
-0.071, 4.343e-7
-0.072, 4.333e-7
-0.073, 4.323e-7
-0.074, 4.311e-7
-0.075, 4.303e-7
-0.076, 4.295e-7
-0.077, 4.285e-7
-0.078, 4.274e-7
-0.079, 4.265e-7
-0.080, 4.257e-7
-0.081, 4.248e-7
-0.082, 4.237e-7
-0.083, 4.228e-7
-0.084, 4.222e-7
-0.085, 4.212e-7
-0.086, 4.202e-7
-0.087, 4.192e-7
-0.088, 4.186e-7
-0.089, 4.178e-7
-0.090, 4.167e-7
-0.091, 4.157e-7
-0.092, 4.151e-7
-0.093, 4.143e-7
-0.094, 4.133e-7
-0.095, 4.124e-7
-0.096, 4.116e-7
-0.097, 4.110e-7
-0.098, 4.100e-7
-0.099, 4.090e-7
-0.100, 4.084e-7
-0.101, 4.077e-7
-0.102, 4.068e-7
-0.103, 4.059e-7
-0.104, 4.051e-7
-0.105, 4.046e-7
-0.106, 4.036e-7
-0.107, 4.027e-7
-0.108, 4.020e-7
-0.109, 4.014e-7
-0.110, 4.006e-7
-0.111, 3.997e-7
-0.112, 3.989e-7
-0.113, 3.984e-7
-0.114, 3.976e-7
-0.115, 3.967e-7
-0.116, 3.959e-7
-0.117, 3.953e-7
-0.118, 3.948e-7
-0.119, 3.938e-7
-0.120, 3.930e-7
-0.121, 3.925e-7
-0.122, 3.918e-7
-0.123, 3.910e-7
-0.124, 3.902e-7
-0.125, 3.895e-7
-0.126, 3.891e-7
-0.127, 3.882e-7
-0.128, 3.874e-7
-0.129, 3.868e-7
-0.130, 3.862e-7
-0.131, 3.855e-7
-0.132, 3.847e-7
-0.133, 3.840e-7
-0.134, 3.836e-7
-0.135, 3.828e-7
-0.136, 3.820e-7
-0.137, 3.814e-7
-0.138, 3.809e-7
-0.139, 3.803e-7
-0.140, 3.795e-7
-0.141, 3.788e-7
-0.142, 3.783e-7
-0.143, 3.777e-7
-0.144, 3.769e-7
-0.145, 3.762e-7
-0.146, 3.757e-7
-0.147, 3.752e-7
-0.148, 3.744e-7
-0.149, 3.737e-7
-0.150, 3.732e-7
-0.151, 3.728e-7
-0.152, 3.720e-7
-0.153, 3.713e-7
-0.154, 3.708e-7
-0.155, 3.703e-7
-0.156, 3.697e-7
-0.157, 3.688e-7
-0.158, 3.684e-7
-0.159, 3.680e-7
-0.160, 3.672e-7
-0.161, 3.666e-7
-0.162, 3.660e-7
-0.163, 3.656e-7
-0.164, 3.650e-7
-0.165, 3.642e-7
-0.166, 3.637e-7
-0.167, 3.633e-7
-0.168, 3.628e-7
-0.169, 3.621e-7
-0.170, 3.614e-7
-0.171, 3.610e-7
-0.172, 3.606e-7
-0.173, 3.598e-7
-0.174, 3.592e-7
-0.175, 3.587e-7
-0.176, 3.583e-7
-0.177, 3.577e-7
-0.178, 3.570e-7
-0.179, 3.566e-7
-0.180, 3.562e-7
-0.181, 3.556e-7
-0.182, 3.549e-7
-0.183, 3.544e-7
-0.184, 3.541e-7
-0.185, 3.535e-7
-0.186, 3.528e-7
-0.187, 3.523e-7
-0.188, 3.520e-7
-0.189, 3.514e-7
-0.190, 3.508e-7
-0.191, 3.502e-7
-0.192, 3.499e-7
-0.193, 3.495e-7
-0.194, 3.488e-7
-0.195, 3.481e-7
-0.196, 3.479e-7
-0.197, 3.474e-7
-0.198, 3.468e-7
-0.199, 3.462e-7
