Mar. 16, 2023   09:20:58
Cyclic Voltammetry
File: c:/users/oliverrz/desktop/electrolab/data/2023_03_16\fcmeoh_macros_500_um\electrode3_cv_150mvs_500_um.bin
Data Source:  Experiment
Instrument Model:  CHI760E
Header: CV
Note: 

Init E (V) = -0.2
High E (V) = 0.3
Low E (V) = -0.2
Final E (V) = -0.2
Init P/N = P
Scan Rate (V/s) = 0.15
Segment = 3
Sample Interval (V) = 0.001
Quiet Time (sec) = 2
Sensitivity (A/V) = 1e-7

Results:

Channel 1:
Segment 1:
Ep = 0.084V
ip = -3.935e-8A
Ah = -1.556e-8C

Segment 2:
Ep = 0.025V
ip = 3.729e-8A
Ah = 1.535e-8C

Segment 3:

Potential/V, Current/A

-0.200, 3.117e-9
-0.199, 2.657e-9
-0.198, 2.575e-9
-0.197, 2.683e-9
-0.196, 2.432e-9
-0.195, 2.598e-9
-0.194, 2.461e-9
-0.193, 2.414e-9
-0.192, 2.520e-9
-0.191, 2.293e-9
-0.190, 2.467e-9
-0.189, 2.321e-9
-0.188, 2.298e-9
-0.187, 2.401e-9
-0.186, 2.175e-9
-0.185, 2.353e-9
-0.184, 2.217e-9
-0.183, 2.186e-9
-0.182, 2.296e-9
-0.181, 2.074e-9
-0.180, 2.246e-9
-0.179, 2.114e-9
-0.178, 2.094e-9
-0.177, 2.190e-9
-0.176, 1.985e-9
-0.175, 2.167e-9
-0.174, 2.008e-9
-0.173, 2.015e-9
-0.172, 2.116e-9
-0.171, 1.883e-9
-0.170, 2.092e-9
-0.169, 1.929e-9
-0.168, 1.920e-9
-0.167, 2.042e-9
-0.166, 1.802e-9
-0.165, 2.001e-9
-0.164, 1.866e-9
-0.163, 1.844e-9
-0.162, 1.954e-9
-0.161, 1.740e-9
-0.160, 1.936e-9
-0.159, 1.781e-9
-0.158, 1.779e-9
-0.157, 1.890e-9
-0.156, 1.661e-9
-0.155, 1.865e-9
-0.154, 1.719e-9
-0.153, 1.695e-9
-0.152, 1.831e-9
-0.151, 1.598e-9
-0.150, 1.782e-9
-0.149, 1.665e-9
-0.148, 1.641e-9
-0.147, 1.745e-9
-0.146, 1.545e-9
-0.145, 1.723e-9
-0.144, 1.591e-9
-0.143, 1.592e-9
-0.142, 1.688e-9
-0.141, 1.468e-9
-0.140, 1.685e-9
-0.139, 1.527e-9
-0.138, 1.523e-9
-0.137, 1.639e-9
-0.136, 1.416e-9
-0.135, 1.612e-9
-0.134, 1.477e-9
-0.133, 1.466e-9
-0.132, 1.575e-9
-0.131, 1.362e-9
-0.130, 1.563e-9
-0.129, 1.402e-9
-0.128, 1.419e-9
-0.127, 1.521e-9
-0.126, 1.292e-9
-0.125, 1.515e-9
-0.124, 1.353e-9
-0.123, 1.347e-9
-0.122, 1.476e-9
-0.121, 1.241e-9
-0.120, 1.446e-9
-0.119, 1.314e-9
-0.118, 1.290e-9
-0.117, 1.407e-9
-0.116, 1.197e-9
-0.115, 1.383e-9
-0.114, 1.241e-9
-0.113, 1.243e-9
-0.112, 1.350e-9
-0.111, 1.132e-9
-0.110, 1.331e-9
-0.109, 1.184e-9
-0.108, 1.173e-9
-0.107, 1.293e-9
-0.106, 1.069e-9
-0.105, 1.256e-9
-0.104, 1.131e-9
-0.103, 1.110e-9
-0.102, 1.206e-9
-0.101, 1.017e-9
-0.100, 1.192e-9
-0.099, 1.041e-9
-0.098, 1.058e-9
-0.097, 1.141e-9
-0.096, 9.271e-10
-0.095, 1.142e-9
-0.094, 9.612e-10
-0.093, 9.694e-10
-0.092, 1.076e-9
-0.091, 8.413e-10
-0.090, 1.040e-9
-0.089, 8.847e-10
-0.088, 8.825e-10
-0.087, 9.812e-10
-0.086, 7.580e-10
-0.085, 9.466e-10
-0.084, 7.841e-10
-0.083, 7.912e-10
-0.082, 8.806e-10
-0.081, 6.412e-10
-0.080, 8.598e-10
-0.079, 6.823e-10
-0.078, 6.634e-10
-0.077, 7.722e-10
-0.076, 5.235e-10
-0.075, 7.181e-10
-0.074, 5.688e-10
-0.073, 5.336e-10
-0.072, 6.298e-10
-0.071, 4.077e-10
-0.070, 5.751e-10
-0.069, 4.113e-10
-0.068, 3.979e-10
-0.067, 4.685e-10
-0.066, 2.405e-10
-0.065, 4.166e-10
-0.064, 2.421e-10
-0.063, 2.143e-10
-0.062, 2.965e-10
-0.061, 5.412e-11
-0.060, 2.187e-10
-0.059, 5.079e-11
-0.058, 2.204e-11
-0.057, 7.710e-11
-0.056, -1.470e-10
-0.055, -1.613e-12
-0.054, -1.948e-10
-0.053, -2.063e-10
-0.052, -1.750e-10
-0.051, -4.269e-10
-0.050, -2.520e-10
-0.049, -4.750e-10
-0.048, -5.009e-10
-0.047, -4.505e-10
-0.046, -7.335e-10
-0.045, -5.793e-10
-0.044, -7.803e-10
-0.043, -8.482e-10
-0.042, -8.099e-10
-0.041, -1.083e-9
-0.040, -9.489e-10
-0.039, -1.178e-9
-0.038, -1.236e-9
-0.037, -1.220e-9
-0.036, -1.514e-9
-0.035, -1.380e-9
-0.034, -1.636e-9
-0.033, -1.721e-9
-0.032, -1.700e-9
-0.031, -2.018e-9
-0.030, -1.930e-9
-0.029, -2.165e-9
-0.028, -2.279e-9
-0.027, -2.293e-9
-0.026, -2.609e-9
-0.025, -2.557e-9
-0.024, -2.821e-9
-0.023, -2.928e-9
-0.022, -2.997e-9
-0.021, -3.332e-9
-0.020, -3.279e-9
-0.019, -3.585e-9
-0.018, -3.714e-9
-0.017, -3.793e-9
-0.016, -4.155e-9
-0.015, -4.137e-9
-0.014, -4.475e-9
-0.013, -4.650e-9
-0.012, -4.751e-9
-0.011, -5.145e-9
-0.010, -5.153e-9
-0.009, -5.533e-9
-0.008, -5.714e-9
-0.007, -5.862e-9
-0.006, -6.310e-9
-0.005, -6.330e-9
-0.004, -6.745e-9
-0.003, -6.988e-9
-0.002, -7.147e-9
-0.001, -7.647e-9
-0.000, -7.819e-9
0.001, -8.200e-9
0.002, -8.489e-9
0.003, -8.683e-9
0.004, -9.196e-9
0.005, -9.326e-9
0.006, -9.802e-9
0.007, -1.012e-8
0.008, -1.039e-8
0.009, -1.093e-8
0.010, -1.112e-8
0.011, -1.163e-8
0.012, -1.200e-8
0.013, -1.231e-8
0.014, -1.289e-8
0.015, -1.314e-8
0.016, -1.366e-8
0.017, -1.408e-8
0.018, -1.446e-8
0.019, -1.506e-8
0.020, -1.535e-8
0.021, -1.595e-8
0.022, -1.638e-8
0.023, -1.680e-8
0.024, -1.744e-8
0.025, -1.774e-8
0.026, -1.841e-8
0.027, -1.888e-8
0.028, -1.929e-8
0.029, -1.998e-8
0.030, -2.030e-8
0.031, -2.099e-8
0.032, -2.145e-8
0.033, -2.192e-8
0.034, -2.264e-8
0.035, -2.296e-8
0.036, -2.369e-8
0.037, -2.416e-8
0.038, -2.463e-8
0.039, -2.536e-8
0.040, -2.567e-8
0.041, -2.638e-8
0.042, -2.690e-8
0.043, -2.732e-8
0.044, -2.802e-8
0.045, -2.835e-8
0.046, -2.902e-8
0.047, -2.951e-8
0.048, -2.992e-8
0.049, -3.059e-8
0.050, -3.092e-8
0.051, -3.156e-8
0.052, -3.200e-8
0.053, -3.238e-8
0.054, -3.300e-8
0.055, -3.329e-8
0.056, -3.382e-8
0.057, -3.423e-8
0.058, -3.456e-8
0.059, -3.510e-8
0.060, -3.533e-8
0.061, -3.583e-8
0.062, -3.614e-8
0.063, -3.644e-8
0.064, -3.690e-8
0.065, -3.705e-8
0.066, -3.750e-8
0.067, -3.770e-8
0.068, -3.793e-8
0.069, -3.833e-8
0.070, -3.837e-8
0.071, -3.878e-8
0.072, -3.891e-8
0.073, -3.905e-8
0.074, -3.938e-8
0.075, -3.933e-8
0.076, -3.966e-8
0.077, -3.975e-8
0.078, -3.977e-8
0.079, -4.007e-8
0.080, -3.992e-8
0.081, -4.016e-8
0.082, -4.019e-8
0.083, -4.013e-8
0.084, -4.036e-8
0.085, -4.016e-8
0.086, -4.033e-8
0.087, -4.029e-8
0.088, -4.017e-8
0.089, -4.034e-8
0.090, -4.012e-8
0.091, -4.021e-8
0.092, -4.010e-8
0.093, -3.996e-8
0.094, -4.004e-8
0.095, -3.979e-8
0.096, -3.982e-8
0.097, -3.969e-8
0.098, -3.951e-8
0.099, -3.956e-8
0.100, -3.925e-8
0.101, -3.927e-8
0.102, -3.911e-8
0.103, -3.891e-8
0.104, -3.892e-8
0.105, -3.857e-8
0.106, -3.857e-8
0.107, -3.836e-8
0.108, -3.814e-8
0.109, -3.813e-8
0.110, -3.777e-8
0.111, -3.778e-8
0.112, -3.754e-8
0.113, -3.729e-8
0.114, -3.732e-8
0.115, -3.692e-8
0.116, -3.692e-8
0.117, -3.669e-8
0.118, -3.642e-8
0.119, -3.644e-8
0.120, -3.602e-8
0.121, -3.602e-8
0.122, -3.580e-8
0.123, -3.553e-8
0.124, -3.554e-8
0.125, -3.514e-8
0.126, -3.512e-8
0.127, -3.491e-8
0.128, -3.466e-8
0.129, -3.466e-8
0.130, -3.427e-8
0.131, -3.425e-8
0.132, -3.404e-8
0.133, -3.379e-8
0.134, -3.379e-8
0.135, -3.343e-8
0.136, -3.341e-8
0.137, -3.319e-8
0.138, -3.296e-8
0.139, -3.296e-8
0.140, -3.260e-8
0.141, -3.260e-8
0.142, -3.239e-8
0.143, -3.217e-8
0.144, -3.219e-8
0.145, -3.181e-8
0.146, -3.185e-8
0.147, -3.163e-8
0.148, -3.141e-8
0.149, -3.146e-8
0.150, -3.108e-8
0.151, -3.112e-8
0.152, -3.092e-8
0.153, -3.070e-8
0.154, -3.075e-8
0.155, -3.040e-8
0.156, -3.043e-8
0.157, -3.024e-8
0.158, -3.004e-8
0.159, -3.010e-8
0.160, -2.975e-8
0.161, -2.980e-8
0.162, -2.962e-8
0.163, -2.942e-8
0.164, -2.950e-8
0.165, -2.916e-8
0.166, -2.921e-8
0.167, -2.906e-8
0.168, -2.886e-8
0.169, -2.893e-8
0.170, -2.862e-8
0.171, -2.866e-8
0.172, -2.851e-8
0.173, -2.834e-8
0.174, -2.840e-8
0.175, -2.810e-8
0.176, -2.817e-8
0.177, -2.800e-8
0.178, -2.785e-8
0.179, -2.794e-8
0.180, -2.762e-8
0.181, -2.771e-8
0.182, -2.756e-8
0.183, -2.739e-8
0.184, -2.749e-8
0.185, -2.719e-8
0.186, -2.727e-8
0.187, -2.713e-8
0.188, -2.699e-8
0.189, -2.708e-8
0.190, -2.678e-8
0.191, -2.689e-8
0.192, -2.673e-8
0.193, -2.660e-8
0.194, -2.672e-8
0.195, -2.640e-8
0.196, -2.652e-8
0.197, -2.638e-8
0.198, -2.623e-8
0.199, -2.636e-8
0.200, -2.607e-8
0.201, -2.616e-8
0.202, -2.605e-8
0.203, -2.591e-8
0.204, -2.602e-8
0.205, -2.576e-8
0.206, -2.586e-8
0.207, -2.573e-8
0.208, -2.561e-8
0.209, -2.573e-8
0.210, -2.545e-8
0.211, -2.557e-8
0.212, -2.546e-8
0.213, -2.533e-8
0.214, -2.545e-8
0.215, -2.519e-8
0.216, -2.528e-8
0.217, -2.519e-8
0.218, -2.508e-8
0.219, -2.518e-8
0.220, -2.494e-8
0.221, -2.506e-8
0.222, -2.493e-8
0.223, -2.484e-8
0.224, -2.496e-8
0.225, -2.469e-8
0.226, -2.484e-8
0.227, -2.472e-8
0.228, -2.461e-8
0.229, -2.475e-8
0.230, -2.449e-8
0.231, -2.462e-8
0.232, -2.451e-8
0.233, -2.440e-8
0.234, -2.454e-8
0.235, -2.429e-8
0.236, -2.443e-8
0.237, -2.431e-8
0.238, -2.422e-8
0.239, -2.436e-8
0.240, -2.409e-8
0.241, -2.424e-8
0.242, -2.415e-8
0.243, -2.404e-8
0.244, -2.419e-8
0.245, -2.394e-8
0.246, -2.408e-8
0.247, -2.399e-8
0.248, -2.389e-8
0.249, -2.402e-8
0.250, -2.379e-8
0.251, -2.393e-8
0.252, -2.383e-8
0.253, -2.374e-8
0.254, -2.388e-8
0.255, -2.364e-8
0.256, -2.379e-8
0.257, -2.370e-8
0.258, -2.362e-8
0.259, -2.375e-8
0.260, -2.352e-8
0.261, -2.367e-8
0.262, -2.356e-8
0.263, -2.350e-8
0.264, -2.363e-8
0.265, -2.339e-8
0.266, -2.356e-8
0.267, -2.346e-8
0.268, -2.338e-8
0.269, -2.354e-8
0.270, -2.329e-8
0.271, -2.346e-8
0.272, -2.336e-8
0.273, -2.328e-8
0.274, -2.345e-8
0.275, -2.320e-8
0.276, -2.336e-8
0.277, -2.328e-8
0.278, -2.320e-8
0.279, -2.336e-8
0.280, -2.312e-8
0.281, -2.329e-8
0.282, -2.320e-8
0.283, -2.313e-8
0.284, -2.329e-8
0.285, -2.305e-8
0.286, -2.322e-8
0.287, -2.314e-8
0.288, -2.306e-8
0.289, -2.323e-8
0.290, -2.301e-8
0.291, -2.316e-8
0.292, -2.308e-8
0.293, -2.302e-8
0.294, -2.318e-8
0.295, -2.296e-8
0.296, -2.312e-8
0.297, -2.303e-8
0.298, -2.299e-8
0.299, -2.314e-8
0.300, -2.138e-8
0.299, -2.063e-8
0.298, -2.031e-8
0.297, -2.006e-8
0.296, -2.009e-8
0.295, -1.973e-8
0.294, -1.978e-8
0.293, -1.962e-8
0.292, -1.945e-8
0.291, -1.953e-8
0.290, -1.923e-8
0.289, -1.931e-8
0.288, -1.917e-8
0.287, -1.905e-8
0.286, -1.914e-8
0.285, -1.885e-8
0.284, -1.897e-8
0.283, -1.882e-8
0.282, -1.871e-8
0.281, -1.881e-8
0.280, -1.854e-8
0.279, -1.866e-8
0.278, -1.854e-8
0.277, -1.843e-8
0.276, -1.853e-8
0.275, -1.828e-8
0.274, -1.840e-8
0.273, -1.826e-8
0.272, -1.818e-8
0.271, -1.829e-8
0.270, -1.803e-8
0.269, -1.818e-8
0.268, -1.803e-8
0.267, -1.795e-8
0.266, -1.808e-8
0.265, -1.780e-8
0.264, -1.796e-8
0.263, -1.784e-8
0.262, -1.774e-8
0.261, -1.787e-8
0.260, -1.761e-8
0.259, -1.776e-8
0.258, -1.764e-8
0.257, -1.756e-8
0.256, -1.768e-8
0.255, -1.743e-8
0.254, -1.758e-8
0.253, -1.746e-8
0.252, -1.737e-8
0.251, -1.751e-8
0.250, -1.725e-8
0.249, -1.740e-8
0.248, -1.730e-8
0.247, -1.720e-8
0.246, -1.734e-8
0.245, -1.710e-8
0.244, -1.722e-8
0.243, -1.712e-8
0.242, -1.705e-8
0.241, -1.716e-8
0.240, -1.693e-8
0.239, -1.708e-8
0.238, -1.695e-8
0.237, -1.690e-8
0.236, -1.701e-8
0.235, -1.676e-8
0.234, -1.693e-8
0.233, -1.681e-8
0.232, -1.673e-8
0.231, -1.686e-8
0.230, -1.662e-8
0.229, -1.677e-8
0.228, -1.665e-8
0.227, -1.659e-8
0.226, -1.671e-8
0.225, -1.647e-8
0.224, -1.663e-8
0.223, -1.649e-8
0.222, -1.643e-8
0.221, -1.658e-8
0.220, -1.630e-8
0.219, -1.648e-8
0.218, -1.636e-8
0.217, -1.627e-8
0.216, -1.642e-8
0.215, -1.616e-8
0.214, -1.631e-8
0.213, -1.620e-8
0.212, -1.612e-8
0.211, -1.626e-8
0.210, -1.601e-8
0.209, -1.616e-8
0.208, -1.604e-8
0.207, -1.597e-8
0.206, -1.610e-8
0.205, -1.584e-8
0.204, -1.600e-8
0.203, -1.589e-8
0.202, -1.581e-8
0.201, -1.593e-8
0.200, -1.569e-8
0.199, -1.584e-8
0.198, -1.571e-8
0.197, -1.565e-8
0.196, -1.575e-8
0.195, -1.552e-8
0.194, -1.567e-8
0.193, -1.553e-8
0.192, -1.546e-8
0.191, -1.558e-8
0.190, -1.532e-8
0.189, -1.548e-8
0.188, -1.533e-8
0.187, -1.527e-8
0.186, -1.539e-8
0.185, -1.511e-8
0.184, -1.527e-8
0.183, -1.513e-8
0.182, -1.505e-8
0.181, -1.516e-8
0.180, -1.489e-8
0.179, -1.505e-8
0.178, -1.490e-8
0.177, -1.481e-8
0.176, -1.493e-8
0.175, -1.466e-8
0.174, -1.480e-8
0.173, -1.465e-8
0.172, -1.455e-8
0.171, -1.466e-8
0.170, -1.439e-8
0.169, -1.451e-8
0.168, -1.437e-8
0.167, -1.427e-8
0.166, -1.435e-8
0.165, -1.409e-8
0.164, -1.420e-8
0.163, -1.404e-8
0.162, -1.394e-8
0.161, -1.401e-8
0.160, -1.373e-8
0.159, -1.385e-8
0.158, -1.367e-8
0.157, -1.356e-8
0.156, -1.362e-8
0.155, -1.334e-8
0.154, -1.344e-8
0.153, -1.324e-8
0.152, -1.314e-8
0.151, -1.319e-8
0.150, -1.288e-8
0.149, -1.298e-8
0.148, -1.276e-8
0.147, -1.264e-8
0.146, -1.267e-8
0.145, -1.234e-8
0.144, -1.244e-8
0.143, -1.220e-8
0.142, -1.205e-8
0.141, -1.209e-8
0.140, -1.173e-8
0.139, -1.179e-8
0.138, -1.156e-8
0.137, -1.137e-8
0.136, -1.139e-8
0.135, -1.103e-8
0.134, -1.105e-8
0.133, -1.079e-8
0.132, -1.060e-8
0.131, -1.058e-8
0.130, -1.019e-8
0.129, -1.019e-8
0.128, -9.902e-9
0.127, -9.679e-9
0.126, -9.641e-9
0.125, -9.215e-9
0.124, -9.185e-9
0.123, -8.891e-9
0.122, -8.626e-9
0.121, -8.532e-9
0.120, -8.111e-9
0.119, -8.032e-9
0.118, -7.682e-9
0.117, -7.420e-9
0.116, -7.262e-9
0.115, -6.794e-9
0.114, -6.699e-9
0.113, -6.289e-9
0.112, -5.999e-9
0.111, -5.827e-9
0.110, -5.298e-9
0.109, -5.186e-9
0.108, -4.737e-9
0.107, -4.395e-9
0.106, -4.192e-9
0.105, -3.622e-9
0.104, -3.443e-9
0.103, -2.967e-9
0.102, -2.571e-9
0.101, -2.324e-9
0.100, -1.724e-9
0.099, -1.524e-9
0.098, -9.889e-10
0.097, -5.582e-10
0.096, -2.758e-10
0.095, 3.840e-10
0.094, 6.370e-10
0.093, 1.202e-9
0.092, 1.708e-9
0.091, 2.008e-9
0.090, 2.692e-9
0.089, 3.018e-9
0.088, 3.569e-9
0.087, 4.097e-9
0.086, 4.477e-9
0.085, 5.163e-9
0.084, 5.528e-9
0.083, 6.107e-9
0.082, 6.652e-9
0.081, 7.078e-9
0.080, 7.777e-9
0.079, 8.154e-9
0.078, 8.789e-9
0.077, 9.339e-9
0.076, 9.794e-9
0.075, 1.049e-8
0.074, 1.086e-8
0.073, 1.151e-8
0.072, 1.204e-8
0.071, 1.247e-8
0.070, 1.318e-8
0.069, 1.354e-8
0.068, 1.420e-8
0.067, 1.469e-8
0.066, 1.511e-8
0.065, 1.584e-8
0.064, 1.616e-8
0.063, 1.677e-8
0.062, 1.726e-8
0.061, 1.762e-8
0.060, 1.833e-8
0.059, 1.859e-8
0.058, 1.916e-8
0.057, 1.964e-8
0.056, 1.992e-8
0.055, 2.055e-8
0.054, 2.079e-8
0.053, 2.129e-8
0.052, 2.172e-8
0.051, 2.194e-8
0.050, 2.250e-8
0.049, 2.269e-8
0.048, 2.309e-8
0.047, 2.345e-8
0.046, 2.361e-8
0.045, 2.407e-8
0.044, 2.422e-8
0.043, 2.454e-8
0.042, 2.479e-8
0.041, 2.493e-8
0.040, 2.530e-8
0.039, 2.535e-8
0.038, 2.563e-8
0.037, 2.579e-8
0.036, 2.587e-8
0.035, 2.615e-8
0.034, 2.611e-8
0.033, 2.634e-8
0.032, 2.642e-8
0.031, 2.639e-8
0.030, 2.665e-8
0.029, 2.652e-8
0.028, 2.669e-8
0.027, 2.670e-8
0.026, 2.661e-8
0.025, 2.682e-8
0.024, 2.661e-8
0.023, 2.673e-8
0.022, 2.668e-8
0.021, 2.653e-8
0.020, 2.670e-8
0.019, 2.641e-8
0.018, 2.649e-8
0.017, 2.643e-8
0.016, 2.619e-8
0.015, 2.633e-8
0.014, 2.604e-8
0.013, 2.604e-8
0.012, 2.596e-8
0.011, 2.569e-8
0.010, 2.577e-8
0.009, 2.547e-8
0.008, 2.543e-8
0.007, 2.531e-8
0.006, 2.505e-8
0.005, 2.509e-8
0.004, 2.477e-8
0.003, 2.473e-8
0.002, 2.457e-8
0.001, 2.429e-8
0.000, 2.443e-8
-0.001, 2.402e-8
-0.002, 2.395e-8
-0.003, 2.378e-8
-0.004, 2.350e-8
-0.005, 2.351e-8
-0.006, 2.316e-8
-0.007, 2.311e-8
-0.008, 2.292e-8
-0.009, 2.265e-8
-0.010, 2.266e-8
-0.011, 2.229e-8
-0.012, 2.227e-8
-0.013, 2.208e-8
-0.014, 2.178e-8
-0.015, 2.184e-8
-0.016, 2.145e-8
-0.017, 2.141e-8
-0.018, 2.124e-8
-0.019, 2.094e-8
-0.020, 2.099e-8
-0.021, 2.063e-8
-0.022, 2.057e-8
-0.023, 2.042e-8
-0.024, 2.014e-8
-0.025, 2.018e-8
-0.026, 1.983e-8
-0.027, 1.980e-8
-0.028, 1.964e-8
-0.029, 1.935e-8
-0.030, 1.941e-8
-0.031, 1.907e-8
-0.032, 1.902e-8
-0.033, 1.889e-8
-0.034, 1.862e-8
-0.035, 1.867e-8
-0.036, 1.835e-8
-0.037, 1.831e-8
-0.038, 1.818e-8
-0.039, 1.793e-8
-0.040, 1.799e-8
-0.041, 1.766e-8
-0.042, 1.766e-8
-0.043, 1.751e-8
-0.044, 1.727e-8
-0.045, 1.735e-8
-0.046, 1.701e-8
-0.047, 1.703e-8
-0.048, 1.690e-8
-0.049, 1.665e-8
-0.050, 1.675e-8
-0.051, 1.643e-8
-0.052, 1.644e-8
-0.053, 1.631e-8
-0.054, 1.608e-8
-0.055, 1.618e-8
-0.056, 1.586e-8
-0.057, 1.589e-8
-0.058, 1.578e-8
-0.059, 1.555e-8
-0.060, 1.567e-8
-0.061, 1.535e-8
-0.062, 1.538e-8
-0.063, 1.529e-8
-0.064, 1.506e-8
-0.065, 1.517e-8
-0.066, 1.489e-8
-0.067, 1.491e-8
-0.068, 1.483e-8
-0.069, 1.460e-8
-0.070, 1.472e-8
-0.071, 1.445e-8
-0.072, 1.448e-8
-0.073, 1.439e-8
-0.074, 1.419e-8
-0.075, 1.432e-8
-0.076, 1.404e-8
-0.077, 1.408e-8
-0.078, 1.400e-8
-0.079, 1.381e-8
-0.080, 1.393e-8
-0.081, 1.366e-8
-0.082, 1.372e-8
-0.083, 1.362e-8
-0.084, 1.345e-8
-0.085, 1.357e-8
-0.086, 1.330e-8
-0.087, 1.338e-8
-0.088, 1.329e-8
-0.089, 1.311e-8
-0.090, 1.326e-8
-0.091, 1.298e-8
-0.092, 1.306e-8
-0.093, 1.298e-8
-0.094, 1.279e-8
-0.095, 1.295e-8
-0.096, 1.268e-8
-0.097, 1.275e-8
-0.098, 1.269e-8
-0.099, 1.251e-8
-0.100, 1.266e-8
-0.101, 1.240e-8
-0.102, 1.249e-8
-0.103, 1.242e-8
-0.104, 1.225e-8
-0.105, 1.240e-8
-0.106, 1.215e-8
-0.107, 1.224e-8
-0.108, 1.218e-8
-0.109, 1.199e-8
-0.110, 1.217e-8
-0.111, 1.192e-8
-0.112, 1.199e-8
-0.113, 1.194e-8
-0.114, 1.178e-8
-0.115, 1.193e-8
-0.116, 1.170e-8
-0.117, 1.177e-8
-0.118, 1.171e-8
-0.119, 1.157e-8
-0.120, 1.172e-8
-0.121, 1.147e-8
-0.122, 1.158e-8
-0.123, 1.151e-8
-0.124, 1.136e-8
-0.125, 1.153e-8
-0.126, 1.127e-8
-0.127, 1.137e-8
-0.128, 1.134e-8
-0.129, 1.117e-8
-0.130, 1.134e-8
-0.131, 1.110e-8
-0.132, 1.121e-8
-0.133, 1.114e-8
-0.134, 1.101e-8
-0.135, 1.117e-8
-0.136, 1.093e-8
-0.137, 1.105e-8
-0.138, 1.098e-8
-0.139, 1.084e-8
-0.140, 1.103e-8
-0.141, 1.077e-8
-0.142, 1.088e-8
-0.143, 1.085e-8
-0.144, 1.069e-8
-0.145, 1.087e-8
-0.146, 1.064e-8
-0.147, 1.073e-8
-0.148, 1.071e-8
-0.149, 1.057e-8
-0.150, 1.072e-8
-0.151, 1.050e-8
-0.152, 1.062e-8
-0.153, 1.057e-8
-0.154, 1.043e-8
-0.155, 1.061e-8
-0.156, 1.038e-8
-0.157, 1.049e-8
-0.158, 1.045e-8
-0.159, 1.032e-8
-0.160, 1.049e-8
-0.161, 1.027e-8
-0.162, 1.038e-8
-0.163, 1.034e-8
-0.164, 1.022e-8
-0.165, 1.038e-8
-0.166, 1.016e-8
-0.167, 1.029e-8
-0.168, 1.023e-8
-0.169, 1.011e-8
-0.170, 1.030e-8
-0.171, 1.006e-8
-0.172, 1.019e-8
-0.173, 1.015e-8
-0.174, 1.001e-8
-0.175, 1.021e-8
-0.176, 9.972e-9
-0.177, 1.010e-8
-0.178, 1.007e-8
-0.179, 9.943e-9
-0.180, 1.013e-8
-0.181, 9.899e-9
-0.182, 1.003e-8
-0.183, 9.994e-9
-0.184, 9.867e-9
-0.185, 1.006e-8
-0.186, 9.835e-9
-0.187, 9.961e-9
-0.188, 9.934e-9
-0.189, 9.799e-9
-0.190, 9.991e-9
-0.191, 9.782e-9
-0.192, 9.908e-9
-0.193, 9.868e-9
-0.194, 9.762e-9
-0.195, 9.938e-9
-0.196, 9.730e-9
-0.197, 9.862e-9
-0.198, 9.819e-9
-0.199, 9.716e-9
