Mar. 16, 2023   09:26:37
Cyclic Voltammetry
File: c:/users/oliverrz/desktop/electrolab/data/2023_03_16\fcmeoh_macros_500_um\electrode7_cv_250mvs_500_um.bin
Data Source:  Experiment
Instrument Model:  CHI760E
Header: CV
Note: 

Init E (V) = -0.2
High E (V) = 0.3
Low E (V) = -0.2
Final E (V) = -0.2
Init P/N = P
Scan Rate (V/s) = 0.25
Segment = 3
Sample Interval (V) = 0.001
Quiet Time (sec) = 2
Sensitivity (A/V) = 1e-7

Results:

Channel 1:
Segment 1:
Ep = 0.091V
ip = -5.078e-8A
Ah = -1.251e-8C

Segment 2:
Ep = 0.032V
ip = 4.712e-8A
Ah = 1.140e-8C

Segment 3:

Potential/V, Current/A

-0.200, 2.222e-9
-0.199, 1.576e-9
-0.198, 1.422e-9
-0.197, 1.176e-9
-0.196, 1.176e-9
-0.195, 1.360e-9
-0.194, 1.299e-9
-0.193, 1.053e-9
-0.192, 1.022e-9
-0.191, 1.237e-9
-0.190, 1.207e-9
-0.189, 9.913e-10
-0.188, 8.682e-10
-0.187, 1.084e-9
-0.186, 1.145e-9
-0.185, 9.298e-10
-0.184, 8.067e-10
-0.183, 9.605e-10
-0.182, 1.053e-9
-0.181, 9.298e-10
-0.180, 7.144e-10
-0.179, 8.375e-10
-0.178, 1.022e-9
-0.177, 8.682e-10
-0.176, 6.836e-10
-0.175, 7.452e-10
-0.174, 9.298e-10
-0.173, 8.375e-10
-0.172, 5.913e-10
-0.171, 6.529e-10
-0.170, 8.682e-10
-0.169, 8.067e-10
-0.168, 5.913e-10
-0.167, 5.298e-10
-0.166, 7.759e-10
-0.165, 7.759e-10
-0.164, 5.606e-10
-0.163, 4.683e-10
-0.162, 6.529e-10
-0.161, 7.452e-10
-0.160, 5.298e-10
-0.159, 4.068e-10
-0.158, 5.913e-10
-0.157, 7.144e-10
-0.156, 5.298e-10
-0.155, 3.452e-10
-0.154, 4.683e-10
-0.153, 6.221e-10
-0.152, 4.991e-10
-0.151, 3.145e-10
-0.150, 3.760e-10
-0.149, 5.913e-10
-0.148, 4.991e-10
-0.147, 2.529e-10
-0.146, 3.145e-10
-0.145, 4.991e-10
-0.144, 4.683e-10
-0.143, 2.529e-10
-0.142, 2.222e-10
-0.141, 4.375e-10
-0.140, 4.375e-10
-0.139, 2.222e-10
-0.138, 1.606e-10
-0.137, 3.452e-10
-0.136, 4.375e-10
-0.135, 2.222e-10
-0.134, 6.834e-11
-0.133, 2.837e-10
-0.132, 3.760e-10
-0.131, 2.222e-10
-0.130, 3.758e-11
-0.129, 1.606e-10
-0.128, 3.452e-10
-0.127, 1.914e-10
-0.126, 6.813e-12
-0.125, 9.911e-11
-0.124, 2.529e-10
-0.123, 1.914e-10
-0.122, -5.472e-11
-0.121, 6.813e-12
-0.120, 2.222e-10
-0.119, 1.606e-10
-0.118, -5.472e-11
-0.117, -8.548e-11
-0.116, 1.299e-10
-0.115, 1.299e-10
-0.114, -8.548e-11
-0.113, -1.470e-10
-0.112, 6.834e-11
-0.111, 9.911e-11
-0.110, -8.548e-11
-0.109, -2.085e-10
-0.108, -5.472e-11
-0.107, 6.834e-11
-0.106, -1.162e-10
-0.105, -2.701e-10
-0.104, -1.470e-10
-0.103, 6.813e-12
-0.102, -1.470e-10
-0.101, -3.316e-10
-0.100, -2.701e-10
-0.099, -5.472e-11
-0.098, -1.470e-10
-0.097, -3.931e-10
-0.096, -3.316e-10
-0.095, -1.470e-10
-0.094, -2.085e-10
-0.093, -4.239e-10
-0.092, -4.547e-10
-0.091, -2.393e-10
-0.090, -2.393e-10
-0.089, -4.854e-10
-0.088, -5.470e-10
-0.087, -3.624e-10
-0.086, -3.008e-10
-0.085, -4.854e-10
-0.084, -6.700e-10
-0.083, -4.547e-10
-0.082, -3.931e-10
-0.081, -5.777e-10
-0.080, -7.315e-10
-0.079, -6.393e-10
-0.078, -4.854e-10
-0.077, -6.393e-10
-0.076, -8.546e-10
-0.075, -7.315e-10
-0.074, -6.085e-10
-0.073, -7.008e-10
-0.072, -9.469e-10
-0.071, -9.161e-10
-0.070, -7.315e-10
-0.069, -8.238e-10
-0.068, -1.039e-9
-0.067, -1.070e-9
-0.066, -8.854e-10
-0.065, -9.161e-10
-0.064, -1.162e-9
-0.063, -1.255e-9
-0.062, -1.101e-9
-0.061, -1.039e-9
-0.060, -1.285e-9
-0.059, -1.439e-9
-0.058, -1.285e-9
-0.057, -1.224e-9
-0.056, -1.408e-9
-0.055, -1.624e-9
-0.054, -1.562e-9
-0.053, -1.408e-9
-0.052, -1.624e-9
-0.051, -1.839e-9
-0.050, -1.808e-9
-0.049, -1.685e-9
-0.048, -1.808e-9
-0.047, -2.085e-9
-0.046, -2.116e-9
-0.045, -1.931e-9
-0.044, -2.085e-9
-0.043, -2.331e-9
-0.042, -2.424e-9
-0.041, -2.301e-9
-0.040, -2.331e-9
-0.039, -2.670e-9
-0.038, -2.793e-9
-0.037, -2.670e-9
-0.036, -2.701e-9
-0.035, -2.977e-9
-0.034, -3.224e-9
-0.033, -3.131e-9
-0.032, -3.100e-9
-0.031, -3.408e-9
-0.030, -3.654e-9
-0.029, -3.623e-9
-0.028, -3.593e-9
-0.027, -3.839e-9
-0.026, -4.177e-9
-0.025, -4.208e-9
-0.024, -4.146e-9
-0.023, -4.393e-9
-0.022, -4.731e-9
-0.021, -4.823e-9
-0.020, -4.793e-9
-0.019, -5.008e-9
-0.018, -5.377e-9
-0.017, -5.592e-9
-0.016, -5.500e-9
-0.015, -5.715e-9
-0.014, -6.146e-9
-0.013, -6.362e-9
-0.012, -6.423e-9
-0.011, -6.546e-9
-0.010, -6.977e-9
-0.009, -7.346e-9
-0.008, -7.346e-9
-0.007, -7.531e-9
-0.006, -7.931e-9
-0.005, -8.331e-9
-0.004, -8.515e-9
-0.003, -8.607e-9
-0.002, -9.069e-9
-0.001, -9.530e-9
-0.000, -9.869e-9
0.001, -9.930e-9
0.002, -1.033e-8
0.003, -1.085e-8
0.004, -1.116e-8
0.005, -1.128e-8
0.006, -1.175e-8
0.007, -1.230e-8
0.008, -1.267e-8
0.009, -1.288e-8
0.010, -1.331e-8
0.011, -1.393e-8
0.012, -1.442e-8
0.013, -1.464e-8
0.014, -1.507e-8
0.015, -1.574e-8
0.016, -1.630e-8
0.017, -1.661e-8
0.018, -1.701e-8
0.019, -1.768e-8
0.020, -1.836e-8
0.021, -1.876e-8
0.022, -1.913e-8
0.023, -1.984e-8
0.024, -2.054e-8
0.025, -2.107e-8
0.026, -2.147e-8
0.027, -2.211e-8
0.028, -2.297e-8
0.029, -2.350e-8
0.030, -2.393e-8
0.031, -2.467e-8
0.032, -2.541e-8
0.033, -2.611e-8
0.034, -2.654e-8
0.035, -2.722e-8
0.036, -2.811e-8
0.037, -2.876e-8
0.038, -2.928e-8
0.039, -2.993e-8
0.040, -3.073e-8
0.041, -3.159e-8
0.042, -3.205e-8
0.043, -3.263e-8
0.044, -3.353e-8
0.045, -3.433e-8
0.046, -3.491e-8
0.047, -3.543e-8
0.048, -3.623e-8
0.049, -3.707e-8
0.050, -3.765e-8
0.051, -3.814e-8
0.052, -3.894e-8
0.053, -3.974e-8
0.054, -4.036e-8
0.055, -4.079e-8
0.056, -4.146e-8
0.057, -4.230e-8
0.058, -4.288e-8
0.059, -4.322e-8
0.060, -4.386e-8
0.061, -4.457e-8
0.062, -4.519e-8
0.063, -4.553e-8
0.064, -4.596e-8
0.065, -4.673e-8
0.066, -4.728e-8
0.067, -4.756e-8
0.068, -4.793e-8
0.069, -4.848e-8
0.070, -4.903e-8
0.071, -4.931e-8
0.072, -4.949e-8
0.073, -5.002e-8
0.074, -5.045e-8
0.075, -5.066e-8
0.076, -5.085e-8
0.077, -5.119e-8
0.078, -5.162e-8
0.079, -5.180e-8
0.080, -5.174e-8
0.081, -5.208e-8
0.082, -5.239e-8
0.083, -5.251e-8
0.084, -5.248e-8
0.085, -5.260e-8
0.086, -5.288e-8
0.087, -5.300e-8
0.088, -5.282e-8
0.089, -5.288e-8
0.090, -5.303e-8
0.091, -5.312e-8
0.092, -5.297e-8
0.093, -5.282e-8
0.094, -5.297e-8
0.095, -5.303e-8
0.096, -5.282e-8
0.097, -5.260e-8
0.098, -5.266e-8
0.099, -5.269e-8
0.100, -5.251e-8
0.101, -5.217e-8
0.102, -5.217e-8
0.103, -5.220e-8
0.104, -5.199e-8
0.105, -5.162e-8
0.106, -5.149e-8
0.107, -5.146e-8
0.108, -5.131e-8
0.109, -5.085e-8
0.110, -5.069e-8
0.111, -5.072e-8
0.112, -5.048e-8
0.113, -5.008e-8
0.114, -4.983e-8
0.115, -4.977e-8
0.116, -4.965e-8
0.117, -4.922e-8
0.118, -4.888e-8
0.119, -4.882e-8
0.120, -4.869e-8
0.121, -4.833e-8
0.122, -4.793e-8
0.123, -4.780e-8
0.124, -4.774e-8
0.125, -4.737e-8
0.126, -4.694e-8
0.127, -4.682e-8
0.128, -4.673e-8
0.129, -4.645e-8
0.130, -4.596e-8
0.131, -4.577e-8
0.132, -4.574e-8
0.133, -4.546e-8
0.134, -4.500e-8
0.135, -4.479e-8
0.136, -4.473e-8
0.137, -4.454e-8
0.138, -4.408e-8
0.139, -4.380e-8
0.140, -4.377e-8
0.141, -4.362e-8
0.142, -4.319e-8
0.143, -4.288e-8
0.144, -4.282e-8
0.145, -4.273e-8
0.146, -4.236e-8
0.147, -4.196e-8
0.148, -4.190e-8
0.149, -4.186e-8
0.150, -4.150e-8
0.151, -4.113e-8
0.152, -4.100e-8
0.153, -4.100e-8
0.154, -4.076e-8
0.155, -4.030e-8
0.156, -4.020e-8
0.157, -4.020e-8
0.158, -3.996e-8
0.159, -3.962e-8
0.160, -3.937e-8
0.161, -3.943e-8
0.162, -3.925e-8
0.163, -3.885e-8
0.164, -3.866e-8
0.165, -3.866e-8
0.166, -3.860e-8
0.167, -3.820e-8
0.168, -3.793e-8
0.169, -3.796e-8
0.170, -3.793e-8
0.171, -3.759e-8
0.172, -3.728e-8
0.173, -3.728e-8
0.174, -3.731e-8
0.175, -3.703e-8
0.176, -3.667e-8
0.177, -3.667e-8
0.178, -3.670e-8
0.179, -3.648e-8
0.180, -3.614e-8
0.181, -3.605e-8
0.182, -3.611e-8
0.183, -3.596e-8
0.184, -3.562e-8
0.185, -3.550e-8
0.186, -3.559e-8
0.187, -3.547e-8
0.188, -3.513e-8
0.189, -3.497e-8
0.190, -3.503e-8
0.191, -3.503e-8
0.192, -3.470e-8
0.193, -3.448e-8
0.194, -3.457e-8
0.195, -3.454e-8
0.196, -3.430e-8
0.197, -3.402e-8
0.198, -3.405e-8
0.199, -3.417e-8
0.200, -3.387e-8
0.201, -3.365e-8
0.202, -3.362e-8
0.203, -3.371e-8
0.204, -3.359e-8
0.205, -3.322e-8
0.206, -3.322e-8
0.207, -3.334e-8
0.208, -3.319e-8
0.209, -3.291e-8
0.210, -3.282e-8
0.211, -3.294e-8
0.212, -3.288e-8
0.213, -3.254e-8
0.214, -3.248e-8
0.215, -3.257e-8
0.216, -3.257e-8
0.217, -3.230e-8
0.218, -3.211e-8
0.219, -3.220e-8
0.220, -3.227e-8
0.221, -3.202e-8
0.222, -3.177e-8
0.223, -3.187e-8
0.224, -3.196e-8
0.225, -3.174e-8
0.226, -3.150e-8
0.227, -3.153e-8
0.228, -3.168e-8
0.229, -3.153e-8
0.230, -3.125e-8
0.231, -3.125e-8
0.232, -3.137e-8
0.233, -3.131e-8
0.234, -3.104e-8
0.235, -3.094e-8
0.236, -3.113e-8
0.237, -3.107e-8
0.238, -3.079e-8
0.239, -3.073e-8
0.240, -3.082e-8
0.241, -3.088e-8
0.242, -3.060e-8
0.243, -3.045e-8
0.244, -3.060e-8
0.245, -3.064e-8
0.246, -3.042e-8
0.247, -3.024e-8
0.248, -3.033e-8
0.249, -3.045e-8
0.250, -3.027e-8
0.251, -3.002e-8
0.252, -3.011e-8
0.253, -3.024e-8
0.254, -3.011e-8
0.255, -2.987e-8
0.256, -2.990e-8
0.257, -3.005e-8
0.258, -2.999e-8
0.259, -2.971e-8
0.260, -2.968e-8
0.261, -2.984e-8
0.262, -2.984e-8
0.263, -2.959e-8
0.264, -2.950e-8
0.265, -2.965e-8
0.266, -2.968e-8
0.267, -2.944e-8
0.268, -2.934e-8
0.269, -2.947e-8
0.270, -2.956e-8
0.271, -2.934e-8
0.272, -2.919e-8
0.273, -2.928e-8
0.274, -2.944e-8
0.275, -2.925e-8
0.276, -2.904e-8
0.277, -2.913e-8
0.278, -2.928e-8
0.279, -2.919e-8
0.280, -2.891e-8
0.281, -2.897e-8
0.282, -2.919e-8
0.283, -2.907e-8
0.284, -2.885e-8
0.285, -2.882e-8
0.286, -2.900e-8
0.287, -2.904e-8
0.288, -2.876e-8
0.289, -2.873e-8
0.290, -2.888e-8
0.291, -2.894e-8
0.292, -2.873e-8
0.293, -2.857e-8
0.294, -2.876e-8
0.295, -2.885e-8
0.296, -2.864e-8
0.297, -2.851e-8
0.298, -2.864e-8
0.299, -2.879e-8
0.300, -2.700e-8
0.299, -2.485e-8
0.298, -2.467e-8
0.297, -2.457e-8
0.296, -2.433e-8
0.295, -2.393e-8
0.294, -2.387e-8
0.293, -2.393e-8
0.292, -2.374e-8
0.291, -2.341e-8
0.290, -2.331e-8
0.289, -2.341e-8
0.288, -2.334e-8
0.287, -2.297e-8
0.286, -2.288e-8
0.285, -2.297e-8
0.284, -2.294e-8
0.283, -2.270e-8
0.282, -2.245e-8
0.281, -2.261e-8
0.280, -2.264e-8
0.279, -2.236e-8
0.278, -2.221e-8
0.277, -2.224e-8
0.276, -2.236e-8
0.275, -2.214e-8
0.274, -2.190e-8
0.273, -2.193e-8
0.272, -2.208e-8
0.271, -2.190e-8
0.270, -2.165e-8
0.269, -2.165e-8
0.268, -2.181e-8
0.267, -2.171e-8
0.266, -2.144e-8
0.265, -2.137e-8
0.264, -2.156e-8
0.263, -2.150e-8
0.262, -2.122e-8
0.261, -2.116e-8
0.260, -2.128e-8
0.259, -2.131e-8
0.258, -2.104e-8
0.257, -2.091e-8
0.256, -2.107e-8
0.255, -2.113e-8
0.254, -2.088e-8
0.253, -2.070e-8
0.252, -2.082e-8
0.251, -2.094e-8
0.250, -2.073e-8
0.249, -2.051e-8
0.248, -2.061e-8
0.247, -2.070e-8
0.246, -2.058e-8
0.245, -2.036e-8
0.244, -2.036e-8
0.243, -2.051e-8
0.242, -2.042e-8
0.241, -2.014e-8
0.240, -2.018e-8
0.239, -2.030e-8
0.238, -2.030e-8
0.237, -2.002e-8
0.236, -1.993e-8
0.235, -2.014e-8
0.234, -2.011e-8
0.233, -1.987e-8
0.232, -1.978e-8
0.231, -1.987e-8
0.230, -1.999e-8
0.229, -1.974e-8
0.228, -1.959e-8
0.227, -1.968e-8
0.226, -1.978e-8
0.225, -1.962e-8
0.224, -1.941e-8
0.223, -1.947e-8
0.222, -1.962e-8
0.221, -1.950e-8
0.220, -1.925e-8
0.219, -1.928e-8
0.218, -1.944e-8
0.217, -1.934e-8
0.216, -1.910e-8
0.215, -1.910e-8
0.214, -1.922e-8
0.213, -1.922e-8
0.212, -1.891e-8
0.211, -1.888e-8
0.210, -1.904e-8
0.209, -1.904e-8
0.208, -1.879e-8
0.207, -1.867e-8
0.206, -1.879e-8
0.205, -1.888e-8
0.204, -1.861e-8
0.203, -1.848e-8
0.202, -1.858e-8
0.201, -1.867e-8
0.200, -1.851e-8
0.199, -1.824e-8
0.198, -1.836e-8
0.197, -1.848e-8
0.196, -1.833e-8
0.195, -1.811e-8
0.194, -1.808e-8
0.193, -1.827e-8
0.192, -1.814e-8
0.191, -1.787e-8
0.190, -1.787e-8
0.189, -1.799e-8
0.188, -1.796e-8
0.187, -1.768e-8
0.186, -1.759e-8
0.185, -1.774e-8
0.184, -1.774e-8
0.183, -1.744e-8
0.182, -1.734e-8
0.181, -1.744e-8
0.180, -1.750e-8
0.179, -1.722e-8
0.178, -1.704e-8
0.177, -1.710e-8
0.176, -1.722e-8
0.175, -1.698e-8
0.174, -1.673e-8
0.173, -1.679e-8
0.172, -1.685e-8
0.171, -1.670e-8
0.170, -1.642e-8
0.169, -1.639e-8
0.168, -1.651e-8
0.167, -1.639e-8
0.166, -1.605e-8
0.165, -1.602e-8
0.164, -1.608e-8
0.163, -1.602e-8
0.162, -1.568e-8
0.161, -1.556e-8
0.160, -1.565e-8
0.159, -1.559e-8
0.158, -1.525e-8
0.157, -1.507e-8
0.156, -1.513e-8
0.155, -1.513e-8
0.154, -1.476e-8
0.153, -1.451e-8
0.152, -1.458e-8
0.151, -1.455e-8
0.150, -1.430e-8
0.149, -1.396e-8
0.148, -1.390e-8
0.147, -1.396e-8
0.146, -1.365e-8
0.145, -1.328e-8
0.144, -1.322e-8
0.143, -1.319e-8
0.142, -1.301e-8
0.141, -1.255e-8
0.140, -1.239e-8
0.139, -1.245e-8
0.138, -1.218e-8
0.137, -1.178e-8
0.136, -1.153e-8
0.135, -1.147e-8
0.134, -1.131e-8
0.133, -1.085e-8
0.132, -1.055e-8
0.131, -1.045e-8
0.130, -1.027e-8
0.129, -9.838e-9
0.128, -9.407e-9
0.127, -9.315e-9
0.126, -9.130e-9
0.125, -8.700e-9
0.124, -8.177e-9
0.123, -7.992e-9
0.122, -7.838e-9
0.121, -7.346e-9
0.120, -6.823e-9
0.119, -6.546e-9
0.118, -6.362e-9
0.117, -5.962e-9
0.116, -5.285e-9
0.115, -4.977e-9
0.114, -4.731e-9
0.113, -4.300e-9
0.112, -3.654e-9
0.111, -3.162e-9
0.110, -2.947e-9
0.109, -2.516e-9
0.108, -1.808e-9
0.107, -1.285e-9
0.106, -9.161e-10
0.105, -5.162e-10
0.104, 1.914e-10
0.103, 8.990e-10
0.102, 1.237e-9
0.101, 1.699e-9
0.100, 2.406e-9
0.099, 3.083e-9
0.098, 3.576e-9
0.097, 3.976e-9
0.096, 4.683e-9
0.095, 5.545e-9
0.094, 6.037e-9
0.093, 6.498e-9
0.092, 7.206e-9
0.091, 8.037e-9
0.090, 8.683e-9
0.089, 9.144e-9
0.088, 9.759e-9
0.087, 1.074e-8
0.086, 1.136e-8
0.085, 1.188e-8
0.084, 1.253e-8
0.083, 1.339e-8
0.082, 1.419e-8
0.081, 1.468e-8
0.080, 1.527e-8
0.079, 1.619e-8
0.078, 1.693e-8
0.077, 1.751e-8
0.076, 1.810e-8
0.075, 1.887e-8
0.074, 1.973e-8
0.073, 2.025e-8
0.072, 2.077e-8
0.071, 2.157e-8
0.070, 2.234e-8
0.069, 2.293e-8
0.068, 2.345e-8
0.067, 2.403e-8
0.066, 2.496e-8
0.065, 2.548e-8
0.064, 2.588e-8
0.063, 2.650e-8
0.062, 2.723e-8
0.061, 2.779e-8
0.060, 2.819e-8
0.059, 2.856e-8
0.058, 2.936e-8
0.057, 2.985e-8
0.056, 3.013e-8
0.055, 3.056e-8
0.054, 3.111e-8
0.053, 3.163e-8
0.052, 3.188e-8
0.051, 3.216e-8
0.050, 3.268e-8
0.049, 3.311e-8
0.048, 3.326e-8
0.047, 3.348e-8
0.046, 3.382e-8
0.045, 3.428e-8
0.044, 3.440e-8
0.043, 3.440e-8
0.042, 3.468e-8
0.041, 3.508e-8
0.040, 3.517e-8
0.039, 3.517e-8
0.038, 3.526e-8
0.037, 3.557e-8
0.036, 3.569e-8
0.035, 3.551e-8
0.034, 3.554e-8
0.033, 3.579e-8
0.032, 3.582e-8
0.031, 3.569e-8
0.030, 3.557e-8
0.029, 3.569e-8
0.028, 3.582e-8
0.027, 3.554e-8
0.026, 3.539e-8
0.025, 3.548e-8
0.024, 3.548e-8
0.023, 3.529e-8
0.022, 3.496e-8
0.021, 3.496e-8
0.020, 3.505e-8
0.019, 3.474e-8
0.018, 3.443e-8
0.017, 3.434e-8
0.016, 3.437e-8
0.015, 3.419e-8
0.014, 3.376e-8
0.013, 3.360e-8
0.012, 3.363e-8
0.011, 3.339e-8
0.010, 3.302e-8
0.009, 3.274e-8
0.008, 3.274e-8
0.007, 3.259e-8
0.006, 3.219e-8
0.005, 3.185e-8
0.004, 3.185e-8
0.003, 3.169e-8
0.002, 3.133e-8
0.001, 3.096e-8
0.000, 3.099e-8
-0.001, 3.083e-8
-0.002, 3.046e-8
-0.003, 3.000e-8
-0.004, 2.991e-8
-0.005, 2.985e-8
-0.006, 2.951e-8
-0.007, 2.911e-8
-0.008, 2.890e-8
-0.009, 2.893e-8
-0.010, 2.862e-8
-0.011, 2.813e-8
-0.012, 2.797e-8
-0.013, 2.794e-8
-0.014, 2.773e-8
-0.015, 2.730e-8
-0.016, 2.699e-8
-0.017, 2.705e-8
-0.018, 2.683e-8
-0.019, 2.643e-8
-0.020, 2.613e-8
-0.021, 2.606e-8
-0.022, 2.600e-8
-0.023, 2.560e-8
-0.024, 2.526e-8
-0.025, 2.523e-8
-0.026, 2.514e-8
-0.027, 2.483e-8
-0.028, 2.447e-8
-0.029, 2.437e-8
-0.030, 2.437e-8
-0.031, 2.407e-8
-0.032, 2.367e-8
-0.033, 2.357e-8
-0.034, 2.360e-8
-0.035, 2.333e-8
-0.036, 2.296e-8
-0.037, 2.277e-8
-0.038, 2.287e-8
-0.039, 2.268e-8
-0.040, 2.228e-8
-0.041, 2.210e-8
-0.042, 2.213e-8
-0.043, 2.203e-8
-0.044, 2.167e-8
-0.045, 2.139e-8
-0.046, 2.145e-8
-0.047, 2.142e-8
-0.048, 2.105e-8
-0.049, 2.080e-8
-0.050, 2.080e-8
-0.051, 2.077e-8
-0.052, 2.056e-8
-0.053, 2.019e-8
-0.054, 2.019e-8
-0.055, 2.025e-8
-0.056, 1.997e-8
-0.057, 1.970e-8
-0.058, 1.960e-8
-0.059, 1.970e-8
-0.060, 1.951e-8
-0.061, 1.914e-8
-0.062, 1.905e-8
-0.063, 1.914e-8
-0.064, 1.905e-8
-0.065, 1.871e-8
-0.066, 1.856e-8
-0.067, 1.865e-8
-0.068, 1.859e-8
-0.069, 1.828e-8
-0.070, 1.810e-8
-0.071, 1.819e-8
-0.072, 1.816e-8
-0.073, 1.791e-8
-0.074, 1.764e-8
-0.075, 1.773e-8
-0.076, 1.779e-8
-0.077, 1.754e-8
-0.078, 1.727e-8
-0.079, 1.727e-8
-0.080, 1.739e-8
-0.081, 1.720e-8
-0.082, 1.690e-8
-0.083, 1.690e-8
-0.084, 1.702e-8
-0.085, 1.687e-8
-0.086, 1.656e-8
-0.087, 1.653e-8
-0.088, 1.665e-8
-0.089, 1.656e-8
-0.090, 1.625e-8
-0.091, 1.613e-8
-0.092, 1.631e-8
-0.093, 1.622e-8
-0.094, 1.597e-8
-0.095, 1.582e-8
-0.096, 1.591e-8
-0.097, 1.597e-8
-0.098, 1.573e-8
-0.099, 1.548e-8
-0.100, 1.560e-8
-0.101, 1.567e-8
-0.102, 1.551e-8
-0.103, 1.524e-8
-0.104, 1.527e-8
-0.105, 1.542e-8
-0.106, 1.524e-8
-0.107, 1.499e-8
-0.108, 1.502e-8
-0.109, 1.511e-8
-0.110, 1.502e-8
-0.111, 1.474e-8
-0.112, 1.471e-8
-0.113, 1.490e-8
-0.114, 1.480e-8
-0.115, 1.456e-8
-0.116, 1.447e-8
-0.117, 1.462e-8
-0.118, 1.462e-8
-0.119, 1.434e-8
-0.120, 1.422e-8
-0.121, 1.437e-8
-0.122, 1.444e-8
-0.123, 1.419e-8
-0.124, 1.400e-8
-0.125, 1.413e-8
-0.126, 1.422e-8
-0.127, 1.404e-8
-0.128, 1.382e-8
-0.129, 1.388e-8
-0.130, 1.404e-8
-0.131, 1.388e-8
-0.132, 1.367e-8
-0.133, 1.367e-8
-0.134, 1.382e-8
-0.135, 1.376e-8
-0.136, 1.348e-8
-0.137, 1.348e-8
-0.138, 1.367e-8
-0.139, 1.357e-8
-0.140, 1.336e-8
-0.141, 1.327e-8
-0.142, 1.348e-8
-0.143, 1.348e-8
-0.144, 1.321e-8
-0.145, 1.311e-8
-0.146, 1.327e-8
-0.147, 1.333e-8
-0.148, 1.314e-8
-0.149, 1.293e-8
-0.150, 1.311e-8
-0.151, 1.321e-8
-0.152, 1.302e-8
-0.153, 1.284e-8
-0.154, 1.290e-8
-0.155, 1.305e-8
-0.156, 1.293e-8
-0.157, 1.268e-8
-0.158, 1.274e-8
-0.159, 1.290e-8
-0.160, 1.284e-8
-0.161, 1.259e-8
-0.162, 1.259e-8
-0.163, 1.277e-8
-0.164, 1.271e-8
-0.165, 1.250e-8
-0.166, 1.244e-8
-0.167, 1.265e-8
-0.168, 1.265e-8
-0.169, 1.241e-8
-0.170, 1.231e-8
-0.171, 1.247e-8
-0.172, 1.256e-8
-0.173, 1.234e-8
-0.174, 1.219e-8
-0.175, 1.237e-8
-0.176, 1.244e-8
-0.177, 1.231e-8
-0.178, 1.213e-8
-0.179, 1.222e-8
-0.180, 1.237e-8
-0.181, 1.225e-8
-0.182, 1.204e-8
-0.183, 1.210e-8
-0.184, 1.225e-8
-0.185, 1.222e-8
-0.186, 1.194e-8
-0.187, 1.197e-8
-0.188, 1.219e-8
-0.189, 1.210e-8
-0.190, 1.194e-8
-0.191, 1.185e-8
-0.192, 1.207e-8
-0.193, 1.210e-8
-0.194, 1.185e-8
-0.195, 1.179e-8
-0.196, 1.197e-8
-0.197, 1.204e-8
-0.198, 1.185e-8
-0.199, 1.170e-8
