Mar. 16, 2023   09:26:17
Cyclic Voltammetry
File: c:/users/oliverrz/desktop/electrolab/data/2023_03_16\fcmeoh_macros_500_um\electrode7_cv_150mvs_500_um.bin
Data Source:  Experiment
Instrument Model:  CHI760E
Header: CV
Note: 

Init E (V) = -0.2
High E (V) = 0.3
Low E (V) = -0.2
Final E (V) = -0.2
Init P/N = P
Scan Rate (V/s) = 0.15
Segment = 3
Sample Interval (V) = 0.001
Quiet Time (sec) = 2
Sensitivity (A/V) = 1e-7

Results:

Channel 1:
Segment 1:
Ep = 0.095V
ip = -3.975e-8A
Ah = -1.696e-8C

Segment 2:
Ep = 0.031V
ip = 3.703e-8A
Ah = 1.551e-8C

Segment 3:

Potential/V, Current/A

-0.200, 2.355e-9
-0.199, 2.163e-9
-0.198, 2.111e-9
-0.197, 1.916e-9
-0.196, 2.129e-9
-0.195, 1.872e-9
-0.194, 1.967e-9
-0.193, 1.969e-9
-0.192, 1.780e-9
-0.191, 1.995e-9
-0.190, 1.755e-9
-0.189, 1.867e-9
-0.188, 1.851e-9
-0.187, 1.681e-9
-0.186, 1.904e-9
-0.185, 1.639e-9
-0.184, 1.780e-9
-0.183, 1.762e-9
-0.182, 1.574e-9
-0.181, 1.819e-9
-0.180, 1.563e-9
-0.179, 1.663e-9
-0.178, 1.687e-9
-0.177, 1.495e-9
-0.176, 1.727e-9
-0.175, 1.494e-9
-0.174, 1.593e-9
-0.173, 1.596e-9
-0.172, 1.433e-9
-0.171, 1.647e-9
-0.170, 1.412e-9
-0.169, 1.530e-9
-0.168, 1.527e-9
-0.167, 1.353e-9
-0.166, 1.578e-9
-0.165, 1.344e-9
-0.164, 1.452e-9
-0.163, 1.464e-9
-0.162, 1.291e-9
-0.161, 1.501e-9
-0.160, 1.292e-9
-0.159, 1.396e-9
-0.158, 1.383e-9
-0.157, 1.238e-9
-0.156, 1.453e-9
-0.155, 1.209e-9
-0.154, 1.339e-9
-0.153, 1.327e-9
-0.152, 1.161e-9
-0.151, 1.404e-9
-0.150, 1.152e-9
-0.149, 1.270e-9
-0.148, 1.280e-9
-0.147, 1.109e-9
-0.146, 1.333e-9
-0.145, 1.097e-9
-0.144, 1.226e-9
-0.143, 1.214e-9
-0.142, 1.059e-9
-0.141, 1.281e-9
-0.140, 1.034e-9
-0.139, 1.173e-9
-0.138, 1.162e-9
-0.137, 9.875e-10
-0.136, 1.237e-9
-0.135, 9.937e-10
-0.134, 1.102e-9
-0.133, 1.119e-9
-0.132, 9.447e-10
-0.131, 1.164e-9
-0.130, 9.439e-10
-0.129, 1.054e-9
-0.128, 1.047e-9
-0.127, 9.012e-10
-0.126, 1.114e-9
-0.125, 8.723e-10
-0.124, 1.012e-9
-0.123, 9.984e-10
-0.122, 8.382e-10
-0.121, 1.068e-9
-0.120, 8.220e-10
-0.119, 9.500e-10
-0.118, 9.446e-10
-0.117, 7.875e-10
-0.116, 1.001e-9
-0.115, 7.715e-10
-0.114, 8.980e-10
-0.113, 8.766e-10
-0.112, 7.404e-10
-0.111, 9.557e-10
-0.110, 6.973e-10
-0.109, 8.564e-10
-0.108, 8.250e-10
-0.107, 6.563e-10
-0.106, 9.049e-10
-0.105, 6.365e-10
-0.104, 7.820e-10
-0.103, 7.664e-10
-0.102, 5.982e-10
-0.101, 8.266e-10
-0.100, 5.877e-10
-0.099, 7.108e-10
-0.098, 6.926e-10
-0.097, 5.406e-10
-0.096, 7.656e-10
-0.095, 5.057e-10
-0.094, 6.446e-10
-0.093, 6.287e-10
-0.092, 4.565e-10
-0.091, 6.983e-10
-0.090, 4.338e-10
-0.089, 5.570e-10
-0.088, 5.601e-10
-0.087, 3.853e-10
-0.086, 5.934e-10
-0.085, 3.660e-10
-0.084, 4.829e-10
-0.083, 4.552e-10
-0.082, 3.078e-10
-0.081, 5.064e-10
-0.080, 2.605e-10
-0.079, 3.993e-10
-0.078, 3.559e-10
-0.077, 1.938e-10
-0.076, 4.141e-10
-0.075, 1.557e-10
-0.074, 2.823e-10
-0.073, 2.523e-10
-0.072, 9.166e-11
-0.071, 2.959e-10
-0.070, 4.325e-11
-0.069, 1.685e-10
-0.068, 1.220e-10
-0.067, -3.391e-11
-0.066, 1.676e-10
-0.065, -1.069e-10
-0.064, 3.150e-11
-0.063, -1.499e-11
-0.062, -1.956e-10
-0.061, 2.692e-11
-0.060, -2.580e-10
-0.059, -1.434e-10
-0.058, -1.691e-10
-0.057, -3.664e-10
-0.056, -1.654e-10
-0.055, -4.347e-10
-0.054, -3.296e-10
-0.053, -3.868e-10
-0.052, -5.487e-10
-0.051, -3.817e-10
-0.050, -6.570e-10
-0.049, -5.448e-10
-0.048, -6.096e-10
-0.047, -7.993e-10
-0.046, -6.194e-10
-0.045, -9.011e-10
-0.044, -8.143e-10
-0.043, -8.804e-10
-0.042, -1.072e-9
-0.041, -9.223e-10
-0.040, -1.192e-9
-0.039, -1.116e-9
-0.038, -1.217e-9
-0.037, -1.390e-9
-0.036, -1.252e-9
-0.035, -1.568e-9
-0.034, -1.472e-9
-0.033, -1.589e-9
-0.032, -1.793e-9
-0.031, -1.646e-9
-0.030, -1.982e-9
-0.029, -1.914e-9
-0.028, -2.029e-9
-0.027, -2.259e-9
-0.026, -2.147e-9
-0.025, -2.475e-9
-0.024, -2.426e-9
-0.023, -2.567e-9
-0.022, -2.802e-9
-0.021, -2.700e-9
-0.020, -3.070e-9
-0.019, -3.029e-9
-0.018, -3.193e-9
-0.017, -3.468e-9
-0.016, -3.367e-9
-0.015, -3.740e-9
-0.014, -3.764e-9
-0.013, -3.925e-9
-0.012, -4.224e-9
-0.011, -4.175e-9
-0.010, -4.553e-9
-0.009, -4.607e-9
-0.008, -4.811e-9
-0.007, -5.104e-9
-0.006, -5.106e-9
-0.005, -5.536e-9
-0.004, -5.581e-9
-0.003, -5.826e-9
-0.002, -6.174e-9
-0.001, -6.188e-9
-0.000, -6.745e-9
0.001, -6.782e-9
0.002, -7.062e-9
0.003, -7.430e-9
0.004, -7.498e-9
0.005, -7.980e-9
0.006, -8.101e-9
0.007, -8.457e-9
0.008, -8.839e-9
0.009, -8.938e-9
0.010, -9.502e-9
0.011, -9.644e-9
0.012, -1.003e-8
0.013, -1.049e-8
0.014, -1.061e-8
0.015, -1.122e-8
0.016, -1.140e-8
0.017, -1.181e-8
0.018, -1.231e-8
0.019, -1.250e-8
0.020, -1.313e-8
0.021, -1.337e-8
0.022, -1.384e-8
0.023, -1.438e-8
0.024, -1.459e-8
0.025, -1.528e-8
0.026, -1.559e-8
0.027, -1.608e-8
0.028, -1.666e-8
0.029, -1.693e-8
0.030, -1.761e-8
0.031, -1.798e-8
0.032, -1.847e-8
0.033, -1.909e-8
0.034, -1.943e-8
0.035, -2.012e-8
0.036, -2.049e-8
0.037, -2.106e-8
0.038, -2.168e-8
0.039, -2.205e-8
0.040, -2.277e-8
0.041, -2.316e-8
0.042, -2.376e-8
0.043, -2.437e-8
0.044, -2.474e-8
0.045, -2.547e-8
0.046, -2.587e-8
0.047, -2.649e-8
0.048, -2.708e-8
0.049, -2.744e-8
0.050, -2.820e-8
0.051, -2.857e-8
0.052, -2.916e-8
0.053, -2.977e-8
0.054, -3.007e-8
0.055, -3.083e-8
0.056, -3.115e-8
0.057, -3.171e-8
0.058, -3.229e-8
0.059, -3.257e-8
0.060, -3.325e-8
0.061, -3.355e-8
0.062, -3.403e-8
0.063, -3.459e-8
0.064, -3.482e-8
0.065, -3.544e-8
0.066, -3.569e-8
0.067, -3.610e-8
0.068, -3.658e-8
0.069, -3.674e-8
0.070, -3.728e-8
0.071, -3.749e-8
0.072, -3.782e-8
0.073, -3.822e-8
0.074, -3.832e-8
0.075, -3.879e-8
0.076, -3.891e-8
0.077, -3.922e-8
0.078, -3.950e-8
0.079, -3.955e-8
0.080, -3.990e-8
0.081, -3.994e-8
0.082, -4.016e-8
0.083, -4.038e-8
0.084, -4.032e-8
0.085, -4.066e-8
0.086, -4.060e-8
0.087, -4.075e-8
0.088, -4.088e-8
0.089, -4.076e-8
0.090, -4.104e-8
0.091, -4.089e-8
0.092, -4.098e-8
0.093, -4.105e-8
0.094, -4.086e-8
0.095, -4.109e-8
0.096, -4.086e-8
0.097, -4.089e-8
0.098, -4.095e-8
0.099, -4.068e-8
0.100, -4.084e-8
0.101, -4.060e-8
0.102, -4.057e-8
0.103, -4.060e-8
0.104, -4.027e-8
0.105, -4.039e-8
0.106, -4.011e-8
0.107, -4.004e-8
0.108, -4.001e-8
0.109, -3.966e-8
0.110, -3.976e-8
0.111, -3.946e-8
0.112, -3.934e-8
0.113, -3.929e-8
0.114, -3.895e-8
0.115, -3.901e-8
0.116, -3.869e-8
0.117, -3.856e-8
0.118, -3.848e-8
0.119, -3.813e-8
0.120, -3.815e-8
0.121, -3.782e-8
0.122, -3.770e-8
0.123, -3.760e-8
0.124, -3.724e-8
0.125, -3.729e-8
0.126, -3.692e-8
0.127, -3.683e-8
0.128, -3.673e-8
0.129, -3.634e-8
0.130, -3.640e-8
0.131, -3.603e-8
0.132, -3.593e-8
0.133, -3.583e-8
0.134, -3.545e-8
0.135, -3.551e-8
0.136, -3.515e-8
0.137, -3.503e-8
0.138, -3.496e-8
0.139, -3.457e-8
0.140, -3.465e-8
0.141, -3.429e-8
0.142, -3.417e-8
0.143, -3.411e-8
0.144, -3.372e-8
0.145, -3.380e-8
0.146, -3.347e-8
0.147, -3.334e-8
0.148, -3.329e-8
0.149, -3.293e-8
0.150, -3.300e-8
0.151, -3.267e-8
0.152, -3.257e-8
0.153, -3.252e-8
0.154, -3.217e-8
0.155, -3.225e-8
0.156, -3.192e-8
0.157, -3.184e-8
0.158, -3.178e-8
0.159, -3.144e-8
0.160, -3.153e-8
0.161, -3.122e-8
0.162, -3.115e-8
0.163, -3.109e-8
0.164, -3.076e-8
0.165, -3.086e-8
0.166, -3.055e-8
0.167, -3.050e-8
0.168, -3.044e-8
0.169, -3.012e-8
0.170, -3.025e-8
0.171, -2.993e-8
0.172, -2.988e-8
0.173, -2.985e-8
0.174, -2.953e-8
0.175, -2.967e-8
0.176, -2.936e-8
0.177, -2.932e-8
0.178, -2.930e-8
0.179, -2.900e-8
0.180, -2.913e-8
0.181, -2.885e-8
0.182, -2.880e-8
0.183, -2.879e-8
0.184, -2.849e-8
0.185, -2.863e-8
0.186, -2.835e-8
0.187, -2.832e-8
0.188, -2.832e-8
0.189, -2.802e-8
0.190, -2.817e-8
0.191, -2.790e-8
0.192, -2.788e-8
0.193, -2.788e-8
0.194, -2.760e-8
0.195, -2.775e-8
0.196, -2.748e-8
0.197, -2.747e-8
0.198, -2.746e-8
0.199, -2.720e-8
0.200, -2.736e-8
0.201, -2.709e-8
0.202, -2.710e-8
0.203, -2.709e-8
0.204, -2.683e-8
0.205, -2.700e-8
0.206, -2.673e-8
0.207, -2.674e-8
0.208, -2.674e-8
0.209, -2.649e-8
0.210, -2.666e-8
0.211, -2.640e-8
0.212, -2.641e-8
0.213, -2.643e-8
0.214, -2.616e-8
0.215, -2.635e-8
0.216, -2.608e-8
0.217, -2.611e-8
0.218, -2.613e-8
0.219, -2.586e-8
0.220, -2.605e-8
0.221, -2.581e-8
0.222, -2.582e-8
0.223, -2.586e-8
0.224, -2.559e-8
0.225, -2.577e-8
0.226, -2.555e-8
0.227, -2.555e-8
0.228, -2.558e-8
0.229, -2.534e-8
0.230, -2.553e-8
0.231, -2.530e-8
0.232, -2.532e-8
0.233, -2.534e-8
0.234, -2.511e-8
0.235, -2.530e-8
0.236, -2.506e-8
0.237, -2.509e-8
0.238, -2.512e-8
0.239, -2.489e-8
0.240, -2.508e-8
0.241, -2.485e-8
0.242, -2.489e-8
0.243, -2.491e-8
0.244, -2.469e-8
0.245, -2.489e-8
0.246, -2.464e-8
0.247, -2.470e-8
0.248, -2.472e-8
0.249, -2.449e-8
0.250, -2.471e-8
0.251, -2.446e-8
0.252, -2.451e-8
0.253, -2.455e-8
0.254, -2.431e-8
0.255, -2.453e-8
0.256, -2.430e-8
0.257, -2.434e-8
0.258, -2.439e-8
0.259, -2.416e-8
0.260, -2.437e-8
0.261, -2.414e-8
0.262, -2.419e-8
0.263, -2.424e-8
0.264, -2.401e-8
0.265, -2.423e-8
0.266, -2.400e-8
0.267, -2.405e-8
0.268, -2.410e-8
0.269, -2.387e-8
0.270, -2.410e-8
0.271, -2.389e-8
0.272, -2.392e-8
0.273, -2.397e-8
0.274, -2.377e-8
0.275, -2.396e-8
0.276, -2.375e-8
0.277, -2.382e-8
0.278, -2.384e-8
0.279, -2.365e-8
0.280, -2.387e-8
0.281, -2.363e-8
0.282, -2.372e-8
0.283, -2.376e-8
0.284, -2.354e-8
0.285, -2.378e-8
0.286, -2.355e-8
0.287, -2.361e-8
0.288, -2.366e-8
0.289, -2.346e-8
0.290, -2.368e-8
0.291, -2.346e-8
0.292, -2.354e-8
0.293, -2.357e-8
0.294, -2.338e-8
0.295, -2.362e-8
0.296, -2.338e-8
0.297, -2.347e-8
0.298, -2.353e-8
0.299, -2.330e-8
0.300, -2.208e-8
0.299, -2.102e-8
0.298, -2.090e-8
0.297, -2.080e-8
0.296, -2.049e-8
0.295, -2.059e-8
0.294, -2.029e-8
0.293, -2.029e-8
0.292, -2.023e-8
0.291, -1.998e-8
0.290, -2.013e-8
0.289, -1.983e-8
0.288, -1.987e-8
0.287, -1.984e-8
0.286, -1.958e-8
0.285, -1.977e-8
0.284, -1.949e-8
0.283, -1.952e-8
0.282, -1.952e-8
0.281, -1.927e-8
0.280, -1.946e-8
0.279, -1.920e-8
0.278, -1.923e-8
0.277, -1.923e-8
0.276, -1.900e-8
0.275, -1.920e-8
0.274, -1.893e-8
0.273, -1.898e-8
0.272, -1.900e-8
0.271, -1.875e-8
0.270, -1.895e-8
0.269, -1.871e-8
0.268, -1.874e-8
0.267, -1.876e-8
0.266, -1.854e-8
0.265, -1.872e-8
0.264, -1.848e-8
0.263, -1.853e-8
0.262, -1.854e-8
0.261, -1.833e-8
0.260, -1.852e-8
0.259, -1.828e-8
0.258, -1.834e-8
0.257, -1.834e-8
0.256, -1.812e-8
0.255, -1.833e-8
0.254, -1.807e-8
0.253, -1.815e-8
0.252, -1.815e-8
0.251, -1.795e-8
0.250, -1.815e-8
0.249, -1.789e-8
0.248, -1.796e-8
0.247, -1.798e-8
0.246, -1.776e-8
0.245, -1.797e-8
0.244, -1.771e-8
0.243, -1.779e-8
0.242, -1.781e-8
0.241, -1.758e-8
0.240, -1.780e-8
0.239, -1.756e-8
0.238, -1.761e-8
0.237, -1.764e-8
0.236, -1.742e-8
0.235, -1.763e-8
0.234, -1.739e-8
0.233, -1.745e-8
0.232, -1.747e-8
0.231, -1.726e-8
0.230, -1.747e-8
0.229, -1.722e-8
0.228, -1.728e-8
0.227, -1.731e-8
0.226, -1.709e-8
0.225, -1.730e-8
0.224, -1.706e-8
0.223, -1.712e-8
0.222, -1.714e-8
0.221, -1.693e-8
0.220, -1.712e-8
0.219, -1.689e-8
0.218, -1.696e-8
0.217, -1.696e-8
0.216, -1.677e-8
0.215, -1.697e-8
0.214, -1.671e-8
0.213, -1.680e-8
0.212, -1.679e-8
0.211, -1.660e-8
0.210, -1.681e-8
0.209, -1.654e-8
0.208, -1.662e-8
0.207, -1.664e-8
0.206, -1.641e-8
0.205, -1.662e-8
0.204, -1.636e-8
0.203, -1.644e-8
0.202, -1.645e-8
0.201, -1.623e-8
0.200, -1.643e-8
0.199, -1.618e-8
0.198, -1.625e-8
0.197, -1.625e-8
0.196, -1.602e-8
0.195, -1.625e-8
0.194, -1.597e-8
0.193, -1.604e-8
0.192, -1.604e-8
0.191, -1.582e-8
0.190, -1.602e-8
0.189, -1.576e-8
0.188, -1.580e-8
0.187, -1.581e-8
0.186, -1.560e-8
0.185, -1.577e-8
0.184, -1.551e-8
0.183, -1.558e-8
0.182, -1.555e-8
0.181, -1.533e-8
0.180, -1.552e-8
0.179, -1.523e-8
0.178, -1.531e-8
0.177, -1.528e-8
0.176, -1.504e-8
0.175, -1.524e-8
0.174, -1.494e-8
0.173, -1.499e-8
0.172, -1.495e-8
0.171, -1.474e-8
0.170, -1.489e-8
0.169, -1.460e-8
0.168, -1.466e-8
0.167, -1.460e-8
0.166, -1.437e-8
0.165, -1.453e-8
0.164, -1.421e-8
0.163, -1.427e-8
0.162, -1.422e-8
0.161, -1.394e-8
0.160, -1.411e-8
0.159, -1.380e-8
0.158, -1.380e-8
0.157, -1.375e-8
0.156, -1.347e-8
0.155, -1.361e-8
0.154, -1.329e-8
0.153, -1.329e-8
0.152, -1.321e-8
0.151, -1.293e-8
0.150, -1.305e-8
0.149, -1.270e-8
0.148, -1.269e-8
0.147, -1.260e-8
0.146, -1.229e-8
0.145, -1.239e-8
0.144, -1.204e-8
0.143, -1.198e-8
0.142, -1.188e-8
0.141, -1.156e-8
0.140, -1.160e-8
0.139, -1.126e-8
0.138, -1.120e-8
0.137, -1.104e-8
0.136, -1.071e-8
0.135, -1.074e-8
0.134, -1.033e-8
0.133, -1.026e-8
0.132, -1.006e-8
0.131, -9.705e-9
0.130, -9.724e-9
0.129, -9.267e-9
0.128, -9.150e-9
0.127, -8.952e-9
0.126, -8.549e-9
0.125, -8.521e-9
0.124, -8.039e-9
0.123, -7.910e-9
0.122, -7.648e-9
0.121, -7.200e-9
0.120, -7.157e-9
0.119, -6.632e-9
0.118, -6.450e-9
0.117, -6.164e-9
0.116, -5.664e-9
0.115, -5.595e-9
0.114, -5.037e-9
0.113, -4.799e-9
0.112, -4.482e-9
0.111, -3.958e-9
0.110, -3.810e-9
0.109, -3.230e-9
0.108, -2.953e-9
0.107, -2.592e-9
0.106, -2.033e-9
0.105, -1.824e-9
0.104, -1.203e-9
0.103, -8.777e-10
0.102, -4.514e-10
0.101, 1.204e-10
0.100, 3.861e-10
0.099, 1.026e-9
0.098, 1.395e-9
0.097, 1.861e-9
0.096, 2.456e-9
0.095, 2.770e-9
0.094, 3.453e-9
0.093, 3.831e-9
0.092, 4.353e-9
0.091, 4.980e-9
0.090, 5.299e-9
0.089, 6.030e-9
0.088, 6.431e-9
0.087, 6.963e-9
0.086, 7.620e-9
0.085, 7.940e-9
0.084, 8.730e-9
0.083, 9.101e-9
0.082, 9.661e-9
0.081, 1.034e-8
0.080, 1.066e-8
0.079, 1.144e-8
0.078, 1.184e-8
0.077, 1.237e-8
0.076, 1.307e-8
0.075, 1.334e-8
0.074, 1.410e-8
0.073, 1.450e-8
0.072, 1.500e-8
0.071, 1.567e-8
0.070, 1.595e-8
0.069, 1.666e-8
0.068, 1.705e-8
0.067, 1.747e-8
0.066, 1.811e-8
0.065, 1.839e-8
0.064, 1.902e-8
0.063, 1.935e-8
0.062, 1.977e-8
0.061, 2.030e-8
0.060, 2.052e-8
0.059, 2.111e-8
0.058, 2.137e-8
0.057, 2.173e-8
0.056, 2.219e-8
0.055, 2.235e-8
0.054, 2.286e-8
0.053, 2.305e-8
0.052, 2.336e-8
0.051, 2.375e-8
0.050, 2.383e-8
0.049, 2.429e-8
0.048, 2.435e-8
0.047, 2.460e-8
0.046, 2.491e-8
0.045, 2.489e-8
0.044, 2.529e-8
0.043, 2.528e-8
0.042, 2.544e-8
0.041, 2.570e-8
0.040, 2.560e-8
0.039, 2.593e-8
0.038, 2.587e-8
0.037, 2.593e-8
0.036, 2.615e-8
0.035, 2.595e-8
0.034, 2.621e-8
0.033, 2.611e-8
0.032, 2.609e-8
0.031, 2.623e-8
0.030, 2.601e-8
0.029, 2.619e-8
0.028, 2.603e-8
0.027, 2.597e-8
0.026, 2.607e-8
0.025, 2.580e-8
0.024, 2.593e-8
0.023, 2.572e-8
0.022, 2.562e-8
0.021, 2.566e-8
0.020, 2.536e-8
0.019, 2.544e-8
0.018, 2.519e-8
0.017, 2.510e-8
0.016, 2.508e-8
0.015, 2.475e-8
0.014, 2.483e-8
0.013, 2.455e-8
0.012, 2.443e-8
0.011, 2.438e-8
0.010, 2.400e-8
0.009, 2.410e-8
0.008, 2.378e-8
0.007, 2.363e-8
0.006, 2.362e-8
0.005, 2.321e-8
0.004, 2.328e-8
0.003, 2.297e-8
0.002, 2.280e-8
0.001, 2.278e-8
0.000, 2.248e-8
-0.001, 2.246e-8
-0.002, 2.214e-8
-0.003, 2.197e-8
-0.004, 2.195e-8
-0.005, 2.153e-8
-0.006, 2.160e-8
-0.007, 2.129e-8
-0.008, 2.110e-8
-0.009, 2.109e-8
-0.010, 2.067e-8
-0.011, 2.073e-8
-0.012, 2.045e-8
-0.013, 2.026e-8
-0.014, 2.024e-8
-0.015, 1.987e-8
-0.016, 1.991e-8
-0.017, 1.961e-8
-0.018, 1.946e-8
-0.019, 1.942e-8
-0.020, 1.906e-8
-0.021, 1.912e-8
-0.022, 1.882e-8
-0.023, 1.868e-8
-0.024, 1.867e-8
-0.025, 1.829e-8
-0.026, 1.837e-8
-0.027, 1.809e-8
-0.028, 1.795e-8
-0.029, 1.792e-8
-0.030, 1.757e-8
-0.031, 1.766e-8
-0.032, 1.737e-8
-0.033, 1.725e-8
-0.034, 1.725e-8
-0.035, 1.688e-8
-0.036, 1.700e-8
-0.037, 1.671e-8
-0.038, 1.659e-8
-0.039, 1.662e-8
-0.040, 1.624e-8
-0.041, 1.636e-8
-0.042, 1.610e-8
-0.043, 1.597e-8
-0.044, 1.600e-8
-0.045, 1.565e-8
-0.046, 1.577e-8
-0.047, 1.552e-8
-0.048, 1.541e-8
-0.049, 1.544e-8
-0.050, 1.511e-8
-0.051, 1.524e-8
-0.052, 1.499e-8
-0.053, 1.488e-8
-0.054, 1.493e-8
-0.055, 1.460e-8
-0.056, 1.473e-8
-0.057, 1.449e-8
-0.058, 1.440e-8
-0.059, 1.444e-8
-0.060, 1.414e-8
-0.061, 1.427e-8
-0.062, 1.403e-8
-0.063, 1.396e-8
-0.064, 1.400e-8
-0.065, 1.368e-8
-0.066, 1.384e-8
-0.067, 1.360e-8
-0.068, 1.354e-8
-0.069, 1.358e-8
-0.070, 1.328e-8
-0.071, 1.345e-8
-0.072, 1.321e-8
-0.073, 1.315e-8
-0.074, 1.321e-8
-0.075, 1.291e-8
-0.076, 1.308e-8
-0.077, 1.285e-8
-0.078, 1.279e-8
-0.079, 1.287e-8
-0.080, 1.255e-8
-0.081, 1.274e-8
-0.082, 1.251e-8
-0.083, 1.245e-8
-0.084, 1.254e-8
-0.085, 1.224e-8
-0.086, 1.241e-8
-0.087, 1.222e-8
-0.088, 1.215e-8
-0.089, 1.223e-8
-0.090, 1.195e-8
-0.091, 1.212e-8
-0.092, 1.193e-8
-0.093, 1.187e-8
-0.094, 1.195e-8
-0.095, 1.167e-8
-0.096, 1.185e-8
-0.097, 1.164e-8
-0.098, 1.161e-8
-0.099, 1.169e-8
-0.100, 1.141e-8
-0.101, 1.160e-8
-0.102, 1.140e-8
-0.103, 1.137e-8
-0.104, 1.144e-8
-0.105, 1.117e-8
-0.106, 1.136e-8
-0.107, 1.116e-8
-0.108, 1.114e-8
-0.109, 1.121e-8
-0.110, 1.094e-8
-0.111, 1.115e-8
-0.112, 1.094e-8
-0.113, 1.092e-8
-0.114, 1.101e-8
-0.115, 1.074e-8
-0.116, 1.095e-8
-0.117, 1.074e-8
-0.118, 1.071e-8
-0.119, 1.082e-8
-0.120, 1.055e-8
-0.121, 1.074e-8
-0.122, 1.057e-8
-0.123, 1.054e-8
-0.124, 1.063e-8
-0.125, 1.037e-8
-0.126, 1.057e-8
-0.127, 1.038e-8
-0.128, 1.037e-8
-0.129, 1.046e-8
-0.130, 1.020e-8
-0.131, 1.041e-8
-0.132, 1.022e-8
-0.133, 1.020e-8
-0.134, 1.031e-8
-0.135, 1.005e-8
-0.136, 1.025e-8
-0.137, 1.007e-8
-0.138, 1.006e-8
-0.139, 1.015e-8
-0.140, 9.911e-9
-0.141, 1.011e-8
-0.142, 9.919e-9
-0.143, 9.933e-9
-0.144, 1.001e-8
-0.145, 9.761e-9
-0.146, 9.989e-9
-0.147, 9.790e-9
-0.148, 9.791e-9
-0.149, 9.897e-9
-0.150, 9.632e-9
-0.151, 9.858e-9
-0.152, 9.676e-9
-0.153, 9.671e-9
-0.154, 9.772e-9
-0.155, 9.529e-9
-0.156, 9.746e-9
-0.157, 9.551e-9
-0.158, 9.562e-9
-0.159, 9.668e-9
-0.160, 9.407e-9
-0.161, 9.643e-9
-0.162, 9.457e-9
-0.163, 9.446e-9
-0.164, 9.580e-9
-0.165, 9.309e-9
-0.166, 9.534e-9
-0.167, 9.374e-9
-0.168, 9.358e-9
-0.169, 9.462e-9
-0.170, 9.236e-9
-0.171, 9.441e-9
-0.172, 9.273e-9
-0.173, 9.276e-9
-0.174, 9.375e-9
-0.175, 9.147e-9
-0.176, 9.367e-9
-0.177, 9.185e-9
-0.178, 9.200e-9
-0.179, 9.312e-9
-0.180, 9.064e-9
-0.181, 9.287e-9
-0.182, 9.117e-9
-0.183, 9.126e-9
-0.184, 9.226e-9
-0.185, 9.003e-9
-0.186, 9.225e-9
-0.187, 9.042e-9
-0.188, 9.074e-9
-0.189, 9.157e-9
-0.190, 8.926e-9
-0.191, 9.176e-9
-0.192, 8.983e-9
-0.193, 9.005e-9
-0.194, 9.115e-9
-0.195, 8.870e-9
-0.196, 9.116e-9
-0.197, 8.935e-9
-0.198, 8.942e-9
-0.199, 9.069e-9
