Mar. 16, 2023   09:18:30
Cyclic Voltammetry
File: c:/users/oliverrz/desktop/electrolab/data/2023_03_16\fcmeoh_macros_500_um\electrode1_cv_200mvs_500_um.bin
Data Source:  Experiment
Instrument Model:  CHI760E
Header: CV
Note: 

Init E (V) = -0.2
High E (V) = 0.3
Low E (V) = -0.2
Final E (V) = -0.2
Init P/N = P
Scan Rate (V/s) = 0.2
Segment = 3
Sample Interval (V) = 0.001
Quiet Time (sec) = 2
Sensitivity (A/V) = 1e-7

Results:

Channel 1:
Segment 1:
Ep = 0.090V
ip = -4.460e-8A
Ah = -1.330e-8C

Segment 2:
Ep = 0.032V
ip = 4.163e-8A
Ah = 1.256e-8C

Segment 3:

Potential/V, Current/A

-0.200, 2.926e-9
-0.199, 2.211e-9
-0.198, 2.245e-9
-0.197, 2.013e-9
-0.196, 1.893e-9
-0.195, 2.068e-9
-0.194, 1.943e-9
-0.193, 1.721e-9
-0.192, 1.885e-9
-0.191, 1.887e-9
-0.190, 1.636e-9
-0.189, 1.708e-9
-0.188, 1.814e-9
-0.187, 1.617e-9
-0.186, 1.541e-9
-0.185, 1.715e-9
-0.184, 1.621e-9
-0.183, 1.422e-9
-0.182, 1.575e-9
-0.181, 1.603e-9
-0.180, 1.350e-9
-0.179, 1.432e-9
-0.178, 1.564e-9
-0.177, 1.341e-9
-0.176, 1.287e-9
-0.175, 1.481e-9
-0.174, 1.371e-9
-0.173, 1.193e-9
-0.172, 1.351e-9
-0.171, 1.374e-9
-0.170, 1.157e-9
-0.169, 1.201e-9
-0.168, 1.355e-9
-0.167, 1.143e-9
-0.166, 1.072e-9
-0.165, 1.285e-9
-0.164, 1.163e-9
-0.163, 9.838e-10
-0.162, 1.170e-9
-0.161, 1.165e-9
-0.160, 9.636e-10
-0.159, 1.029e-9
-0.158, 1.141e-9
-0.157, 9.657e-10
-0.156, 8.910e-10
-0.155, 1.098e-9
-0.154, 9.823e-10
-0.153, 8.020e-10
-0.152, 9.837e-10
-0.151, 1.004e-9
-0.150, 7.696e-10
-0.149, 8.582e-10
-0.148, 9.821e-10
-0.147, 7.954e-10
-0.146, 7.241e-10
-0.145, 9.234e-10
-0.144, 8.343e-10
-0.143, 6.503e-10
-0.142, 8.141e-10
-0.141, 8.488e-10
-0.140, 6.099e-10
-0.139, 7.031e-10
-0.138, 8.349e-10
-0.137, 6.182e-10
-0.136, 5.821e-10
-0.135, 7.813e-10
-0.134, 6.612e-10
-0.133, 4.983e-10
-0.132, 6.659e-10
-0.131, 6.972e-10
-0.130, 4.733e-10
-0.129, 5.398e-10
-0.128, 6.802e-10
-0.127, 4.813e-10
-0.126, 4.191e-10
-0.125, 6.449e-10
-0.124, 5.107e-10
-0.123, 3.567e-10
-0.122, 5.329e-10
-0.121, 5.408e-10
-0.120, 3.296e-10
-0.119, 4.163e-10
-0.118, 5.219e-10
-0.117, 3.562e-10
-0.116, 2.716e-10
-0.115, 4.956e-10
-0.114, 3.769e-10
-0.113, 2.082e-10
-0.112, 3.923e-10
-0.111, 4.117e-10
-0.110, 1.709e-10
-0.109, 2.728e-10
-0.108, 3.912e-10
-0.107, 1.986e-10
-0.106, 1.481e-10
-0.105, 3.477e-10
-0.104, 2.279e-10
-0.103, 5.919e-11
-0.102, 2.244e-10
-0.101, 2.655e-10
-0.100, 2.434e-11
-0.099, 1.198e-10
-0.098, 2.367e-10
-0.097, 4.166e-11
-0.096, -5.297e-12
-0.095, 1.971e-10
-0.094, 6.135e-11
-0.093, -8.681e-11
-0.092, 7.051e-11
-0.091, 9.483e-11
-0.090, -1.340e-10
-0.089, -6.594e-11
-0.088, 7.533e-11
-0.087, -1.252e-10
-0.086, -1.968e-10
-0.085, 1.114e-11
-0.084, -1.200e-10
-0.083, -2.777e-10
-0.082, -1.092e-10
-0.081, -1.235e-10
-0.080, -3.290e-10
-0.079, -2.537e-10
-0.078, -1.530e-10
-0.077, -3.436e-10
-0.076, -4.285e-10
-0.075, -2.114e-10
-0.074, -3.508e-10
-0.073, -5.370e-10
-0.072, -3.540e-10
-0.071, -3.486e-10
-0.070, -6.067e-10
-0.069, -5.144e-10
-0.068, -4.242e-10
-0.067, -6.186e-10
-0.066, -6.978e-10
-0.065, -5.205e-10
-0.064, -6.567e-10
-0.063, -8.271e-10
-0.062, -6.910e-10
-0.061, -6.767e-10
-0.060, -9.472e-10
-0.059, -8.650e-10
-0.058, -7.759e-10
-0.057, -1.009e-9
-0.056, -1.073e-9
-0.055, -8.929e-10
-0.054, -1.073e-9
-0.053, -1.243e-9
-0.052, -1.115e-9
-0.051, -1.141e-9
-0.050, -1.394e-9
-0.049, -1.357e-9
-0.048, -1.260e-9
-0.047, -1.500e-9
-0.046, -1.613e-9
-0.045, -1.430e-9
-0.044, -1.629e-9
-0.043, -1.827e-9
-0.042, -1.703e-9
-0.041, -1.766e-9
-0.040, -2.033e-9
-0.039, -2.000e-9
-0.038, -1.972e-9
-0.037, -2.215e-9
-0.036, -2.344e-9
-0.035, -2.198e-9
-0.034, -2.408e-9
-0.033, -2.648e-9
-0.032, -2.540e-9
-0.031, -2.625e-9
-0.030, -2.947e-9
-0.029, -2.918e-9
-0.028, -2.932e-9
-0.027, -3.220e-9
-0.026, -3.371e-9
-0.025, -3.290e-9
-0.024, -3.520e-9
-0.023, -3.774e-9
-0.022, -3.735e-9
-0.021, -3.846e-9
-0.020, -4.207e-9
-0.019, -4.244e-9
-0.018, -4.274e-9
-0.017, -4.626e-9
-0.016, -4.803e-9
-0.015, -4.763e-9
-0.014, -5.078e-9
-0.013, -5.377e-9
-0.012, -5.404e-9
-0.011, -5.561e-9
-0.010, -5.981e-9
-0.009, -6.087e-9
-0.008, -6.160e-9
-0.007, -6.559e-9
-0.006, -6.846e-9
-0.005, -6.845e-9
-0.004, -7.241e-9
-0.003, -7.601e-9
-0.002, -7.687e-9
-0.001, -7.963e-9
-0.000, -8.560e-9
0.001, -8.639e-9
0.002, -8.827e-9
0.003, -9.267e-9
0.004, -9.641e-9
0.005, -9.718e-9
0.006, -1.018e-8
0.007, -1.066e-8
0.008, -1.082e-8
0.009, -1.116e-8
0.010, -1.174e-8
0.011, -1.198e-8
0.012, -1.227e-8
0.013, -1.283e-8
0.014, -1.327e-8
0.015, -1.349e-8
0.016, -1.402e-8
0.017, -1.459e-8
0.018, -1.487e-8
0.019, -1.528e-8
0.020, -1.597e-8
0.021, -1.633e-8
0.022, -1.671e-8
0.023, -1.737e-8
0.024, -1.790e-8
0.025, -1.822e-8
0.026, -1.888e-8
0.027, -1.949e-8
0.028, -1.990e-8
0.029, -2.039e-8
0.030, -2.115e-8
0.031, -2.164e-8
0.032, -2.205e-8
0.033, -2.280e-8
0.034, -2.344e-8
0.035, -2.379e-8
0.036, -2.454e-8
0.037, -2.524e-8
0.038, -2.568e-8
0.039, -2.630e-8
0.040, -2.707e-8
0.041, -2.757e-8
0.042, -2.811e-8
0.043, -2.884e-8
0.044, -2.955e-8
0.045, -2.990e-8
0.046, -3.064e-8
0.047, -3.140e-8
0.048, -3.182e-8
0.049, -3.241e-8
0.050, -3.320e-8
0.051, -3.371e-8
0.052, -3.423e-8
0.053, -3.492e-8
0.054, -3.553e-8
0.055, -3.593e-8
0.056, -3.657e-8
0.057, -3.724e-8
0.058, -3.762e-8
0.059, -3.813e-8
0.060, -3.885e-8
0.061, -3.924e-8
0.062, -3.964e-8
0.063, -4.031e-8
0.064, -4.075e-8
0.065, -4.104e-8
0.066, -4.159e-8
0.067, -4.209e-8
0.068, -4.237e-8
0.069, -4.272e-8
0.070, -4.326e-8
0.071, -4.354e-8
0.072, -4.374e-8
0.073, -4.422e-8
0.074, -4.457e-8
0.075, -4.461e-8
0.076, -4.506e-8
0.077, -4.539e-8
0.078, -4.545e-8
0.079, -4.569e-8
0.080, -4.601e-8
0.081, -4.609e-8
0.082, -4.618e-8
0.083, -4.643e-8
0.084, -4.663e-8
0.085, -4.651e-8
0.086, -4.673e-8
0.087, -4.694e-8
0.088, -4.679e-8
0.089, -4.686e-8
0.090, -4.709e-8
0.091, -4.696e-8
0.092, -4.691e-8
0.093, -4.703e-8
0.094, -4.701e-8
0.095, -4.679e-8
0.096, -4.684e-8
0.097, -4.690e-8
0.098, -4.667e-8
0.099, -4.656e-8
0.100, -4.669e-8
0.101, -4.644e-8
0.102, -4.626e-8
0.103, -4.631e-8
0.104, -4.618e-8
0.105, -4.583e-8
0.106, -4.583e-8
0.107, -4.577e-8
0.108, -4.546e-8
0.109, -4.526e-8
0.110, -4.530e-8
0.111, -4.502e-8
0.112, -4.471e-8
0.113, -4.472e-8
0.114, -4.455e-8
0.115, -4.414e-8
0.116, -4.412e-8
0.117, -4.399e-8
0.118, -4.362e-8
0.119, -4.342e-8
0.120, -4.340e-8
0.121, -4.308e-8
0.122, -4.278e-8
0.123, -4.273e-8
0.124, -4.257e-8
0.125, -4.211e-8
0.126, -4.206e-8
0.127, -4.198e-8
0.128, -4.157e-8
0.129, -4.136e-8
0.130, -4.135e-8
0.131, -4.100e-8
0.132, -4.071e-8
0.133, -4.066e-8
0.134, -4.047e-8
0.135, -4.008e-8
0.136, -3.998e-8
0.137, -3.991e-8
0.138, -3.952e-8
0.139, -3.929e-8
0.140, -3.932e-8
0.141, -3.898e-8
0.142, -3.868e-8
0.143, -3.868e-8
0.144, -3.848e-8
0.145, -3.808e-8
0.146, -3.805e-8
0.147, -3.796e-8
0.148, -3.761e-8
0.149, -3.740e-8
0.150, -3.743e-8
0.151, -3.714e-8
0.152, -3.684e-8
0.153, -3.686e-8
0.154, -3.671e-8
0.155, -3.631e-8
0.156, -3.632e-8
0.157, -3.624e-8
0.158, -3.588e-8
0.159, -3.575e-8
0.160, -3.577e-8
0.161, -3.549e-8
0.162, -3.525e-8
0.163, -3.524e-8
0.164, -3.515e-8
0.165, -3.477e-8
0.166, -3.478e-8
0.167, -3.477e-8
0.168, -3.441e-8
0.169, -3.426e-8
0.170, -3.436e-8
0.171, -3.406e-8
0.172, -3.385e-8
0.173, -3.388e-8
0.174, -3.378e-8
0.175, -3.346e-8
0.176, -3.345e-8
0.177, -3.345e-8
0.178, -3.315e-8
0.179, -3.303e-8
0.180, -3.312e-8
0.181, -3.287e-8
0.182, -3.265e-8
0.183, -3.273e-8
0.184, -3.263e-8
0.185, -3.232e-8
0.186, -3.236e-8
0.187, -3.235e-8
0.188, -3.207e-8
0.189, -3.196e-8
0.190, -3.207e-8
0.191, -3.185e-8
0.192, -3.164e-8
0.193, -3.174e-8
0.194, -3.167e-8
0.195, -3.133e-8
0.196, -3.142e-8
0.197, -3.143e-8
0.198, -3.115e-8
0.199, -3.107e-8
0.200, -3.119e-8
0.201, -3.096e-8
0.202, -3.079e-8
0.203, -3.088e-8
0.204, -3.084e-8
0.205, -3.054e-8
0.206, -3.060e-8
0.207, -3.065e-8
0.208, -3.037e-8
0.209, -3.030e-8
0.210, -3.045e-8
0.211, -3.023e-8
0.212, -3.008e-8
0.213, -3.019e-8
0.214, -3.012e-8
0.215, -2.988e-8
0.216, -2.993e-8
0.217, -3.000e-8
0.218, -2.974e-8
0.219, -2.967e-8
0.220, -2.983e-8
0.221, -2.963e-8
0.222, -2.946e-8
0.223, -2.962e-8
0.224, -2.954e-8
0.225, -2.929e-8
0.226, -2.939e-8
0.227, -2.943e-8
0.228, -2.920e-8
0.229, -2.915e-8
0.230, -2.931e-8
0.231, -2.914e-8
0.232, -2.898e-8
0.233, -2.911e-8
0.234, -2.908e-8
0.235, -2.882e-8
0.236, -2.894e-8
0.237, -2.899e-8
0.238, -2.875e-8
0.239, -2.873e-8
0.240, -2.889e-8
0.241, -2.871e-8
0.242, -2.859e-8
0.243, -2.872e-8
0.244, -2.870e-8
0.245, -2.845e-8
0.246, -2.856e-8
0.247, -2.864e-8
0.248, -2.839e-8
0.249, -2.837e-8
0.250, -2.856e-8
0.251, -2.836e-8
0.252, -2.825e-8
0.253, -2.840e-8
0.254, -2.838e-8
0.255, -2.815e-8
0.256, -2.827e-8
0.257, -2.834e-8
0.258, -2.812e-8
0.259, -2.809e-8
0.260, -2.829e-8
0.261, -2.811e-8
0.262, -2.799e-8
0.263, -2.816e-8
0.264, -2.814e-8
0.265, -2.790e-8
0.266, -2.805e-8
0.267, -2.811e-8
0.268, -2.792e-8
0.269, -2.790e-8
0.270, -2.808e-8
0.271, -2.794e-8
0.272, -2.780e-8
0.273, -2.797e-8
0.274, -2.797e-8
0.275, -2.773e-8
0.276, -2.789e-8
0.277, -2.796e-8
0.278, -2.776e-8
0.279, -2.776e-8
0.280, -2.794e-8
0.281, -2.780e-8
0.282, -2.770e-8
0.283, -2.786e-8
0.284, -2.787e-8
0.285, -2.764e-8
0.286, -2.778e-8
0.287, -2.789e-8
0.288, -2.767e-8
0.289, -2.767e-8
0.290, -2.790e-8
0.291, -2.772e-8
0.292, -2.765e-8
0.293, -2.781e-8
0.294, -2.782e-8
0.295, -2.762e-8
0.296, -2.775e-8
0.297, -2.786e-8
0.298, -2.768e-8
0.299, -2.767e-8
0.300, -2.518e-8
0.299, -2.288e-8
0.298, -2.230e-8
0.297, -2.213e-8
0.296, -2.188e-8
0.295, -2.140e-8
0.294, -2.136e-8
0.293, -2.126e-8
0.292, -2.088e-8
0.291, -2.075e-8
0.290, -2.079e-8
0.289, -2.049e-8
0.288, -2.030e-8
0.287, -2.033e-8
0.286, -2.022e-8
0.285, -1.989e-8
0.284, -1.994e-8
0.283, -1.994e-8
0.282, -1.963e-8
0.281, -1.954e-8
0.280, -1.966e-8
0.279, -1.942e-8
0.278, -1.925e-8
0.277, -1.936e-8
0.276, -1.926e-8
0.275, -1.899e-8
0.274, -1.906e-8
0.273, -1.907e-8
0.272, -1.883e-8
0.271, -1.875e-8
0.270, -1.889e-8
0.269, -1.867e-8
0.268, -1.851e-8
0.267, -1.865e-8
0.266, -1.858e-8
0.265, -1.830e-8
0.264, -1.841e-8
0.263, -1.843e-8
0.262, -1.818e-8
0.261, -1.815e-8
0.260, -1.828e-8
0.259, -1.809e-8
0.258, -1.795e-8
0.257, -1.807e-8
0.256, -1.802e-8
0.255, -1.775e-8
0.254, -1.786e-8
0.253, -1.792e-8
0.252, -1.765e-8
0.251, -1.764e-8
0.250, -1.779e-8
0.249, -1.757e-8
0.248, -1.747e-8
0.247, -1.759e-8
0.246, -1.754e-8
0.245, -1.730e-8
0.244, -1.739e-8
0.243, -1.745e-8
0.242, -1.722e-8
0.241, -1.718e-8
0.240, -1.736e-8
0.239, -1.714e-8
0.238, -1.703e-8
0.237, -1.718e-8
0.236, -1.711e-8
0.235, -1.688e-8
0.234, -1.701e-8
0.233, -1.704e-8
0.232, -1.681e-8
0.231, -1.677e-8
0.230, -1.695e-8
0.229, -1.675e-8
0.228, -1.662e-8
0.227, -1.678e-8
0.226, -1.673e-8
0.225, -1.647e-8
0.224, -1.662e-8
0.223, -1.665e-8
0.222, -1.641e-8
0.221, -1.641e-8
0.220, -1.655e-8
0.219, -1.636e-8
0.218, -1.625e-8
0.217, -1.638e-8
0.216, -1.635e-8
0.215, -1.609e-8
0.214, -1.622e-8
0.213, -1.627e-8
0.212, -1.602e-8
0.211, -1.602e-8
0.210, -1.617e-8
0.209, -1.596e-8
0.208, -1.586e-8
0.207, -1.599e-8
0.206, -1.594e-8
0.205, -1.570e-8
0.204, -1.580e-8
0.203, -1.587e-8
0.202, -1.562e-8
0.201, -1.560e-8
0.200, -1.577e-8
0.199, -1.555e-8
0.198, -1.544e-8
0.197, -1.558e-8
0.196, -1.549e-8
0.195, -1.528e-8
0.194, -1.538e-8
0.193, -1.541e-8
0.192, -1.517e-8
0.191, -1.514e-8
0.190, -1.530e-8
0.189, -1.508e-8
0.188, -1.495e-8
0.187, -1.509e-8
0.186, -1.503e-8
0.185, -1.475e-8
0.184, -1.488e-8
0.183, -1.490e-8
0.182, -1.465e-8
0.181, -1.462e-8
0.180, -1.475e-8
0.179, -1.452e-8
0.178, -1.440e-8
0.177, -1.450e-8
0.176, -1.444e-8
0.175, -1.416e-8
0.174, -1.426e-8
0.173, -1.427e-8
0.172, -1.398e-8
0.171, -1.396e-8
0.170, -1.409e-8
0.169, -1.382e-8
0.168, -1.369e-8
0.167, -1.378e-8
0.166, -1.369e-8
0.165, -1.341e-8
0.164, -1.346e-8
0.163, -1.348e-8
0.162, -1.318e-8
0.161, -1.311e-8
0.160, -1.322e-8
0.159, -1.294e-8
0.158, -1.277e-8
0.157, -1.286e-8
0.156, -1.270e-8
0.155, -1.241e-8
0.154, -1.245e-8
0.153, -1.241e-8
0.152, -1.210e-8
0.151, -1.198e-8
0.150, -1.206e-8
0.149, -1.176e-8
0.148, -1.154e-8
0.147, -1.159e-8
0.146, -1.143e-8
0.145, -1.107e-8
0.144, -1.108e-8
0.143, -1.099e-8
0.142, -1.063e-8
0.141, -1.049e-8
0.140, -1.049e-8
0.139, -1.016e-8
0.138, -9.905e-9
0.137, -9.866e-9
0.136, -9.674e-9
0.135, -9.249e-9
0.134, -9.226e-9
0.133, -9.080e-9
0.132, -8.623e-9
0.131, -8.463e-9
0.130, -8.402e-9
0.129, -7.969e-9
0.128, -7.664e-9
0.127, -7.576e-9
0.126, -7.284e-9
0.125, -6.816e-9
0.124, -6.671e-9
0.123, -6.481e-9
0.122, -5.970e-9
0.121, -5.685e-9
0.120, -5.574e-9
0.119, -5.051e-9
0.118, -4.671e-9
0.117, -4.512e-9
0.116, -4.100e-9
0.115, -3.588e-9
0.114, -3.369e-9
0.113, -3.038e-9
0.112, -2.474e-9
0.111, -2.089e-9
0.110, -1.880e-9
0.109, -1.288e-9
0.108, -7.851e-10
0.107, -5.470e-10
0.106, -4.015e-11
0.105, 6.186e-10
0.104, 8.894e-10
0.103, 1.345e-9
0.102, 2.027e-9
0.101, 2.468e-9
0.100, 2.826e-9
0.099, 3.472e-9
0.098, 4.050e-9
0.097, 4.427e-9
0.096, 4.971e-9
0.095, 5.744e-9
0.094, 6.099e-9
0.093, 6.620e-9
0.092, 7.415e-9
0.091, 7.896e-9
0.090, 8.355e-9
0.089, 9.127e-9
0.088, 9.727e-9
0.087, 1.019e-8
0.086, 1.082e-8
0.085, 1.159e-8
0.084, 1.207e-8
0.083, 1.258e-8
0.082, 1.340e-8
0.081, 1.397e-8
0.080, 1.441e-8
0.079, 1.521e-8
0.078, 1.587e-8
0.077, 1.633e-8
0.076, 1.701e-8
0.075, 1.775e-8
0.074, 1.819e-8
0.073, 1.876e-8
0.072, 1.952e-8
0.071, 2.008e-8
0.070, 2.047e-8
0.069, 2.121e-8
0.068, 2.186e-8
0.067, 2.221e-8
0.066, 2.281e-8
0.065, 2.352e-8
0.064, 2.389e-8
0.063, 2.437e-8
0.062, 2.503e-8
0.061, 2.547e-8
0.060, 2.581e-8
0.059, 2.638e-8
0.058, 2.688e-8
0.057, 2.717e-8
0.056, 2.759e-8
0.055, 2.816e-8
0.054, 2.838e-8
0.053, 2.869e-8
0.052, 2.925e-8
0.051, 2.951e-8
0.050, 2.966e-8
0.049, 3.013e-8
0.048, 3.040e-8
0.047, 3.055e-8
0.046, 3.079e-8
0.045, 3.118e-8
0.044, 3.125e-8
0.043, 3.137e-8
0.042, 3.174e-8
0.041, 3.184e-8
0.040, 3.180e-8
0.039, 3.211e-8
0.038, 3.225e-8
0.037, 3.216e-8
0.036, 3.231e-8
0.035, 3.248e-8
0.034, 3.239e-8
0.033, 3.238e-8
0.032, 3.255e-8
0.031, 3.253e-8
0.030, 3.234e-8
0.029, 3.247e-8
0.028, 3.249e-8
0.027, 3.225e-8
0.026, 3.226e-8
0.025, 3.238e-8
0.024, 3.210e-8
0.023, 3.196e-8
0.022, 3.205e-8
0.021, 3.187e-8
0.020, 3.161e-8
0.019, 3.161e-8
0.018, 3.155e-8
0.017, 3.123e-8
0.016, 3.111e-8
0.015, 3.117e-8
0.014, 3.083e-8
0.013, 3.059e-8
0.012, 3.064e-8
0.011, 3.040e-8
0.010, 3.005e-8
0.009, 3.005e-8
0.008, 2.990e-8
0.007, 2.955e-8
0.006, 2.938e-8
0.005, 2.937e-8
0.004, 2.902e-8
0.003, 2.874e-8
0.002, 2.876e-8
0.001, 2.851e-8
0.000, 2.825e-8
-0.001, 2.814e-8
-0.002, 2.795e-8
-0.003, 2.758e-8
-0.004, 2.743e-8
-0.005, 2.738e-8
-0.006, 2.701e-8
-0.007, 2.675e-8
-0.008, 2.674e-8
-0.009, 2.650e-8
-0.010, 2.610e-8
-0.011, 2.608e-8
-0.012, 2.596e-8
-0.013, 2.555e-8
-0.014, 2.540e-8
-0.015, 2.540e-8
-0.016, 2.502e-8
-0.017, 2.477e-8
-0.018, 2.477e-8
-0.019, 2.453e-8
-0.020, 2.418e-8
-0.021, 2.415e-8
-0.022, 2.402e-8
-0.023, 2.366e-8
-0.024, 2.351e-8
-0.025, 2.354e-8
-0.026, 2.318e-8
-0.027, 2.293e-8
-0.028, 2.299e-8
-0.029, 2.274e-8
-0.030, 2.239e-8
-0.031, 2.242e-8
-0.032, 2.229e-8
-0.033, 2.195e-8
-0.034, 2.183e-8
-0.035, 2.185e-8
-0.036, 2.155e-8
-0.037, 2.131e-8
-0.038, 2.138e-8
-0.039, 2.118e-8
-0.040, 2.083e-8
-0.041, 2.088e-8
-0.042, 2.078e-8
-0.043, 2.045e-8
-0.044, 2.038e-8
-0.045, 2.039e-8
-0.046, 2.009e-8
-0.047, 1.991e-8
-0.048, 1.998e-8
-0.049, 1.980e-8
-0.050, 1.949e-8
-0.051, 1.955e-8
-0.052, 1.949e-8
-0.053, 1.914e-8
-0.054, 1.909e-8
-0.055, 1.916e-8
-0.056, 1.885e-8
-0.057, 1.870e-8
-0.058, 1.878e-8
-0.059, 1.861e-8
-0.060, 1.834e-8
-0.061, 1.839e-8
-0.062, 1.835e-8
-0.063, 1.806e-8
-0.064, 1.800e-8
-0.065, 1.809e-8
-0.066, 1.781e-8
-0.067, 1.765e-8
-0.068, 1.778e-8
-0.069, 1.759e-8
-0.070, 1.733e-8
-0.071, 1.743e-8
-0.072, 1.739e-8
-0.073, 1.710e-8
-0.074, 1.708e-8
-0.075, 1.716e-8
-0.076, 1.692e-8
-0.077, 1.675e-8
-0.078, 1.689e-8
-0.079, 1.675e-8
-0.080, 1.648e-8
-0.081, 1.660e-8
-0.082, 1.656e-8
-0.083, 1.628e-8
-0.084, 1.628e-8
-0.085, 1.637e-8
-0.086, 1.612e-8
-0.087, 1.600e-8
-0.088, 1.612e-8
-0.089, 1.601e-8
-0.090, 1.576e-8
-0.091, 1.587e-8
-0.092, 1.586e-8
-0.093, 1.558e-8
-0.094, 1.559e-8
-0.095, 1.571e-8
-0.096, 1.545e-8
-0.097, 1.534e-8
-0.098, 1.549e-8
-0.099, 1.536e-8
-0.100, 1.514e-8
-0.101, 1.526e-8
-0.102, 1.526e-8
-0.103, 1.500e-8
-0.104, 1.501e-8
-0.105, 1.512e-8
-0.106, 1.489e-8
-0.107, 1.478e-8
-0.108, 1.496e-8
-0.109, 1.482e-8
-0.110, 1.460e-8
-0.111, 1.475e-8
-0.112, 1.473e-8
-0.113, 1.449e-8
-0.114, 1.451e-8
-0.115, 1.463e-8
-0.116, 1.442e-8
-0.117, 1.431e-8
-0.118, 1.447e-8
-0.119, 1.438e-8
-0.120, 1.414e-8
-0.121, 1.430e-8
-0.122, 1.430e-8
-0.123, 1.405e-8
-0.124, 1.411e-8
-0.125, 1.420e-8
-0.126, 1.399e-8
-0.127, 1.391e-8
-0.128, 1.408e-8
-0.129, 1.397e-8
-0.130, 1.377e-8
-0.131, 1.390e-8
-0.132, 1.394e-8
-0.133, 1.368e-8
-0.134, 1.372e-8
-0.135, 1.386e-8
-0.136, 1.364e-8
-0.137, 1.357e-8
-0.138, 1.373e-8
-0.139, 1.363e-8
-0.140, 1.344e-8
-0.141, 1.359e-8
-0.142, 1.359e-8
-0.143, 1.338e-8
-0.144, 1.340e-8
-0.145, 1.356e-8
-0.146, 1.334e-8
-0.147, 1.326e-8
-0.148, 1.348e-8
-0.149, 1.333e-8
-0.150, 1.315e-8
-0.151, 1.333e-8
-0.152, 1.332e-8
-0.153, 1.312e-8
-0.154, 1.316e-8
-0.155, 1.329e-8
-0.156, 1.311e-8
-0.157, 1.301e-8
-0.158, 1.321e-8
-0.159, 1.312e-8
-0.160, 1.292e-8
-0.161, 1.310e-8
-0.162, 1.311e-8
-0.163, 1.289e-8
-0.164, 1.297e-8
-0.165, 1.308e-8
-0.166, 1.290e-8
-0.167, 1.283e-8
-0.168, 1.302e-8
-0.169, 1.293e-8
-0.170, 1.274e-8
-0.171, 1.290e-8
-0.172, 1.296e-8
-0.173, 1.271e-8
-0.174, 1.278e-8
-0.175, 1.293e-8
-0.176, 1.273e-8
-0.177, 1.268e-8
-0.178, 1.287e-8
-0.179, 1.278e-8
-0.180, 1.262e-8
-0.181, 1.277e-8
-0.182, 1.280e-8
-0.183, 1.259e-8
-0.184, 1.265e-8
-0.185, 1.281e-8
-0.186, 1.262e-8
-0.187, 1.254e-8
-0.188, 1.278e-8
-0.189, 1.266e-8
-0.190, 1.250e-8
-0.191, 1.269e-8
-0.192, 1.271e-8
-0.193, 1.251e-8
-0.194, 1.258e-8
-0.195, 1.271e-8
-0.196, 1.256e-8
-0.197, 1.248e-8
-0.198, 1.270e-8
-0.199, 1.261e-8
