Mar. 16, 2023   09:19:49
Cyclic Voltammetry
File: c:/users/oliverrz/desktop/electrolab/data/2023_03_16\fcmeoh_macros_500_um\electrode2_cv_200mvs_500_um.bin
Data Source:  Experiment
Instrument Model:  CHI760E
Header: CV
Note: 

Init E (V) = -0.2
High E (V) = 0.3
Low E (V) = -0.2
Final E (V) = -0.2
Init P/N = P
Scan Rate (V/s) = 0.2
Segment = 3
Sample Interval (V) = 0.001
Quiet Time (sec) = 2
Sensitivity (A/V) = 1e-7

Results:

Channel 1:
Segment 1:
Ep = 0.087V
ip = -4.273e-8A
Ah = -1.261e-8C

Segment 2:
Ep = 0.028V
ip = 4.100e-8A
Ah = 1.245e-8C

Segment 3:

Potential/V, Current/A

-0.200, 4.718e-9
-0.199, 3.631e-9
-0.198, 3.626e-9
-0.197, 3.403e-9
-0.196, 3.107e-9
-0.195, 3.188e-9
-0.194, 3.142e-9
-0.193, 2.819e-9
-0.192, 2.856e-9
-0.191, 2.910e-9
-0.190, 2.674e-9
-0.189, 2.559e-9
-0.188, 2.695e-9
-0.187, 2.542e-9
-0.186, 2.348e-9
-0.185, 2.435e-9
-0.184, 2.447e-9
-0.183, 2.186e-9
-0.182, 2.209e-9
-0.181, 2.303e-9
-0.180, 2.073e-9
-0.179, 1.973e-9
-0.178, 2.146e-9
-0.177, 1.992e-9
-0.176, 1.815e-9
-0.175, 1.941e-9
-0.174, 1.920e-9
-0.173, 1.691e-9
-0.172, 1.720e-9
-0.171, 1.818e-9
-0.170, 1.622e-9
-0.169, 1.503e-9
-0.168, 1.713e-9
-0.167, 1.543e-9
-0.166, 1.363e-9
-0.165, 1.511e-9
-0.164, 1.503e-9
-0.163, 1.256e-9
-0.162, 1.319e-9
-0.161, 1.401e-9
-0.160, 1.225e-9
-0.159, 1.123e-9
-0.158, 1.295e-9
-0.157, 1.170e-9
-0.156, 9.883e-10
-0.155, 1.128e-9
-0.154, 1.132e-9
-0.153, 8.651e-10
-0.152, 9.579e-10
-0.151, 1.052e-9
-0.150, 8.385e-10
-0.149, 7.617e-10
-0.148, 9.522e-10
-0.147, 8.123e-10
-0.146, 6.453e-10
-0.145, 7.754e-10
-0.144, 8.022e-10
-0.143, 5.360e-10
-0.142, 6.085e-10
-0.141, 7.193e-10
-0.140, 5.195e-10
-0.139, 4.274e-10
-0.138, 6.348e-10
-0.137, 4.802e-10
-0.136, 3.314e-10
-0.135, 4.698e-10
-0.134, 4.683e-10
-0.133, 2.442e-10
-0.132, 2.966e-10
-0.131, 4.161e-10
-0.130, 2.309e-10
-0.129, 1.192e-10
-0.128, 3.288e-10
-0.127, 1.972e-10
-0.126, 1.390e-11
-0.125, 1.860e-10
-0.124, 1.839e-10
-0.123, -4.468e-11
-0.122, 2.739e-11
-0.121, 1.213e-10
-0.120, -5.216e-11
-0.119, -1.405e-10
-0.118, 5.170e-11
-0.117, -7.884e-11
-0.116, -2.455e-10
-0.115, -9.991e-11
-0.114, -7.254e-11
-0.113, -3.336e-10
-0.112, -2.320e-10
-0.111, -1.375e-10
-0.110, -3.360e-10
-0.109, -4.062e-10
-0.108, -2.169e-10
-0.107, -3.462e-10
-0.106, -5.074e-10
-0.105, -3.769e-10
-0.104, -3.406e-10
-0.103, -5.977e-10
-0.102, -5.212e-10
-0.101, -4.086e-10
-0.100, -6.071e-10
-0.099, -6.872e-10
-0.098, -4.752e-10
-0.097, -6.366e-10
-0.096, -7.761e-10
-0.095, -6.335e-10
-0.094, -6.385e-10
-0.093, -8.526e-10
-0.092, -7.956e-10
-0.091, -6.803e-10
-0.090, -8.838e-10
-0.089, -9.761e-10
-0.088, -7.636e-10
-0.087, -9.047e-10
-0.086, -1.088e-9
-0.085, -9.200e-10
-0.084, -9.320e-10
-0.083, -1.161e-9
-0.082, -1.075e-9
-0.081, -1.003e-9
-0.080, -1.192e-9
-0.079, -1.264e-9
-0.078, -1.094e-9
-0.077, -1.232e-9
-0.076, -1.408e-9
-0.075, -1.259e-9
-0.074, -1.254e-9
-0.073, -1.520e-9
-0.072, -1.429e-9
-0.071, -1.345e-9
-0.070, -1.556e-9
-0.069, -1.624e-9
-0.068, -1.467e-9
-0.067, -1.612e-9
-0.066, -1.786e-9
-0.065, -1.666e-9
-0.064, -1.671e-9
-0.063, -1.925e-9
-0.062, -1.867e-9
-0.061, -1.773e-9
-0.060, -2.011e-9
-0.059, -2.094e-9
-0.058, -1.915e-9
-0.057, -2.104e-9
-0.056, -2.277e-9
-0.055, -2.162e-9
-0.054, -2.191e-9
-0.053, -2.442e-9
-0.052, -2.418e-9
-0.051, -2.350e-9
-0.050, -2.574e-9
-0.049, -2.699e-9
-0.048, -2.528e-9
-0.047, -2.716e-9
-0.046, -2.940e-9
-0.045, -2.811e-9
-0.044, -2.873e-9
-0.043, -3.160e-9
-0.042, -3.127e-9
-0.041, -3.102e-9
-0.040, -3.351e-9
-0.039, -3.477e-9
-0.038, -3.373e-9
-0.037, -3.560e-9
-0.036, -3.803e-9
-0.035, -3.708e-9
-0.034, -3.791e-9
-0.033, -4.119e-9
-0.032, -4.106e-9
-0.031, -4.098e-9
-0.030, -4.410e-9
-0.029, -4.545e-9
-0.028, -4.486e-9
-0.027, -4.718e-9
-0.026, -4.995e-9
-0.025, -4.966e-9
-0.024, -5.072e-9
-0.023, -5.417e-9
-0.022, -5.484e-9
-0.021, -5.505e-9
-0.020, -5.863e-9
-0.019, -6.050e-9
-0.018, -6.028e-9
-0.017, -6.342e-9
-0.016, -6.622e-9
-0.015, -6.647e-9
-0.014, -6.855e-9
-0.013, -7.242e-9
-0.012, -7.383e-9
-0.011, -7.450e-9
-0.010, -7.857e-9
-0.009, -8.137e-9
-0.008, -8.153e-9
-0.007, -8.521e-9
-0.006, -8.920e-9
-0.005, -8.989e-9
-0.004, -9.264e-9
-0.003, -9.723e-9
-0.002, -9.902e-9
-0.001, -1.011e-8
-0.000, -1.072e-8
0.001, -1.097e-8
0.002, -1.109e-8
0.003, -1.151e-8
0.004, -1.200e-8
0.005, -1.214e-8
0.006, -1.250e-8
0.007, -1.307e-8
0.008, -1.334e-8
0.009, -1.361e-8
0.010, -1.419e-8
0.011, -1.459e-8
0.012, -1.485e-8
0.013, -1.539e-8
0.014, -1.596e-8
0.015, -1.624e-8
0.016, -1.666e-8
0.017, -1.734e-8
0.018, -1.771e-8
0.019, -1.806e-8
0.020, -1.875e-8
0.021, -1.927e-8
0.022, -1.957e-8
0.023, -2.024e-8
0.024, -2.087e-8
0.025, -2.126e-8
0.026, -2.183e-8
0.027, -2.252e-8
0.028, -2.301e-8
0.029, -2.346e-8
0.030, -2.420e-8
0.031, -2.483e-8
0.032, -2.518e-8
0.033, -2.592e-8
0.034, -2.664e-8
0.035, -2.704e-8
0.036, -2.770e-8
0.037, -2.843e-8
0.038, -2.897e-8
0.039, -2.949e-8
0.040, -3.024e-8
0.041, -3.089e-8
0.042, -3.132e-8
0.043, -3.202e-8
0.044, -3.280e-8
0.045, -3.318e-8
0.046, -3.381e-8
0.047, -3.460e-8
0.048, -3.506e-8
0.049, -3.555e-8
0.050, -3.631e-8
0.051, -3.690e-8
0.052, -3.731e-8
0.053, -3.796e-8
0.054, -3.861e-8
0.055, -3.902e-8
0.056, -3.950e-8
0.057, -4.019e-8
0.058, -4.063e-8
0.059, -4.098e-8
0.060, -4.167e-8
0.061, -4.209e-8
0.062, -4.237e-8
0.063, -4.294e-8
0.064, -4.346e-8
0.065, -4.368e-8
0.066, -4.410e-8
0.067, -4.457e-8
0.068, -4.487e-8
0.069, -4.506e-8
0.070, -4.557e-8
0.071, -4.589e-8
0.072, -4.594e-8
0.073, -4.635e-8
0.074, -4.672e-8
0.075, -4.673e-8
0.076, -4.698e-8
0.077, -4.735e-8
0.078, -4.741e-8
0.079, -4.749e-8
0.080, -4.777e-8
0.081, -4.791e-8
0.082, -4.785e-8
0.083, -4.800e-8
0.084, -4.821e-8
0.085, -4.808e-8
0.086, -4.814e-8
0.087, -4.834e-8
0.088, -4.824e-8
0.089, -4.816e-8
0.090, -4.833e-8
0.091, -4.827e-8
0.092, -4.808e-8
0.093, -4.810e-8
0.094, -4.818e-8
0.095, -4.793e-8
0.096, -4.783e-8
0.097, -4.792e-8
0.098, -4.772e-8
0.099, -4.747e-8
0.100, -4.755e-8
0.101, -4.740e-8
0.102, -4.709e-8
0.103, -4.709e-8
0.104, -4.703e-8
0.105, -4.668e-8
0.106, -4.653e-8
0.107, -4.650e-8
0.108, -4.624e-8
0.109, -4.592e-8
0.110, -4.593e-8
0.111, -4.576e-8
0.112, -4.535e-8
0.113, -4.528e-8
0.114, -4.521e-8
0.115, -4.481e-8
0.116, -4.464e-8
0.117, -4.459e-8
0.118, -4.427e-8
0.119, -4.397e-8
0.120, -4.391e-8
0.121, -4.371e-8
0.122, -4.332e-8
0.123, -4.321e-8
0.124, -4.315e-8
0.125, -4.270e-8
0.126, -4.251e-8
0.127, -4.251e-8
0.128, -4.218e-8
0.129, -4.184e-8
0.130, -4.183e-8
0.131, -4.161e-8
0.132, -4.121e-8
0.133, -4.113e-8
0.134, -4.104e-8
0.135, -4.065e-8
0.136, -4.044e-8
0.137, -4.042e-8
0.138, -4.013e-8
0.139, -3.980e-8
0.140, -3.980e-8
0.141, -3.961e-8
0.142, -3.921e-8
0.143, -3.916e-8
0.144, -3.907e-8
0.145, -3.869e-8
0.146, -3.853e-8
0.147, -3.851e-8
0.148, -3.824e-8
0.149, -3.792e-8
0.150, -3.794e-8
0.151, -3.779e-8
0.152, -3.740e-8
0.153, -3.737e-8
0.154, -3.734e-8
0.155, -3.695e-8
0.156, -3.682e-8
0.157, -3.684e-8
0.158, -3.656e-8
0.159, -3.630e-8
0.160, -3.632e-8
0.161, -3.618e-8
0.162, -3.585e-8
0.163, -3.581e-8
0.164, -3.581e-8
0.165, -3.546e-8
0.166, -3.533e-8
0.167, -3.539e-8
0.168, -3.512e-8
0.169, -3.489e-8
0.170, -3.495e-8
0.171, -3.481e-8
0.172, -3.451e-8
0.173, -3.449e-8
0.174, -3.449e-8
0.175, -3.418e-8
0.176, -3.407e-8
0.177, -3.414e-8
0.178, -3.393e-8
0.179, -3.369e-8
0.180, -3.378e-8
0.181, -3.366e-8
0.182, -3.336e-8
0.183, -3.339e-8
0.184, -3.340e-8
0.185, -3.309e-8
0.186, -3.302e-8
0.187, -3.310e-8
0.188, -3.290e-8
0.189, -3.268e-8
0.190, -3.279e-8
0.191, -3.270e-8
0.192, -3.242e-8
0.193, -3.246e-8
0.194, -3.252e-8
0.195, -3.219e-8
0.196, -3.215e-8
0.197, -3.225e-8
0.198, -3.204e-8
0.199, -3.187e-8
0.200, -3.198e-8
0.201, -3.189e-8
0.202, -3.165e-8
0.203, -3.169e-8
0.204, -3.176e-8
0.205, -3.148e-8
0.206, -3.143e-8
0.207, -3.157e-8
0.208, -3.136e-8
0.209, -3.119e-8
0.210, -3.135e-8
0.211, -3.126e-8
0.212, -3.103e-8
0.213, -3.110e-8
0.214, -3.115e-8
0.215, -3.090e-8
0.216, -3.086e-8
0.217, -3.100e-8
0.218, -3.084e-8
0.219, -3.066e-8
0.220, -3.082e-8
0.221, -3.076e-8
0.222, -3.052e-8
0.223, -3.062e-8
0.224, -3.069e-8
0.225, -3.044e-8
0.226, -3.043e-8
0.227, -3.056e-8
0.228, -3.041e-8
0.229, -3.025e-8
0.230, -3.044e-8
0.231, -3.039e-8
0.232, -3.016e-8
0.233, -3.025e-8
0.234, -3.036e-8
0.235, -3.010e-8
0.236, -3.011e-8
0.237, -3.026e-8
0.238, -3.010e-8
0.239, -2.998e-8
0.240, -3.014e-8
0.241, -3.011e-8
0.242, -2.991e-8
0.243, -3.001e-8
0.244, -3.012e-8
0.245, -2.987e-8
0.246, -2.988e-8
0.247, -3.007e-8
0.248, -2.990e-8
0.249, -2.978e-8
0.250, -2.998e-8
0.251, -2.993e-8
0.252, -2.975e-8
0.253, -2.985e-8
0.254, -2.996e-8
0.255, -2.975e-8
0.256, -2.976e-8
0.257, -2.993e-8
0.258, -2.983e-8
0.259, -2.968e-8
0.260, -2.989e-8
0.261, -2.986e-8
0.262, -2.965e-8
0.263, -2.980e-8
0.264, -2.992e-8
0.265, -2.969e-8
0.266, -2.973e-8
0.267, -2.990e-8
0.268, -2.979e-8
0.269, -2.968e-8
0.270, -2.988e-8
0.271, -2.987e-8
0.272, -2.967e-8
0.273, -2.981e-8
0.274, -2.995e-8
0.275, -2.971e-8
0.276, -2.978e-8
0.277, -2.995e-8
0.278, -2.983e-8
0.279, -2.975e-8
0.280, -2.994e-8
0.281, -2.994e-8
0.282, -2.978e-8
0.283, -2.991e-8
0.284, -3.004e-8
0.285, -2.983e-8
0.286, -2.988e-8
0.287, -3.009e-8
0.288, -2.996e-8
0.289, -2.987e-8
0.290, -3.011e-8
0.291, -3.008e-8
0.292, -2.994e-8
0.293, -3.007e-8
0.294, -3.022e-8
0.295, -3.003e-8
0.296, -3.007e-8
0.297, -3.027e-8
0.298, -3.018e-8
0.299, -3.008e-8
0.300, -2.753e-8
0.299, -2.522e-8
0.298, -2.448e-8
0.297, -2.418e-8
0.296, -2.396e-8
0.295, -2.343e-8
0.294, -2.319e-8
0.293, -2.315e-8
0.292, -2.276e-8
0.291, -2.247e-8
0.290, -2.246e-8
0.289, -2.223e-8
0.288, -2.189e-8
0.287, -2.185e-8
0.286, -2.180e-8
0.285, -2.145e-8
0.284, -2.130e-8
0.283, -2.137e-8
0.282, -2.108e-8
0.281, -2.085e-8
0.280, -2.094e-8
0.279, -2.077e-8
0.278, -2.049e-8
0.277, -2.051e-8
0.276, -2.049e-8
0.275, -2.019e-8
0.274, -2.012e-8
0.273, -2.018e-8
0.272, -1.996e-8
0.271, -1.975e-8
0.270, -1.987e-8
0.269, -1.974e-8
0.268, -1.946e-8
0.267, -1.953e-8
0.266, -1.956e-8
0.265, -1.924e-8
0.264, -1.921e-8
0.263, -1.930e-8
0.262, -1.910e-8
0.261, -1.892e-8
0.260, -1.904e-8
0.259, -1.895e-8
0.258, -1.869e-8
0.257, -1.874e-8
0.256, -1.880e-8
0.255, -1.850e-8
0.254, -1.848e-8
0.253, -1.860e-8
0.252, -1.838e-8
0.251, -1.823e-8
0.250, -1.837e-8
0.249, -1.826e-8
0.248, -1.805e-8
0.247, -1.809e-8
0.246, -1.816e-8
0.245, -1.789e-8
0.244, -1.785e-8
0.243, -1.799e-8
0.242, -1.780e-8
0.241, -1.762e-8
0.240, -1.780e-8
0.239, -1.768e-8
0.238, -1.746e-8
0.237, -1.755e-8
0.236, -1.759e-8
0.235, -1.734e-8
0.234, -1.733e-8
0.233, -1.743e-8
0.232, -1.727e-8
0.231, -1.710e-8
0.230, -1.726e-8
0.229, -1.718e-8
0.228, -1.695e-8
0.227, -1.704e-8
0.226, -1.710e-8
0.225, -1.682e-8
0.224, -1.684e-8
0.223, -1.694e-8
0.222, -1.677e-8
0.221, -1.663e-8
0.220, -1.678e-8
0.219, -1.670e-8
0.218, -1.647e-8
0.217, -1.656e-8
0.216, -1.663e-8
0.215, -1.636e-8
0.214, -1.636e-8
0.213, -1.649e-8
0.212, -1.629e-8
0.211, -1.617e-8
0.210, -1.632e-8
0.209, -1.623e-8
0.208, -1.602e-8
0.207, -1.609e-8
0.206, -1.616e-8
0.205, -1.588e-8
0.204, -1.588e-8
0.203, -1.602e-8
0.202, -1.583e-8
0.201, -1.568e-8
0.200, -1.585e-8
0.199, -1.575e-8
0.198, -1.552e-8
0.197, -1.563e-8
0.196, -1.565e-8
0.195, -1.541e-8
0.194, -1.540e-8
0.193, -1.552e-8
0.192, -1.533e-8
0.191, -1.517e-8
0.190, -1.534e-8
0.189, -1.524e-8
0.188, -1.499e-8
0.187, -1.510e-8
0.186, -1.515e-8
0.185, -1.485e-8
0.184, -1.487e-8
0.183, -1.495e-8
0.182, -1.477e-8
0.181, -1.462e-8
0.180, -1.475e-8
0.179, -1.466e-8
0.178, -1.442e-8
0.177, -1.448e-8
0.176, -1.454e-8
0.175, -1.424e-8
0.174, -1.422e-8
0.173, -1.433e-8
0.172, -1.410e-8
0.171, -1.396e-8
0.170, -1.408e-8
0.169, -1.395e-8
0.168, -1.372e-8
0.167, -1.377e-8
0.166, -1.379e-8
0.165, -1.350e-8
0.164, -1.344e-8
0.163, -1.355e-8
0.162, -1.331e-8
0.161, -1.311e-8
0.160, -1.326e-8
0.159, -1.309e-8
0.158, -1.283e-8
0.157, -1.287e-8
0.156, -1.284e-8
0.155, -1.254e-8
0.154, -1.247e-8
0.153, -1.252e-8
0.152, -1.228e-8
0.151, -1.205e-8
0.150, -1.215e-8
0.149, -1.197e-8
0.148, -1.165e-8
0.147, -1.168e-8
0.146, -1.164e-8
0.145, -1.127e-8
0.144, -1.120e-8
0.143, -1.120e-8
0.142, -1.091e-8
0.141, -1.065e-8
0.140, -1.068e-8
0.139, -1.048e-8
0.138, -1.013e-8
0.137, -1.008e-8
0.136, -1.001e-8
0.135, -9.579e-9
0.134, -9.470e-9
0.133, -9.415e-9
0.132, -9.042e-9
0.131, -8.783e-9
0.130, -8.739e-9
0.129, -8.454e-9
0.128, -8.065e-9
0.127, -7.949e-9
0.126, -7.808e-9
0.125, -7.333e-9
0.124, -7.098e-9
0.123, -7.021e-9
0.122, -6.595e-9
0.121, -6.216e-9
0.120, -6.127e-9
0.119, -5.765e-9
0.118, -5.298e-9
0.117, -5.120e-9
0.116, -4.861e-9
0.115, -4.317e-9
0.114, -4.049e-9
0.113, -3.827e-9
0.112, -3.346e-9
0.111, -2.872e-9
0.110, -2.687e-9
0.109, -2.262e-9
0.108, -1.674e-9
0.107, -1.427e-9
0.106, -1.083e-9
0.105, -4.320e-10
0.104, -6.850e-11
0.103, 2.613e-10
0.102, 8.625e-10
0.101, 1.407e-9
0.100, 1.721e-9
0.099, 2.207e-9
0.098, 2.889e-9
0.097, 3.269e-9
0.096, 3.658e-9
0.095, 4.449e-9
0.094, 4.882e-9
0.093, 5.271e-9
0.092, 6.008e-9
0.091, 6.579e-9
0.090, 6.995e-9
0.089, 7.618e-9
0.088, 8.342e-9
0.087, 8.810e-9
0.086, 9.306e-9
0.085, 1.013e-8
0.084, 1.067e-8
0.083, 1.110e-8
0.082, 1.188e-8
0.081, 1.256e-8
0.080, 1.296e-8
0.079, 1.367e-8
0.078, 1.442e-8
0.077, 1.492e-8
0.076, 1.549e-8
0.075, 1.628e-8
0.074, 1.685e-8
0.073, 1.733e-8
0.072, 1.804e-8
0.071, 1.877e-8
0.070, 1.917e-8
0.069, 1.981e-8
0.068, 2.059e-8
0.067, 2.099e-8
0.066, 2.153e-8
0.065, 2.230e-8
0.064, 2.278e-8
0.063, 2.322e-8
0.062, 2.388e-8
0.061, 2.447e-8
0.060, 2.487e-8
0.059, 2.540e-8
0.058, 2.602e-8
0.057, 2.638e-8
0.056, 2.676e-8
0.055, 2.745e-8
0.054, 2.776e-8
0.053, 2.807e-8
0.052, 2.866e-8
0.051, 2.905e-8
0.050, 2.929e-8
0.049, 2.968e-8
0.048, 3.013e-8
0.047, 3.036e-8
0.046, 3.057e-8
0.045, 3.105e-8
0.044, 3.128e-8
0.043, 3.136e-8
0.042, 3.173e-8
0.041, 3.201e-8
0.040, 3.203e-8
0.039, 3.231e-8
0.038, 3.260e-8
0.037, 3.261e-8
0.036, 3.268e-8
0.035, 3.297e-8
0.034, 3.300e-8
0.033, 3.295e-8
0.032, 3.314e-8
0.031, 3.329e-8
0.030, 3.312e-8
0.029, 3.320e-8
0.028, 3.338e-8
0.027, 3.322e-8
0.026, 3.315e-8
0.025, 3.334e-8
0.024, 3.319e-8
0.023, 3.303e-8
0.022, 3.308e-8
0.021, 3.307e-8
0.020, 3.282e-8
0.019, 3.275e-8
0.018, 3.282e-8
0.017, 3.258e-8
0.016, 3.237e-8
0.015, 3.249e-8
0.014, 3.226e-8
0.013, 3.197e-8
0.012, 3.200e-8
0.011, 3.187e-8
0.010, 3.152e-8
0.009, 3.144e-8
0.008, 3.141e-8
0.007, 3.112e-8
0.006, 3.083e-8
0.005, 3.087e-8
0.004, 3.065e-8
0.003, 3.028e-8
0.002, 3.027e-8
0.001, 3.016e-8
0.000, 2.990e-8
-0.001, 2.969e-8
-0.002, 2.961e-8
-0.003, 2.926e-8
-0.004, 2.901e-8
-0.005, 2.900e-8
-0.006, 2.874e-8
-0.007, 2.840e-8
-0.008, 2.833e-8
-0.009, 2.822e-8
-0.010, 2.781e-8
-0.011, 2.768e-8
-0.012, 2.767e-8
-0.013, 2.731e-8
-0.014, 2.702e-8
-0.015, 2.707e-8
-0.016, 2.677e-8
-0.017, 2.646e-8
-0.018, 2.641e-8
-0.019, 2.629e-8
-0.020, 2.593e-8
-0.021, 2.578e-8
-0.022, 2.576e-8
-0.023, 2.545e-8
-0.024, 2.517e-8
-0.025, 2.523e-8
-0.026, 2.498e-8
-0.027, 2.464e-8
-0.028, 2.464e-8
-0.029, 2.452e-8
-0.030, 2.414e-8
-0.031, 2.406e-8
-0.032, 2.403e-8
-0.033, 2.374e-8
-0.034, 2.349e-8
-0.035, 2.355e-8
-0.036, 2.334e-8
-0.037, 2.301e-8
-0.038, 2.304e-8
-0.039, 2.296e-8
-0.040, 2.259e-8
-0.041, 2.253e-8
-0.042, 2.254e-8
-0.043, 2.225e-8
-0.044, 2.205e-8
-0.045, 2.212e-8
-0.046, 2.192e-8
-0.047, 2.163e-8
-0.048, 2.166e-8
-0.049, 2.161e-8
-0.050, 2.127e-8
-0.051, 2.123e-8
-0.052, 2.128e-8
-0.053, 2.098e-8
-0.054, 2.079e-8
-0.055, 2.091e-8
-0.056, 2.071e-8
-0.057, 2.046e-8
-0.058, 2.050e-8
-0.059, 2.046e-8
-0.060, 2.017e-8
-0.061, 2.011e-8
-0.062, 2.018e-8
-0.063, 1.994e-8
-0.064, 1.975e-8
-0.065, 1.990e-8
-0.066, 1.972e-8
-0.067, 1.946e-8
-0.068, 1.955e-8
-0.069, 1.950e-8
-0.070, 1.922e-8
-0.071, 1.923e-8
-0.072, 1.927e-8
-0.073, 1.905e-8
-0.074, 1.889e-8
-0.075, 1.904e-8
-0.076, 1.890e-8
-0.077, 1.865e-8
-0.078, 1.874e-8
-0.079, 1.874e-8
-0.080, 1.844e-8
-0.081, 1.847e-8
-0.082, 1.854e-8
-0.083, 1.832e-8
-0.084, 1.820e-8
-0.085, 1.835e-8
-0.086, 1.819e-8
-0.087, 1.800e-8
-0.088, 1.809e-8
-0.089, 1.811e-8
-0.090, 1.784e-8
-0.091, 1.785e-8
-0.092, 1.796e-8
-0.093, 1.774e-8
-0.094, 1.762e-8
-0.095, 1.780e-8
-0.096, 1.765e-8
-0.097, 1.747e-8
-0.098, 1.759e-8
-0.099, 1.758e-8
-0.100, 1.735e-8
-0.101, 1.737e-8
-0.102, 1.749e-8
-0.103, 1.729e-8
-0.104, 1.717e-8
-0.105, 1.736e-8
-0.106, 1.723e-8
-0.107, 1.703e-8
-0.108, 1.718e-8
-0.109, 1.718e-8
-0.110, 1.695e-8
-0.111, 1.701e-8
-0.112, 1.711e-8
-0.113, 1.693e-8
-0.114, 1.683e-8
-0.115, 1.703e-8
-0.116, 1.692e-8
-0.117, 1.672e-8
-0.118, 1.686e-8
-0.119, 1.691e-8
-0.120, 1.667e-8
-0.121, 1.674e-8
-0.122, 1.685e-8
-0.123, 1.667e-8
-0.124, 1.661e-8
-0.125, 1.678e-8
-0.126, 1.667e-8
-0.127, 1.653e-8
-0.128, 1.667e-8
-0.129, 1.671e-8
-0.130, 1.648e-8
-0.131, 1.654e-8
-0.132, 1.669e-8
-0.133, 1.650e-8
-0.134, 1.642e-8
-0.135, 1.665e-8
-0.136, 1.653e-8
-0.137, 1.637e-8
-0.138, 1.654e-8
-0.139, 1.657e-8
-0.140, 1.637e-8
-0.141, 1.645e-8
-0.142, 1.659e-8
-0.143, 1.642e-8
-0.144, 1.634e-8
-0.145, 1.658e-8
-0.146, 1.647e-8
-0.147, 1.631e-8
-0.148, 1.650e-8
-0.149, 1.655e-8
-0.150, 1.631e-8
-0.151, 1.643e-8
-0.152, 1.656e-8
-0.153, 1.642e-8
-0.154, 1.634e-8
-0.155, 1.657e-8
-0.156, 1.650e-8
-0.157, 1.634e-8
-0.158, 1.651e-8
-0.159, 1.659e-8
-0.160, 1.637e-8
-0.161, 1.648e-8
-0.162, 1.663e-8
-0.163, 1.646e-8
-0.164, 1.644e-8
-0.165, 1.664e-8
-0.166, 1.657e-8
-0.167, 1.645e-8
-0.168, 1.662e-8
-0.169, 1.669e-8
-0.170, 1.650e-8
-0.171, 1.659e-8
-0.172, 1.677e-8
-0.173, 1.661e-8
-0.174, 1.657e-8
-0.175, 1.682e-8
-0.176, 1.672e-8
-0.177, 1.662e-8
-0.178, 1.680e-8
-0.179, 1.687e-8
-0.180, 1.670e-8
-0.181, 1.679e-8
-0.182, 1.696e-8
-0.183, 1.683e-8
-0.184, 1.678e-8
-0.185, 1.705e-8
-0.186, 1.696e-8
-0.187, 1.684e-8
-0.188, 1.707e-8
-0.189, 1.712e-8
-0.190, 1.694e-8
-0.191, 1.708e-8
-0.192, 1.723e-8
-0.193, 1.712e-8
-0.194, 1.708e-8
-0.195, 1.734e-8
-0.196, 1.728e-8
-0.197, 1.716e-8
-0.198, 1.737e-8
-0.199, 1.748e-8
