Mar. 16, 2023   09:21:09
Cyclic Voltammetry
File: c:/users/oliverrz/desktop/electrolab/data/2023_03_16\fcmeoh_macros_500_um\electrode3_cv_200mvs_500_um.bin
Data Source:  Experiment
Instrument Model:  CHI760E
Header: CV
Note: 

Init E (V) = -0.2
High E (V) = 0.3
Low E (V) = -0.2
Final E (V) = -0.2
Init P/N = P
Scan Rate (V/s) = 0.2
Segment = 3
Sample Interval (V) = 0.001
Quiet Time (sec) = 2
Sensitivity (A/V) = 1e-7

Results:

Channel 1:
Segment 1:
Ep = 0.086V
ip = -4.512e-8A
Ah = -1.395e-8C

Segment 2:
Ep = 0.026V
ip = 4.270e-8A
Ah = 1.299e-8C

Segment 3:

Potential/V, Current/A

-0.200, 2.890e-9
-0.199, 2.561e-9
-0.198, 2.437e-9
-0.197, 2.209e-9
-0.196, 2.335e-9
-0.195, 2.365e-9
-0.194, 2.143e-9
-0.193, 2.143e-9
-0.192, 2.302e-9
-0.191, 2.109e-9
-0.190, 2.001e-9
-0.189, 2.194e-9
-0.188, 2.110e-9
-0.187, 1.905e-9
-0.186, 2.064e-9
-0.185, 2.086e-9
-0.184, 1.881e-9
-0.183, 1.900e-9
-0.182, 2.056e-9
-0.181, 1.876e-9
-0.180, 1.777e-9
-0.179, 1.966e-9
-0.178, 1.900e-9
-0.177, 1.688e-9
-0.176, 1.859e-9
-0.175, 1.893e-9
-0.174, 1.668e-9
-0.173, 1.713e-9
-0.172, 1.870e-9
-0.171, 1.686e-9
-0.170, 1.609e-9
-0.169, 1.778e-9
-0.168, 1.732e-9
-0.167, 1.515e-9
-0.166, 1.673e-9
-0.165, 1.728e-9
-0.164, 1.507e-9
-0.163, 1.540e-9
-0.162, 1.713e-9
-0.161, 1.513e-9
-0.160, 1.452e-9
-0.159, 1.630e-9
-0.158, 1.566e-9
-0.157, 1.369e-9
-0.156, 1.522e-9
-0.155, 1.575e-9
-0.154, 1.361e-9
-0.153, 1.383e-9
-0.152, 1.570e-9
-0.151, 1.377e-9
-0.150, 1.295e-9
-0.149, 1.491e-9
-0.148, 1.420e-9
-0.147, 1.228e-9
-0.146, 1.400e-9
-0.145, 1.425e-9
-0.144, 1.234e-9
-0.143, 1.266e-9
-0.142, 1.431e-9
-0.141, 1.244e-9
-0.140, 1.167e-9
-0.139, 1.360e-9
-0.138, 1.308e-9
-0.137, 1.089e-9
-0.136, 1.276e-9
-0.135, 1.310e-9
-0.134, 1.101e-9
-0.133, 1.144e-9
-0.132, 1.309e-9
-0.131, 1.121e-9
-0.130, 1.053e-9
-0.129, 1.236e-9
-0.128, 1.173e-9
-0.127, 9.821e-10
-0.126, 1.146e-9
-0.125, 1.193e-9
-0.124, 9.797e-10
-0.123, 1.021e-9
-0.122, 1.197e-9
-0.121, 9.937e-10
-0.120, 9.331e-10
-0.119, 1.120e-9
-0.118, 1.049e-9
-0.117, 8.609e-10
-0.116, 1.021e-9
-0.115, 1.059e-9
-0.114, 8.569e-10
-0.113, 8.849e-10
-0.112, 1.071e-9
-0.111, 8.682e-10
-0.110, 7.986e-10
-0.109, 9.912e-10
-0.108, 9.134e-10
-0.107, 7.227e-10
-0.106, 9.029e-10
-0.105, 9.208e-10
-0.104, 7.266e-10
-0.103, 7.483e-10
-0.102, 9.162e-10
-0.101, 7.298e-10
-0.100, 6.491e-10
-0.099, 8.424e-10
-0.098, 7.714e-10
-0.097, 5.576e-10
-0.096, 7.458e-10
-0.095, 7.693e-10
-0.094, 5.468e-10
-0.093, 5.977e-10
-0.092, 7.505e-10
-0.091, 5.489e-10
-0.090, 4.768e-10
-0.089, 6.582e-10
-0.088, 5.889e-10
-0.087, 3.820e-10
-0.086, 5.384e-10
-0.085, 5.742e-10
-0.084, 3.445e-10
-0.083, 3.862e-10
-0.082, 5.425e-10
-0.081, 3.280e-10
-0.080, 2.617e-10
-0.079, 4.335e-10
-0.078, 3.435e-10
-0.077, 1.403e-10
-0.076, 2.915e-10
-0.075, 3.146e-10
-0.074, 9.207e-11
-0.073, 1.076e-10
-0.072, 2.663e-10
-0.071, 5.062e-11
-0.070, -4.310e-11
-0.069, 1.379e-10
-0.068, 2.798e-11
-0.067, -1.762e-10
-0.066, -2.676e-11
-0.065, -3.798e-11
-0.064, -2.570e-10
-0.063, -2.464e-10
-0.062, -1.213e-10
-0.061, -3.345e-10
-0.060, -4.402e-10
-0.059, -2.866e-10
-0.058, -3.851e-10
-0.057, -6.272e-10
-0.056, -4.861e-10
-0.055, -5.019e-10
-0.054, -7.569e-10
-0.053, -7.462e-10
-0.052, -6.429e-10
-0.051, -8.876e-10
-0.050, -9.941e-10
-0.049, -8.684e-10
-0.048, -9.887e-10
-0.047, -1.238e-9
-0.046, -1.132e-9
-0.045, -1.160e-9
-0.044, -1.436e-9
-0.043, -1.468e-9
-0.042, -1.365e-9
-0.041, -1.652e-9
-0.040, -1.771e-9
-0.039, -1.678e-9
-0.038, -1.853e-9
-0.037, -2.104e-9
-0.036, -2.044e-9
-0.035, -2.099e-9
-0.034, -2.394e-9
-0.033, -2.473e-9
-0.032, -2.407e-9
-0.031, -2.719e-9
-0.030, -2.900e-9
-0.029, -2.824e-9
-0.028, -3.036e-9
-0.027, -3.347e-9
-0.026, -3.321e-9
-0.025, -3.444e-9
-0.024, -3.766e-9
-0.023, -3.865e-9
-0.022, -3.877e-9
-0.021, -4.225e-9
-0.020, -4.467e-9
-0.019, -4.442e-9
-0.018, -4.695e-9
-0.017, -5.070e-9
-0.016, -5.089e-9
-0.015, -5.268e-9
-0.014, -5.684e-9
-0.013, -5.847e-9
-0.012, -5.923e-9
-0.011, -6.328e-9
-0.010, -6.616e-9
-0.009, -6.698e-9
-0.008, -7.013e-9
-0.007, -7.462e-9
-0.006, -7.575e-9
-0.005, -7.816e-9
-0.004, -8.314e-9
-0.003, -8.550e-9
-0.002, -8.700e-9
-0.001, -9.217e-9
-0.000, -9.701e-9
0.001, -9.791e-9
0.002, -1.020e-8
0.003, -1.071e-8
0.004, -1.092e-8
0.005, -1.125e-8
0.006, -1.181e-8
0.007, -1.218e-8
0.008, -1.241e-8
0.009, -1.302e-8
0.010, -1.348e-8
0.011, -1.372e-8
0.012, -1.429e-8
0.013, -1.487e-8
0.014, -1.517e-8
0.015, -1.566e-8
0.016, -1.629e-8
0.017, -1.676e-8
0.018, -1.710e-8
0.019, -1.778e-8
0.020, -1.838e-8
0.021, -1.871e-8
0.022, -1.931e-8
0.023, -2.003e-8
0.024, -2.040e-8
0.025, -2.097e-8
0.026, -2.173e-8
0.027, -2.223e-8
0.028, -2.268e-8
0.029, -2.344e-8
0.030, -2.407e-8
0.031, -2.453e-8
0.032, -2.517e-8
0.033, -2.594e-8
0.034, -2.639e-8
0.035, -2.697e-8
0.036, -2.778e-8
0.037, -2.833e-8
0.038, -2.882e-8
0.039, -2.962e-8
0.040, -3.022e-8
0.041, -3.070e-8
0.042, -3.140e-8
0.043, -3.211e-8
0.044, -3.260e-8
0.045, -3.314e-8
0.046, -3.392e-8
0.047, -3.448e-8
0.048, -3.486e-8
0.049, -3.562e-8
0.050, -3.621e-8
0.051, -3.660e-8
0.052, -3.724e-8
0.053, -3.790e-8
0.054, -3.825e-8
0.055, -3.876e-8
0.056, -3.938e-8
0.057, -3.983e-8
0.058, -4.016e-8
0.059, -4.075e-8
0.060, -4.125e-8
0.061, -4.145e-8
0.062, -4.194e-8
0.063, -4.252e-8
0.064, -4.268e-8
0.065, -4.304e-8
0.066, -4.353e-8
0.067, -4.377e-8
0.068, -4.396e-8
0.069, -4.439e-8
0.070, -4.468e-8
0.071, -4.477e-8
0.072, -4.503e-8
0.073, -4.541e-8
0.074, -4.544e-8
0.075, -4.558e-8
0.076, -4.593e-8
0.077, -4.600e-8
0.078, -4.597e-8
0.079, -4.628e-8
0.080, -4.635e-8
0.081, -4.627e-8
0.082, -4.639e-8
0.083, -4.658e-8
0.084, -4.644e-8
0.085, -4.644e-8
0.086, -4.659e-8
0.087, -4.654e-8
0.088, -4.633e-8
0.089, -4.648e-8
0.090, -4.647e-8
0.091, -4.619e-8
0.092, -4.623e-8
0.093, -4.626e-8
0.094, -4.598e-8
0.095, -4.589e-8
0.096, -4.589e-8
0.097, -4.574e-8
0.098, -4.547e-8
0.099, -4.547e-8
0.100, -4.538e-8
0.101, -4.500e-8
0.102, -4.496e-8
0.103, -4.494e-8
0.104, -4.456e-8
0.105, -4.439e-8
0.106, -4.437e-8
0.107, -4.411e-8
0.108, -4.378e-8
0.109, -4.374e-8
0.110, -4.358e-8
0.111, -4.320e-8
0.112, -4.305e-8
0.113, -4.301e-8
0.114, -4.262e-8
0.115, -4.239e-8
0.116, -4.237e-8
0.117, -4.207e-8
0.118, -4.170e-8
0.119, -4.169e-8
0.120, -4.148e-8
0.121, -4.108e-8
0.122, -4.095e-8
0.123, -4.089e-8
0.124, -4.049e-8
0.125, -4.025e-8
0.126, -4.022e-8
0.127, -3.995e-8
0.128, -3.957e-8
0.129, -3.955e-8
0.130, -3.937e-8
0.131, -3.896e-8
0.132, -3.884e-8
0.133, -3.879e-8
0.134, -3.838e-8
0.135, -3.818e-8
0.136, -3.815e-8
0.137, -3.787e-8
0.138, -3.753e-8
0.139, -3.751e-8
0.140, -3.737e-8
0.141, -3.698e-8
0.142, -3.686e-8
0.143, -3.684e-8
0.144, -3.645e-8
0.145, -3.626e-8
0.146, -3.628e-8
0.147, -3.600e-8
0.148, -3.569e-8
0.149, -3.570e-8
0.150, -3.555e-8
0.151, -3.520e-8
0.152, -3.510e-8
0.153, -3.510e-8
0.154, -3.475e-8
0.155, -3.457e-8
0.156, -3.461e-8
0.157, -3.436e-8
0.158, -3.406e-8
0.159, -3.411e-8
0.160, -3.397e-8
0.161, -3.363e-8
0.162, -3.357e-8
0.163, -3.359e-8
0.164, -3.325e-8
0.165, -3.310e-8
0.166, -3.315e-8
0.167, -3.295e-8
0.168, -3.264e-8
0.169, -3.270e-8
0.170, -3.261e-8
0.171, -3.228e-8
0.172, -3.224e-8
0.173, -3.228e-8
0.174, -3.195e-8
0.175, -3.184e-8
0.176, -3.189e-8
0.177, -3.170e-8
0.178, -3.144e-8
0.179, -3.151e-8
0.180, -3.144e-8
0.181, -3.112e-8
0.182, -3.110e-8
0.183, -3.117e-8
0.184, -3.084e-8
0.185, -3.073e-8
0.186, -3.082e-8
0.187, -3.063e-8
0.188, -3.039e-8
0.189, -3.048e-8
0.190, -3.041e-8
0.191, -3.013e-8
0.192, -3.012e-8
0.193, -3.019e-8
0.194, -2.990e-8
0.195, -2.979e-8
0.196, -2.990e-8
0.197, -2.974e-8
0.198, -2.949e-8
0.199, -2.962e-8
0.200, -2.954e-8
0.201, -2.927e-8
0.202, -2.929e-8
0.203, -2.936e-8
0.204, -2.909e-8
0.205, -2.901e-8
0.206, -2.912e-8
0.207, -2.897e-8
0.208, -2.874e-8
0.209, -2.886e-8
0.210, -2.883e-8
0.211, -2.855e-8
0.212, -2.858e-8
0.213, -2.867e-8
0.214, -2.839e-8
0.215, -2.833e-8
0.216, -2.844e-8
0.217, -2.830e-8
0.218, -2.810e-8
0.219, -2.823e-8
0.220, -2.819e-8
0.221, -2.792e-8
0.222, -2.796e-8
0.223, -2.807e-8
0.224, -2.780e-8
0.225, -2.774e-8
0.226, -2.788e-8
0.227, -2.774e-8
0.228, -2.754e-8
0.229, -2.769e-8
0.230, -2.766e-8
0.231, -2.741e-8
0.232, -2.745e-8
0.233, -2.756e-8
0.234, -2.731e-8
0.235, -2.725e-8
0.236, -2.740e-8
0.237, -2.726e-8
0.238, -2.706e-8
0.239, -2.723e-8
0.240, -2.718e-8
0.241, -2.696e-8
0.242, -2.702e-8
0.243, -2.712e-8
0.244, -2.688e-8
0.245, -2.683e-8
0.246, -2.698e-8
0.247, -2.686e-8
0.248, -2.666e-8
0.249, -2.682e-8
0.250, -2.681e-8
0.251, -2.657e-8
0.252, -2.663e-8
0.253, -2.675e-8
0.254, -2.650e-8
0.255, -2.648e-8
0.256, -2.663e-8
0.257, -2.650e-8
0.258, -2.633e-8
0.259, -2.649e-8
0.260, -2.648e-8
0.261, -2.625e-8
0.262, -2.631e-8
0.263, -2.645e-8
0.264, -2.620e-8
0.265, -2.617e-8
0.266, -2.633e-8
0.267, -2.621e-8
0.268, -2.605e-8
0.269, -2.622e-8
0.270, -2.620e-8
0.271, -2.600e-8
0.272, -2.605e-8
0.273, -2.618e-8
0.274, -2.596e-8
0.275, -2.592e-8
0.276, -2.611e-8
0.277, -2.598e-8
0.278, -2.581e-8
0.279, -2.600e-8
0.280, -2.598e-8
0.281, -2.577e-8
0.282, -2.586e-8
0.283, -2.599e-8
0.284, -2.576e-8
0.285, -2.574e-8
0.286, -2.591e-8
0.287, -2.582e-8
0.288, -2.564e-8
0.289, -2.584e-8
0.290, -2.584e-8
0.291, -2.562e-8
0.292, -2.571e-8
0.293, -2.585e-8
0.294, -2.563e-8
0.295, -2.563e-8
0.296, -2.579e-8
0.297, -2.568e-8
0.298, -2.555e-8
0.299, -2.573e-8
0.300, -2.396e-8
0.299, -2.237e-8
0.298, -2.216e-8
0.297, -2.207e-8
0.296, -2.168e-8
0.295, -2.152e-8
0.294, -2.157e-8
0.293, -2.133e-8
0.292, -2.106e-8
0.291, -2.116e-8
0.290, -2.106e-8
0.289, -2.076e-8
0.288, -2.078e-8
0.287, -2.082e-8
0.286, -2.053e-8
0.285, -2.045e-8
0.284, -2.055e-8
0.283, -2.038e-8
0.282, -2.016e-8
0.281, -2.029e-8
0.280, -2.023e-8
0.279, -1.996e-8
0.278, -2.001e-8
0.277, -2.009e-8
0.276, -1.980e-8
0.275, -1.976e-8
0.274, -1.989e-8
0.273, -1.971e-8
0.272, -1.954e-8
0.271, -1.967e-8
0.270, -1.962e-8
0.269, -1.937e-8
0.268, -1.942e-8
0.267, -1.953e-8
0.266, -1.926e-8
0.265, -1.921e-8
0.264, -1.936e-8
0.263, -1.920e-8
0.262, -1.903e-8
0.261, -1.919e-8
0.260, -1.912e-8
0.259, -1.890e-8
0.258, -1.896e-8
0.257, -1.905e-8
0.256, -1.881e-8
0.255, -1.876e-8
0.254, -1.891e-8
0.253, -1.877e-8
0.252, -1.858e-8
0.251, -1.876e-8
0.250, -1.872e-8
0.249, -1.846e-8
0.248, -1.855e-8
0.247, -1.864e-8
0.246, -1.840e-8
0.245, -1.837e-8
0.244, -1.851e-8
0.243, -1.837e-8
0.242, -1.820e-8
0.241, -1.835e-8
0.240, -1.833e-8
0.239, -1.809e-8
0.238, -1.817e-8
0.237, -1.827e-8
0.236, -1.801e-8
0.235, -1.800e-8
0.234, -1.815e-8
0.233, -1.800e-8
0.232, -1.784e-8
0.231, -1.799e-8
0.230, -1.796e-8
0.229, -1.774e-8
0.228, -1.780e-8
0.227, -1.792e-8
0.226, -1.768e-8
0.225, -1.763e-8
0.224, -1.780e-8
0.223, -1.764e-8
0.222, -1.749e-8
0.221, -1.766e-8
0.220, -1.760e-8
0.219, -1.739e-8
0.218, -1.746e-8
0.217, -1.755e-8
0.216, -1.733e-8
0.215, -1.729e-8
0.214, -1.745e-8
0.213, -1.730e-8
0.212, -1.712e-8
0.211, -1.730e-8
0.210, -1.726e-8
0.209, -1.702e-8
0.208, -1.711e-8
0.207, -1.719e-8
0.206, -1.696e-8
0.205, -1.692e-8
0.204, -1.707e-8
0.203, -1.693e-8
0.202, -1.677e-8
0.201, -1.691e-8
0.200, -1.689e-8
0.199, -1.664e-8
0.198, -1.673e-8
0.197, -1.682e-8
0.196, -1.656e-8
0.195, -1.655e-8
0.194, -1.669e-8
0.193, -1.652e-8
0.192, -1.637e-8
0.191, -1.651e-8
0.190, -1.648e-8
0.189, -1.623e-8
0.188, -1.630e-8
0.187, -1.639e-8
0.186, -1.613e-8
0.185, -1.609e-8
0.184, -1.624e-8
0.183, -1.606e-8
0.182, -1.590e-8
0.181, -1.605e-8
0.180, -1.597e-8
0.179, -1.573e-8
0.178, -1.581e-8
0.177, -1.587e-8
0.176, -1.562e-8
0.175, -1.556e-8
0.174, -1.570e-8
0.173, -1.552e-8
0.172, -1.533e-8
0.171, -1.547e-8
0.170, -1.540e-8
0.169, -1.513e-8
0.168, -1.520e-8
0.167, -1.524e-8
0.166, -1.497e-8
0.165, -1.490e-8
0.164, -1.501e-8
0.163, -1.483e-8
0.162, -1.463e-8
0.161, -1.473e-8
0.160, -1.466e-8
0.159, -1.436e-8
0.158, -1.441e-8
0.157, -1.443e-8
0.156, -1.413e-8
0.155, -1.405e-8
0.154, -1.415e-8
0.153, -1.390e-8
0.152, -1.371e-8
0.151, -1.378e-8
0.150, -1.367e-8
0.149, -1.336e-8
0.148, -1.336e-8
0.147, -1.337e-8
0.146, -1.305e-8
0.145, -1.291e-8
0.144, -1.299e-8
0.143, -1.272e-8
0.142, -1.247e-8
0.141, -1.251e-8
0.140, -1.235e-8
0.139, -1.201e-8
0.138, -1.199e-8
0.137, -1.192e-8
0.136, -1.157e-8
0.135, -1.139e-8
0.134, -1.141e-8
0.133, -1.110e-8
0.132, -1.080e-8
0.131, -1.080e-8
0.130, -1.059e-8
0.129, -1.017e-8
0.128, -1.011e-8
0.127, -9.971e-9
0.126, -9.571e-9
0.125, -9.346e-9
0.124, -9.270e-9
0.123, -8.912e-9
0.122, -8.556e-9
0.121, -8.457e-9
0.120, -8.200e-9
0.119, -7.706e-9
0.118, -7.567e-9
0.117, -7.375e-9
0.116, -6.844e-9
0.115, -6.565e-9
0.114, -6.424e-9
0.113, -5.954e-9
0.112, -5.537e-9
0.111, -5.350e-9
0.110, -5.006e-9
0.109, -4.443e-9
0.108, -4.185e-9
0.107, -3.922e-9
0.106, -3.345e-9
0.105, -2.923e-9
0.104, -2.710e-9
0.103, -2.132e-9
0.102, -1.610e-9
0.101, -1.346e-9
0.100, -8.800e-10
0.099, -2.406e-10
0.098, 9.876e-11
0.097, 4.971e-10
0.096, 1.160e-9
0.095, 1.671e-9
0.094, 1.988e-9
0.093, 2.633e-9
0.092, 3.280e-9
0.091, 3.620e-9
0.090, 4.182e-9
0.089, 4.955e-9
0.088, 5.339e-9
0.087, 5.844e-9
0.086, 6.585e-9
0.085, 7.137e-9
0.084, 7.573e-9
0.083, 8.279e-9
0.082, 8.975e-9
0.081, 9.430e-9
0.080, 1.002e-8
0.079, 1.085e-8
0.078, 1.130e-8
0.077, 1.186e-8
0.076, 1.268e-8
0.075, 1.325e-8
0.074, 1.370e-8
0.073, 1.446e-8
0.072, 1.514e-8
0.071, 1.564e-8
0.070, 1.621e-8
0.069, 1.706e-8
0.068, 1.753e-8
0.067, 1.800e-8
0.066, 1.882e-8
0.065, 1.939e-8
0.064, 1.980e-8
0.063, 2.055e-8
0.062, 2.113e-8
0.061, 2.156e-8
0.060, 2.214e-8
0.059, 2.283e-8
0.058, 2.322e-8
0.057, 2.368e-8
0.056, 2.433e-8
0.055, 2.483e-8
0.054, 2.513e-8
0.053, 2.573e-8
0.052, 2.628e-8
0.051, 2.654e-8
0.050, 2.696e-8
0.049, 2.756e-8
0.048, 2.775e-8
0.047, 2.807e-8
0.046, 2.859e-8
0.045, 2.888e-8
0.044, 2.905e-8
0.043, 2.945e-8
0.042, 2.981e-8
0.041, 2.991e-8
0.040, 3.017e-8
0.039, 3.060e-8
0.038, 3.064e-8
0.037, 3.076e-8
0.036, 3.114e-8
0.035, 3.124e-8
0.034, 3.123e-8
0.033, 3.148e-8
0.032, 3.164e-8
0.031, 3.160e-8
0.030, 3.165e-8
0.029, 3.191e-8
0.028, 3.182e-8
0.027, 3.175e-8
0.026, 3.198e-8
0.025, 3.196e-8
0.024, 3.174e-8
0.023, 3.190e-8
0.022, 3.190e-8
0.021, 3.169e-8
0.020, 3.166e-8
0.019, 3.174e-8
0.018, 3.152e-8
0.017, 3.136e-8
0.016, 3.144e-8
0.015, 3.132e-8
0.014, 3.101e-8
0.013, 3.104e-8
0.012, 3.099e-8
0.011, 3.065e-8
0.010, 3.051e-8
0.009, 3.057e-8
0.008, 3.024e-8
0.007, 3.002e-8
0.006, 3.001e-8
0.005, 2.983e-8
0.004, 2.948e-8
0.003, 2.943e-8
0.002, 2.932e-8
0.001, 2.897e-8
0.000, 2.889e-8
-0.001, 2.883e-8
-0.002, 2.846e-8
-0.003, 2.816e-8
-0.004, 2.816e-8
-0.005, 2.793e-8
-0.006, 2.753e-8
-0.007, 2.750e-8
-0.008, 2.734e-8
-0.009, 2.699e-8
-0.010, 2.676e-8
-0.011, 2.677e-8
-0.012, 2.641e-8
-0.013, 2.612e-8
-0.014, 2.611e-8
-0.015, 2.589e-8
-0.016, 2.548e-8
-0.017, 2.545e-8
-0.018, 2.531e-8
-0.019, 2.493e-8
-0.020, 2.476e-8
-0.021, 2.475e-8
-0.022, 2.440e-8
-0.023, 2.412e-8
-0.024, 2.411e-8
-0.025, 2.392e-8
-0.026, 2.353e-8
-0.027, 2.349e-8
-0.028, 2.339e-8
-0.029, 2.301e-8
-0.030, 2.284e-8
-0.031, 2.287e-8
-0.032, 2.252e-8
-0.033, 2.228e-8
-0.034, 2.229e-8
-0.035, 2.209e-8
-0.036, 2.174e-8
-0.037, 2.173e-8
-0.038, 2.163e-8
-0.039, 2.129e-8
-0.040, 2.114e-8
-0.041, 2.119e-8
-0.042, 2.086e-8
-0.043, 2.062e-8
-0.044, 2.068e-8
-0.045, 2.049e-8
-0.046, 2.014e-8
-0.047, 2.017e-8
-0.048, 2.009e-8
-0.049, 1.977e-8
-0.050, 1.964e-8
-0.051, 1.971e-8
-0.052, 1.942e-8
-0.053, 1.919e-8
-0.054, 1.925e-8
-0.055, 1.911e-8
-0.056, 1.877e-8
-0.057, 1.881e-8
-0.058, 1.876e-8
-0.059, 1.844e-8
-0.060, 1.836e-8
-0.061, 1.843e-8
-0.062, 1.815e-8
-0.063, 1.795e-8
-0.064, 1.803e-8
-0.065, 1.791e-8
-0.066, 1.759e-8
-0.067, 1.764e-8
-0.068, 1.761e-8
-0.069, 1.731e-8
-0.070, 1.723e-8
-0.071, 1.733e-8
-0.072, 1.706e-8
-0.073, 1.688e-8
-0.074, 1.699e-8
-0.075, 1.685e-8
-0.076, 1.659e-8
-0.077, 1.664e-8
-0.078, 1.662e-8
-0.079, 1.634e-8
-0.080, 1.627e-8
-0.081, 1.638e-8
-0.082, 1.612e-8
-0.083, 1.595e-8
-0.084, 1.608e-8
-0.085, 1.595e-8
-0.086, 1.569e-8
-0.087, 1.578e-8
-0.088, 1.576e-8
-0.089, 1.550e-8
-0.090, 1.545e-8
-0.091, 1.555e-8
-0.092, 1.533e-8
-0.093, 1.516e-8
-0.094, 1.530e-8
-0.095, 1.520e-8
-0.096, 1.493e-8
-0.097, 1.503e-8
-0.098, 1.503e-8
-0.099, 1.476e-8
-0.100, 1.475e-8
-0.101, 1.485e-8
-0.102, 1.464e-8
-0.103, 1.450e-8
-0.104, 1.463e-8
-0.105, 1.454e-8
-0.106, 1.429e-8
-0.107, 1.438e-8
-0.108, 1.442e-8
-0.109, 1.414e-8
-0.110, 1.412e-8
-0.111, 1.426e-8
-0.112, 1.404e-8
-0.113, 1.391e-8
-0.114, 1.406e-8
-0.115, 1.396e-8
-0.116, 1.374e-8
-0.117, 1.382e-8
-0.118, 1.386e-8
-0.119, 1.361e-8
-0.120, 1.360e-8
-0.121, 1.373e-8
-0.122, 1.353e-8
-0.123, 1.339e-8
-0.124, 1.357e-8
-0.125, 1.346e-8
-0.126, 1.325e-8
-0.127, 1.336e-8
-0.128, 1.339e-8
-0.129, 1.315e-8
-0.130, 1.315e-8
-0.131, 1.328e-8
-0.132, 1.310e-8
-0.133, 1.295e-8
-0.134, 1.313e-8
-0.135, 1.305e-8
-0.136, 1.282e-8
-0.137, 1.295e-8
-0.138, 1.298e-8
-0.139, 1.274e-8
-0.140, 1.276e-8
-0.141, 1.288e-8
-0.142, 1.269e-8
-0.143, 1.258e-8
-0.144, 1.275e-8
-0.145, 1.267e-8
-0.146, 1.246e-8
-0.147, 1.257e-8
-0.148, 1.263e-8
-0.149, 1.238e-8
-0.150, 1.240e-8
-0.151, 1.255e-8
-0.152, 1.236e-8
-0.153, 1.226e-8
-0.154, 1.244e-8
-0.155, 1.234e-8
-0.156, 1.217e-8
-0.157, 1.227e-8
-0.158, 1.232e-8
-0.159, 1.210e-8
-0.160, 1.211e-8
-0.161, 1.227e-8
-0.162, 1.209e-8
-0.163, 1.196e-8
-0.164, 1.218e-8
-0.165, 1.208e-8
-0.166, 1.189e-8
-0.167, 1.203e-8
-0.168, 1.207e-8
-0.169, 1.184e-8
-0.170, 1.187e-8
-0.171, 1.201e-8
-0.172, 1.186e-8
-0.173, 1.173e-8
-0.174, 1.193e-8
-0.175, 1.186e-8
-0.176, 1.166e-8
-0.177, 1.180e-8
-0.178, 1.186e-8
-0.179, 1.163e-8
-0.180, 1.168e-8
-0.181, 1.181e-8
-0.182, 1.164e-8
-0.183, 1.155e-8
-0.184, 1.174e-8
-0.185, 1.167e-8
-0.186, 1.148e-8
-0.187, 1.161e-8
-0.188, 1.169e-8
-0.189, 1.145e-8
-0.190, 1.149e-8
-0.191, 1.166e-8
-0.192, 1.149e-8
-0.193, 1.138e-8
-0.194, 1.160e-8
-0.195, 1.151e-8
-0.196, 1.135e-8
-0.197, 1.148e-8
-0.198, 1.154e-8
-0.199, 1.133e-8
