Mar. 16, 2023   09:19:26
Cyclic Voltammetry
File: c:/users/oliverrz/desktop/electrolab/data/2023_03_16\fcmeoh_macros_500_um\electrode2_cv_100mvs_500_um.bin
Data Source:  Experiment
Instrument Model:  CHI760E
Header: CV
Note: 

Init E (V) = -0.2
High E (V) = 0.3
Low E (V) = -0.2
Final E (V) = -0.2
Init P/N = P
Scan Rate (V/s) = 0.1
Segment = 3
Sample Interval (V) = 0.001
Quiet Time (sec) = 2
Sensitivity (A/V) = 1e-7

Results:

Channel 1:
Segment 1:
Ep = 0.095V
ip = -3.107e-8A
Ah = -1.960e-8C

Segment 2:
Ep = 0.026V
ip = 2.967e-8A
Ah = 1.937e-8C

Segment 3:

Potential/V, Current/A

-0.200, 4.527e-9
-0.199, 3.865e-9
-0.198, 3.608e-9
-0.197, 3.486e-9
-0.196, 3.443e-9
-0.195, 3.307e-9
-0.194, 3.304e-9
-0.193, 3.209e-9
-0.192, 3.143e-9
-0.191, 3.137e-9
-0.190, 3.019e-9
-0.189, 3.038e-9
-0.188, 2.955e-9
-0.187, 2.905e-9
-0.186, 2.909e-9
-0.185, 2.795e-9
-0.184, 2.822e-9
-0.183, 2.744e-9
-0.182, 2.697e-9
-0.181, 2.708e-9
-0.180, 2.601e-9
-0.179, 2.628e-9
-0.178, 2.560e-9
-0.177, 2.512e-9
-0.176, 2.531e-9
-0.175, 2.429e-9
-0.174, 2.460e-9
-0.173, 2.395e-9
-0.172, 2.350e-9
-0.171, 2.369e-9
-0.170, 2.271e-9
-0.169, 2.300e-9
-0.168, 2.246e-9
-0.167, 2.198e-9
-0.166, 2.222e-9
-0.165, 2.124e-9
-0.164, 2.155e-9
-0.163, 2.100e-9
-0.162, 2.058e-9
-0.161, 2.079e-9
-0.160, 1.987e-9
-0.159, 2.020e-9
-0.158, 1.961e-9
-0.157, 1.928e-9
-0.156, 1.946e-9
-0.155, 1.854e-9
-0.154, 1.892e-9
-0.153, 1.830e-9
-0.152, 1.799e-9
-0.151, 1.820e-9
-0.150, 1.730e-9
-0.149, 1.770e-9
-0.148, 1.709e-9
-0.147, 1.682e-9
-0.146, 1.704e-9
-0.145, 1.610e-9
-0.144, 1.653e-9
-0.143, 1.596e-9
-0.142, 1.567e-9
-0.141, 1.593e-9
-0.140, 1.497e-9
-0.139, 1.543e-9
-0.138, 1.489e-9
-0.137, 1.452e-9
-0.136, 1.486e-9
-0.135, 1.392e-9
-0.134, 1.435e-9
-0.133, 1.385e-9
-0.132, 1.346e-9
-0.131, 1.383e-9
-0.130, 1.292e-9
-0.129, 1.330e-9
-0.128, 1.280e-9
-0.127, 1.247e-9
-0.126, 1.280e-9
-0.125, 1.194e-9
-0.124, 1.234e-9
-0.123, 1.188e-9
-0.122, 1.154e-9
-0.121, 1.185e-9
-0.120, 1.096e-9
-0.119, 1.140e-9
-0.118, 1.088e-9
-0.117, 1.060e-9
-0.116, 1.090e-9
-0.115, 1.000e-9
-0.114, 1.046e-9
-0.113, 9.965e-10
-0.112, 9.678e-10
-0.111, 1.001e-9
-0.110, 9.044e-10
-0.109, 9.572e-10
-0.108, 9.024e-10
-0.107, 8.716e-10
-0.106, 9.063e-10
-0.105, 8.127e-10
-0.104, 8.638e-10
-0.103, 8.087e-10
-0.102, 7.717e-10
-0.101, 8.114e-10
-0.100, 7.199e-10
-0.099, 7.676e-10
-0.098, 7.199e-10
-0.097, 6.856e-10
-0.096, 7.206e-10
-0.095, 6.261e-10
-0.094, 6.711e-10
-0.093, 6.248e-10
-0.092, 5.818e-10
-0.091, 6.225e-10
-0.090, 5.251e-10
-0.089, 5.667e-10
-0.088, 5.229e-10
-0.087, 4.845e-10
-0.086, 5.164e-10
-0.085, 4.273e-10
-0.084, 4.624e-10
-0.083, 4.217e-10
-0.082, 3.816e-10
-0.081, 4.088e-10
-0.080, 3.231e-10
-0.079, 3.598e-10
-0.078, 3.105e-10
-0.077, 2.666e-10
-0.076, 2.970e-10
-0.075, 2.049e-10
-0.074, 2.428e-10
-0.073, 1.898e-10
-0.072, 1.500e-10
-0.071, 1.758e-10
-0.070, 8.094e-11
-0.069, 1.179e-10
-0.068, 5.909e-11
-0.067, 2.020e-11
-0.066, 4.659e-11
-0.065, -5.560e-11
-0.064, -2.302e-11
-0.063, -8.258e-11
-0.062, -1.312e-10
-0.061, -1.033e-10
-0.060, -2.118e-10
-0.059, -1.751e-10
-0.058, -2.384e-10
-0.057, -2.956e-10
-0.056, -2.722e-10
-0.055, -3.807e-10
-0.054, -3.600e-10
-0.053, -4.218e-10
-0.052, -4.891e-10
-0.051, -4.703e-10
-0.050, -5.801e-10
-0.049, -5.692e-10
-0.048, -6.313e-10
-0.047, -7.006e-10
-0.046, -6.904e-10
-0.045, -8.079e-10
-0.044, -7.994e-10
-0.043, -8.726e-10
-0.042, -9.466e-10
-0.041, -9.493e-10
-0.040, -1.072e-9
-0.039, -1.075e-9
-0.038, -1.160e-9
-0.037, -1.236e-9
-0.036, -1.248e-9
-0.035, -1.379e-9
-0.034, -1.392e-9
-0.033, -1.487e-9
-0.032, -1.573e-9
-0.031, -1.600e-9
-0.030, -1.743e-9
-0.029, -1.765e-9
-0.028, -1.876e-9
-0.027, -1.971e-9
-0.026, -2.016e-9
-0.025, -2.179e-9
-0.024, -2.207e-9
-0.023, -2.333e-9
-0.022, -2.446e-9
-0.021, -2.494e-9
-0.020, -2.674e-9
-0.019, -2.720e-9
-0.018, -2.862e-9
-0.017, -3.005e-9
-0.016, -3.065e-9
-0.015, -3.264e-9
-0.014, -3.337e-9
-0.013, -3.487e-9
-0.012, -3.654e-9
-0.011, -3.731e-9
-0.010, -3.943e-9
-0.009, -4.048e-9
-0.008, -4.220e-9
-0.007, -4.406e-9
-0.006, -4.516e-9
-0.005, -4.756e-9
-0.004, -4.883e-9
-0.003, -5.077e-9
-0.002, -5.296e-9
-0.001, -5.435e-9
-0.000, -5.764e-9
0.001, -5.897e-9
0.002, -6.111e-9
0.003, -6.342e-9
0.004, -6.521e-9
0.005, -6.808e-9
0.006, -6.991e-9
0.007, -7.260e-9
0.008, -7.533e-9
0.009, -7.740e-9
0.010, -8.065e-9
0.011, -8.286e-9
0.012, -8.586e-9
0.013, -8.895e-9
0.014, -9.136e-9
0.015, -9.501e-9
0.016, -9.747e-9
0.017, -1.008e-8
0.018, -1.043e-8
0.019, -1.069e-8
0.020, -1.111e-8
0.021, -1.138e-8
0.022, -1.175e-8
0.023, -1.213e-8
0.024, -1.244e-8
0.025, -1.288e-8
0.026, -1.320e-8
0.027, -1.360e-8
0.028, -1.402e-8
0.029, -1.435e-8
0.030, -1.481e-8
0.031, -1.518e-8
0.032, -1.560e-8
0.033, -1.605e-8
0.034, -1.641e-8
0.035, -1.689e-8
0.036, -1.728e-8
0.037, -1.771e-8
0.038, -1.819e-8
0.039, -1.857e-8
0.040, -1.907e-8
0.041, -1.946e-8
0.042, -1.991e-8
0.043, -2.038e-8
0.044, -2.079e-8
0.045, -2.128e-8
0.046, -2.168e-8
0.047, -2.215e-8
0.048, -2.259e-8
0.049, -2.300e-8
0.050, -2.350e-8
0.051, -2.390e-8
0.052, -2.435e-8
0.053, -2.479e-8
0.054, -2.516e-8
0.055, -2.564e-8
0.056, -2.599e-8
0.057, -2.643e-8
0.058, -2.684e-8
0.059, -2.718e-8
0.060, -2.763e-8
0.061, -2.793e-8
0.062, -2.832e-8
0.063, -2.871e-8
0.064, -2.899e-8
0.065, -2.940e-8
0.066, -2.967e-8
0.067, -3.000e-8
0.068, -3.034e-8
0.069, -3.055e-8
0.070, -3.091e-8
0.071, -3.113e-8
0.072, -3.139e-8
0.073, -3.168e-8
0.074, -3.184e-8
0.075, -3.212e-8
0.076, -3.231e-8
0.077, -3.250e-8
0.078, -3.271e-8
0.079, -3.284e-8
0.080, -3.304e-8
0.081, -3.314e-8
0.082, -3.328e-8
0.083, -3.342e-8
0.084, -3.349e-8
0.085, -3.363e-8
0.086, -3.368e-8
0.087, -3.377e-8
0.088, -3.384e-8
0.089, -3.385e-8
0.090, -3.396e-8
0.091, -3.394e-8
0.092, -3.398e-8
0.093, -3.400e-8
0.094, -3.396e-8
0.095, -3.402e-8
0.096, -3.395e-8
0.097, -3.395e-8
0.098, -3.394e-8
0.099, -3.384e-8
0.100, -3.387e-8
0.101, -3.376e-8
0.102, -3.373e-8
0.103, -3.370e-8
0.104, -3.356e-8
0.105, -3.356e-8
0.106, -3.341e-8
0.107, -3.334e-8
0.108, -3.328e-8
0.109, -3.311e-8
0.110, -3.309e-8
0.111, -3.293e-8
0.112, -3.283e-8
0.113, -3.276e-8
0.114, -3.258e-8
0.115, -3.254e-8
0.116, -3.238e-8
0.117, -3.225e-8
0.118, -3.217e-8
0.119, -3.198e-8
0.120, -3.192e-8
0.121, -3.174e-8
0.122, -3.163e-8
0.123, -3.152e-8
0.124, -3.134e-8
0.125, -3.127e-8
0.126, -3.109e-8
0.127, -3.097e-8
0.128, -3.087e-8
0.129, -3.068e-8
0.130, -3.062e-8
0.131, -3.043e-8
0.132, -3.032e-8
0.133, -3.021e-8
0.134, -3.002e-8
0.135, -2.996e-8
0.136, -2.978e-8
0.137, -2.967e-8
0.138, -2.957e-8
0.139, -2.938e-8
0.140, -2.933e-8
0.141, -2.916e-8
0.142, -2.905e-8
0.143, -2.896e-8
0.144, -2.878e-8
0.145, -2.873e-8
0.146, -2.856e-8
0.147, -2.846e-8
0.148, -2.838e-8
0.149, -2.820e-8
0.150, -2.816e-8
0.151, -2.800e-8
0.152, -2.790e-8
0.153, -2.783e-8
0.154, -2.767e-8
0.155, -2.763e-8
0.156, -2.748e-8
0.157, -2.738e-8
0.158, -2.732e-8
0.159, -2.716e-8
0.160, -2.713e-8
0.161, -2.699e-8
0.162, -2.691e-8
0.163, -2.685e-8
0.164, -2.670e-8
0.165, -2.667e-8
0.166, -2.654e-8
0.167, -2.647e-8
0.168, -2.642e-8
0.169, -2.628e-8
0.170, -2.626e-8
0.171, -2.613e-8
0.172, -2.607e-8
0.173, -2.602e-8
0.174, -2.589e-8
0.175, -2.588e-8
0.176, -2.575e-8
0.177, -2.570e-8
0.178, -2.566e-8
0.179, -2.553e-8
0.180, -2.554e-8
0.181, -2.542e-8
0.182, -2.537e-8
0.183, -2.534e-8
0.184, -2.521e-8
0.185, -2.522e-8
0.186, -2.511e-8
0.187, -2.507e-8
0.188, -2.504e-8
0.189, -2.492e-8
0.190, -2.494e-8
0.191, -2.484e-8
0.192, -2.480e-8
0.193, -2.478e-8
0.194, -2.466e-8
0.195, -2.468e-8
0.196, -2.459e-8
0.197, -2.455e-8
0.198, -2.453e-8
0.199, -2.443e-8
0.200, -2.445e-8
0.201, -2.435e-8
0.202, -2.432e-8
0.203, -2.431e-8
0.204, -2.422e-8
0.205, -2.425e-8
0.206, -2.416e-8
0.207, -2.413e-8
0.208, -2.413e-8
0.209, -2.402e-8
0.210, -2.406e-8
0.211, -2.398e-8
0.212, -2.396e-8
0.213, -2.396e-8
0.214, -2.386e-8
0.215, -2.391e-8
0.216, -2.382e-8
0.217, -2.380e-8
0.218, -2.381e-8
0.219, -2.371e-8
0.220, -2.376e-8
0.221, -2.368e-8
0.222, -2.367e-8
0.223, -2.368e-8
0.224, -2.358e-8
0.225, -2.363e-8
0.226, -2.356e-8
0.227, -2.354e-8
0.228, -2.356e-8
0.229, -2.347e-8
0.230, -2.353e-8
0.231, -2.346e-8
0.232, -2.344e-8
0.233, -2.346e-8
0.234, -2.338e-8
0.235, -2.342e-8
0.236, -2.336e-8
0.237, -2.335e-8
0.238, -2.337e-8
0.239, -2.329e-8
0.240, -2.334e-8
0.241, -2.328e-8
0.242, -2.327e-8
0.243, -2.330e-8
0.244, -2.322e-8
0.245, -2.327e-8
0.246, -2.321e-8
0.247, -2.322e-8
0.248, -2.323e-8
0.249, -2.316e-8
0.250, -2.322e-8
0.251, -2.316e-8
0.252, -2.317e-8
0.253, -2.319e-8
0.254, -2.312e-8
0.255, -2.318e-8
0.256, -2.313e-8
0.257, -2.313e-8
0.258, -2.316e-8
0.259, -2.308e-8
0.260, -2.315e-8
0.261, -2.309e-8
0.262, -2.310e-8
0.263, -2.314e-8
0.264, -2.306e-8
0.265, -2.313e-8
0.266, -2.308e-8
0.267, -2.308e-8
0.268, -2.312e-8
0.269, -2.305e-8
0.270, -2.312e-8
0.271, -2.307e-8
0.272, -2.307e-8
0.273, -2.311e-8
0.274, -2.305e-8
0.275, -2.312e-8
0.276, -2.308e-8
0.277, -2.308e-8
0.278, -2.312e-8
0.279, -2.306e-8
0.280, -2.313e-8
0.281, -2.310e-8
0.282, -2.310e-8
0.283, -2.315e-8
0.284, -2.309e-8
0.285, -2.315e-8
0.286, -2.312e-8
0.287, -2.313e-8
0.288, -2.317e-8
0.289, -2.312e-8
0.290, -2.319e-8
0.291, -2.315e-8
0.292, -2.317e-8
0.293, -2.321e-8
0.294, -2.316e-8
0.295, -2.324e-8
0.296, -2.319e-8
0.297, -2.321e-8
0.298, -2.326e-8
0.299, -2.320e-8
0.300, -2.242e-8
0.299, -2.080e-8
0.298, -2.021e-8
0.297, -1.990e-8
0.296, -1.957e-8
0.295, -1.942e-8
0.294, -1.918e-8
0.293, -1.900e-8
0.292, -1.887e-8
0.291, -1.865e-8
0.290, -1.857e-8
0.289, -1.839e-8
0.288, -1.827e-8
0.287, -1.818e-8
0.286, -1.801e-8
0.285, -1.796e-8
0.284, -1.781e-8
0.283, -1.772e-8
0.282, -1.766e-8
0.281, -1.749e-8
0.280, -1.748e-8
0.279, -1.734e-8
0.278, -1.726e-8
0.277, -1.723e-8
0.276, -1.707e-8
0.275, -1.707e-8
0.274, -1.695e-8
0.273, -1.688e-8
0.272, -1.685e-8
0.271, -1.672e-8
0.270, -1.672e-8
0.269, -1.661e-8
0.268, -1.655e-8
0.267, -1.653e-8
0.266, -1.641e-8
0.265, -1.641e-8
0.264, -1.632e-8
0.263, -1.626e-8
0.262, -1.625e-8
0.261, -1.613e-8
0.260, -1.614e-8
0.259, -1.605e-8
0.258, -1.600e-8
0.257, -1.599e-8
0.256, -1.587e-8
0.255, -1.589e-8
0.254, -1.580e-8
0.253, -1.576e-8
0.252, -1.575e-8
0.251, -1.564e-8
0.250, -1.567e-8
0.249, -1.558e-8
0.248, -1.554e-8
0.247, -1.553e-8
0.246, -1.543e-8
0.245, -1.546e-8
0.244, -1.537e-8
0.243, -1.533e-8
0.242, -1.533e-8
0.241, -1.523e-8
0.240, -1.526e-8
0.239, -1.517e-8
0.238, -1.514e-8
0.237, -1.514e-8
0.236, -1.503e-8
0.235, -1.506e-8
0.234, -1.498e-8
0.233, -1.495e-8
0.232, -1.496e-8
0.231, -1.485e-8
0.230, -1.488e-8
0.229, -1.481e-8
0.228, -1.477e-8
0.227, -1.478e-8
0.226, -1.468e-8
0.225, -1.471e-8
0.224, -1.464e-8
0.223, -1.460e-8
0.222, -1.461e-8
0.221, -1.451e-8
0.220, -1.454e-8
0.219, -1.447e-8
0.218, -1.443e-8
0.217, -1.444e-8
0.216, -1.434e-8
0.215, -1.437e-8
0.214, -1.430e-8
0.213, -1.426e-8
0.212, -1.427e-8
0.211, -1.417e-8
0.210, -1.420e-8
0.209, -1.412e-8
0.208, -1.409e-8
0.207, -1.409e-8
0.206, -1.399e-8
0.205, -1.402e-8
0.204, -1.394e-8
0.203, -1.391e-8
0.202, -1.392e-8
0.201, -1.382e-8
0.200, -1.385e-8
0.199, -1.376e-8
0.198, -1.373e-8
0.197, -1.374e-8
0.196, -1.363e-8
0.195, -1.367e-8
0.194, -1.358e-8
0.193, -1.354e-8
0.192, -1.355e-8
0.191, -1.344e-8
0.190, -1.347e-8
0.189, -1.339e-8
0.188, -1.334e-8
0.187, -1.335e-8
0.186, -1.324e-8
0.185, -1.326e-8
0.184, -1.318e-8
0.183, -1.313e-8
0.182, -1.313e-8
0.181, -1.302e-8
0.180, -1.303e-8
0.179, -1.295e-8
0.178, -1.289e-8
0.177, -1.289e-8
0.176, -1.277e-8
0.175, -1.278e-8
0.174, -1.270e-8
0.173, -1.264e-8
0.172, -1.262e-8
0.171, -1.250e-8
0.170, -1.251e-8
0.169, -1.241e-8
0.168, -1.235e-8
0.167, -1.232e-8
0.166, -1.219e-8
0.165, -1.220e-8
0.164, -1.209e-8
0.163, -1.202e-8
0.162, -1.200e-8
0.161, -1.185e-8
0.160, -1.185e-8
0.159, -1.173e-8
0.158, -1.165e-8
0.157, -1.162e-8
0.156, -1.146e-8
0.155, -1.145e-8
0.154, -1.132e-8
0.153, -1.123e-8
0.152, -1.119e-8
0.151, -1.102e-8
0.150, -1.099e-8
0.149, -1.085e-8
0.148, -1.074e-8
0.147, -1.069e-8
0.146, -1.051e-8
0.145, -1.046e-8
0.144, -1.031e-8
0.143, -1.018e-8
0.142, -1.011e-8
0.141, -9.916e-9
0.140, -9.846e-9
0.139, -9.687e-9
0.138, -9.543e-9
0.137, -9.451e-9
0.136, -9.241e-9
0.135, -9.146e-9
0.134, -8.970e-9
0.133, -8.800e-9
0.132, -8.681e-9
0.131, -8.454e-9
0.130, -8.337e-9
0.129, -8.127e-9
0.128, -7.934e-9
0.127, -7.792e-9
0.126, -7.537e-9
0.125, -7.401e-9
0.124, -7.150e-9
0.123, -6.943e-9
0.122, -6.766e-9
0.121, -6.479e-9
0.120, -6.318e-9
0.119, -6.044e-9
0.118, -5.806e-9
0.117, -5.600e-9
0.116, -5.269e-9
0.115, -5.086e-9
0.114, -4.785e-9
0.113, -4.506e-9
0.112, -4.275e-9
0.111, -3.914e-9
0.110, -3.689e-9
0.109, -3.366e-9
0.108, -3.043e-9
0.107, -2.779e-9
0.106, -2.387e-9
0.105, -2.125e-9
0.104, -1.755e-9
0.103, -1.391e-9
0.102, -1.096e-9
0.101, -6.736e-10
0.100, -3.708e-10
0.099, 1.744e-11
0.098, 4.106e-10
0.097, 7.440e-10
0.096, 1.197e-9
0.095, 1.543e-9
0.094, 1.955e-9
0.093, 2.374e-9
0.092, 2.742e-9
0.091, 3.210e-9
0.090, 3.593e-9
0.089, 4.038e-9
0.088, 4.469e-9
0.087, 4.856e-9
0.086, 5.348e-9
0.085, 5.739e-9
0.084, 6.219e-9
0.083, 6.650e-9
0.082, 7.065e-9
0.081, 7.567e-9
0.080, 7.959e-9
0.079, 8.451e-9
0.078, 8.903e-9
0.077, 9.319e-9
0.076, 9.840e-9
0.075, 1.021e-8
0.074, 1.069e-8
0.073, 1.113e-8
0.072, 1.152e-8
0.071, 1.203e-8
0.070, 1.237e-8
0.069, 1.283e-8
0.068, 1.327e-8
0.067, 1.362e-8
0.066, 1.410e-8
0.065, 1.445e-8
0.064, 1.486e-8
0.063, 1.527e-8
0.062, 1.558e-8
0.061, 1.601e-8
0.060, 1.633e-8
0.059, 1.669e-8
0.058, 1.705e-8
0.057, 1.732e-8
0.056, 1.771e-8
0.055, 1.798e-8
0.054, 1.827e-8
0.053, 1.858e-8
0.052, 1.881e-8
0.051, 1.913e-8
0.050, 1.933e-8
0.049, 1.957e-8
0.048, 1.981e-8
0.047, 1.999e-8
0.046, 2.023e-8
0.045, 2.036e-8
0.044, 2.058e-8
0.043, 2.074e-8
0.042, 2.085e-8
0.041, 2.103e-8
0.040, 2.111e-8
0.039, 2.127e-8
0.038, 2.137e-8
0.037, 2.142e-8
0.036, 2.156e-8
0.035, 2.157e-8
0.034, 2.167e-8
0.033, 2.172e-8
0.032, 2.170e-8
0.031, 2.181e-8
0.030, 2.177e-8
0.029, 2.181e-8
0.028, 2.182e-8
0.027, 2.176e-8
0.026, 2.182e-8
0.025, 2.174e-8
0.024, 2.172e-8
0.023, 2.171e-8
0.022, 2.160e-8
0.021, 2.162e-8
0.020, 2.152e-8
0.019, 2.147e-8
0.018, 2.142e-8
0.017, 2.129e-8
0.016, 2.127e-8
0.015, 2.114e-8
0.014, 2.107e-8
0.013, 2.100e-8
0.012, 2.085e-8
0.011, 2.081e-8
0.010, 2.065e-8
0.009, 2.058e-8
0.008, 2.047e-8
0.007, 2.031e-8
0.006, 2.026e-8
0.005, 2.009e-8
0.004, 2.001e-8
0.003, 1.990e-8
0.002, 1.973e-8
0.001, 1.967e-8
0.000, 1.955e-8
-0.001, 1.944e-8
-0.002, 1.931e-8
-0.003, 1.912e-8
-0.004, 1.907e-8
-0.005, 1.886e-8
-0.006, 1.877e-8
-0.007, 1.866e-8
-0.008, 1.847e-8
-0.009, 1.842e-8
-0.010, 1.823e-8
-0.011, 1.813e-8
-0.012, 1.803e-8
-0.013, 1.784e-8
-0.014, 1.779e-8
-0.015, 1.761e-8
-0.016, 1.751e-8
-0.017, 1.741e-8
-0.018, 1.723e-8
-0.019, 1.718e-8
-0.020, 1.700e-8
-0.021, 1.691e-8
-0.022, 1.681e-8
-0.023, 1.664e-8
-0.024, 1.660e-8
-0.025, 1.643e-8
-0.026, 1.634e-8
-0.027, 1.623e-8
-0.028, 1.607e-8
-0.029, 1.603e-8
-0.030, 1.587e-8
-0.031, 1.579e-8
-0.032, 1.570e-8
-0.033, 1.554e-8
-0.034, 1.551e-8
-0.035, 1.535e-8
-0.036, 1.528e-8
-0.037, 1.519e-8
-0.038, 1.505e-8
-0.039, 1.503e-8
-0.040, 1.487e-8
-0.041, 1.481e-8
-0.042, 1.473e-8
-0.043, 1.459e-8
-0.044, 1.458e-8
-0.045, 1.443e-8
-0.046, 1.437e-8
-0.047, 1.430e-8
-0.048, 1.417e-8
-0.049, 1.416e-8
-0.050, 1.402e-8
-0.051, 1.397e-8
-0.052, 1.391e-8
-0.053, 1.377e-8
-0.054, 1.377e-8
-0.055, 1.364e-8
-0.056, 1.359e-8
-0.057, 1.354e-8
-0.058, 1.341e-8
-0.059, 1.342e-8
-0.060, 1.329e-8
-0.061, 1.325e-8
-0.062, 1.321e-8
-0.063, 1.308e-8
-0.064, 1.309e-8
-0.065, 1.298e-8
-0.066, 1.293e-8
-0.067, 1.290e-8
-0.068, 1.278e-8
-0.069, 1.279e-8
-0.070, 1.268e-8
-0.071, 1.265e-8
-0.072, 1.261e-8
-0.073, 1.251e-8
-0.074, 1.252e-8
-0.075, 1.241e-8
-0.076, 1.239e-8
-0.077, 1.236e-8
-0.078, 1.226e-8
-0.079, 1.228e-8
-0.080, 1.218e-8
-0.081, 1.217e-8
-0.082, 1.214e-8
-0.083, 1.204e-8
-0.084, 1.207e-8
-0.085, 1.197e-8
-0.086, 1.195e-8
-0.087, 1.193e-8
-0.088, 1.183e-8
-0.089, 1.187e-8
-0.090, 1.178e-8
-0.091, 1.176e-8
-0.092, 1.175e-8
-0.093, 1.165e-8
-0.094, 1.169e-8
-0.095, 1.161e-8
-0.096, 1.159e-8
-0.097, 1.159e-8
-0.098, 1.149e-8
-0.099, 1.154e-8
-0.100, 1.145e-8
-0.101, 1.145e-8
-0.102, 1.144e-8
-0.103, 1.136e-8
-0.104, 1.140e-8
-0.105, 1.132e-8
-0.106, 1.131e-8
-0.107, 1.131e-8
-0.108, 1.124e-8
-0.109, 1.128e-8
-0.110, 1.120e-8
-0.111, 1.121e-8
-0.112, 1.120e-8
-0.113, 1.113e-8
-0.114, 1.118e-8
-0.115, 1.111e-8
-0.116, 1.111e-8
-0.117, 1.111e-8
-0.118, 1.104e-8
-0.119, 1.109e-8
-0.120, 1.102e-8
-0.121, 1.103e-8
-0.122, 1.104e-8
-0.123, 1.096e-8
-0.124, 1.103e-8
-0.125, 1.095e-8
-0.126, 1.097e-8
-0.127, 1.098e-8
-0.128, 1.091e-8
-0.129, 1.098e-8
-0.130, 1.091e-8
-0.131, 1.092e-8
-0.132, 1.094e-8
-0.133, 1.087e-8
-0.134, 1.094e-8
-0.135, 1.087e-8
-0.136, 1.088e-8
-0.137, 1.091e-8
-0.138, 1.084e-8
-0.139, 1.091e-8
-0.140, 1.086e-8
-0.141, 1.087e-8
-0.142, 1.089e-8
-0.143, 1.084e-8
-0.144, 1.090e-8
-0.145, 1.085e-8
-0.146, 1.087e-8
-0.147, 1.089e-8
-0.148, 1.084e-8
-0.149, 1.091e-8
-0.150, 1.086e-8
-0.151, 1.088e-8
-0.152, 1.091e-8
-0.153, 1.086e-8
-0.154, 1.093e-8
-0.155, 1.088e-8
-0.156, 1.091e-8
-0.157, 1.093e-8
-0.158, 1.089e-8
-0.159, 1.097e-8
-0.160, 1.091e-8
-0.161, 1.095e-8
-0.162, 1.098e-8
-0.163, 1.093e-8
-0.164, 1.102e-8
-0.165, 1.096e-8
-0.166, 1.100e-8
-0.167, 1.104e-8
-0.168, 1.099e-8
-0.169, 1.108e-8
-0.170, 1.103e-8
-0.171, 1.107e-8
-0.172, 1.111e-8
-0.173, 1.106e-8
-0.174, 1.115e-8
-0.175, 1.111e-8
-0.176, 1.114e-8
-0.177, 1.119e-8
-0.178, 1.115e-8
-0.179, 1.124e-8
-0.180, 1.121e-8
-0.181, 1.124e-8
-0.182, 1.129e-8
-0.183, 1.125e-8
-0.184, 1.134e-8
-0.185, 1.132e-8
-0.186, 1.135e-8
-0.187, 1.140e-8
-0.188, 1.137e-8
-0.189, 1.146e-8
-0.190, 1.143e-8
-0.191, 1.148e-8
-0.192, 1.153e-8
-0.193, 1.150e-8
-0.194, 1.159e-8
-0.195, 1.157e-8
-0.196, 1.162e-8
-0.197, 1.167e-8
-0.198, 1.164e-8
-0.199, 1.174e-8
