Mar. 16, 2023   09:26:27
Cyclic Voltammetry
File: c:/users/oliverrz/desktop/electrolab/data/2023_03_16\fcmeoh_macros_500_um\electrode7_cv_200mvs_500_um.bin
Data Source:  Experiment
Instrument Model:  CHI760E
Header: CV
Note: 

Init E (V) = -0.2
High E (V) = 0.3
Low E (V) = -0.2
Final E (V) = -0.2
Init P/N = P
Scan Rate (V/s) = 0.2
Segment = 3
Sample Interval (V) = 0.001
Quiet Time (sec) = 2
Sensitivity (A/V) = 1e-7

Results:

Channel 1:
Segment 1:
Ep = 0.093V
ip = -4.549e-8A
Ah = -1.423e-8C

Segment 2:
Ep = 0.032V
ip = 4.227e-8A
Ah = 1.287e-8C

Segment 3:

Potential/V, Current/A

-0.200, 2.193e-9
-0.199, 1.903e-9
-0.198, 1.775e-9
-0.197, 1.527e-9
-0.196, 1.684e-9
-0.195, 1.715e-9
-0.194, 1.484e-9
-0.193, 1.482e-9
-0.192, 1.680e-9
-0.191, 1.457e-9
-0.190, 1.353e-9
-0.189, 1.567e-9
-0.188, 1.491e-9
-0.187, 1.267e-9
-0.186, 1.446e-9
-0.185, 1.474e-9
-0.184, 1.260e-9
-0.183, 1.284e-9
-0.182, 1.468e-9
-0.181, 1.263e-9
-0.180, 1.161e-9
-0.179, 1.378e-9
-0.178, 1.307e-9
-0.177, 1.075e-9
-0.176, 1.273e-9
-0.175, 1.312e-9
-0.174, 1.077e-9
-0.173, 1.122e-9
-0.172, 1.305e-9
-0.171, 1.098e-9
-0.170, 1.019e-9
-0.169, 1.214e-9
-0.168, 1.165e-9
-0.167, 9.261e-10
-0.166, 1.111e-9
-0.165, 1.171e-9
-0.164, 9.332e-10
-0.163, 9.725e-10
-0.162, 1.174e-9
-0.161, 9.441e-10
-0.160, 8.790e-10
-0.159, 1.088e-9
-0.158, 1.016e-9
-0.157, 7.963e-10
-0.156, 9.884e-10
-0.155, 1.032e-9
-0.154, 8.050e-10
-0.153, 8.356e-10
-0.152, 1.039e-9
-0.151, 8.338e-10
-0.150, 7.381e-10
-0.149, 9.682e-10
-0.148, 8.943e-10
-0.147, 6.706e-10
-0.146, 8.685e-10
-0.145, 9.059e-10
-0.144, 6.851e-10
-0.143, 7.260e-10
-0.142, 9.189e-10
-0.141, 7.053e-10
-0.140, 6.266e-10
-0.139, 8.420e-10
-0.138, 7.807e-10
-0.137, 5.413e-10
-0.136, 7.545e-10
-0.135, 8.008e-10
-0.134, 5.574e-10
-0.133, 6.124e-10
-0.132, 8.017e-10
-0.131, 5.925e-10
-0.130, 5.166e-10
-0.129, 7.220e-10
-0.128, 6.600e-10
-0.127, 4.385e-10
-0.126, 6.320e-10
-0.125, 6.834e-10
-0.124, 4.432e-10
-0.123, 4.909e-10
-0.122, 6.985e-10
-0.121, 4.602e-10
-0.120, 4.010e-10
-0.119, 6.191e-10
-0.118, 5.332e-10
-0.117, 3.289e-10
-0.116, 5.109e-10
-0.115, 5.605e-10
-0.114, 3.310e-10
-0.113, 3.693e-10
-0.112, 5.717e-10
-0.111, 3.541e-10
-0.110, 2.722e-10
-0.109, 4.989e-10
-0.108, 4.064e-10
-0.107, 1.976e-10
-0.106, 3.979e-10
-0.105, 4.305e-10
-0.104, 2.065e-10
-0.103, 2.354e-10
-0.102, 4.339e-10
-0.101, 2.185e-10
-0.100, 1.314e-10
-0.099, 3.606e-10
-0.098, 2.785e-10
-0.097, 5.220e-11
-0.096, 2.489e-10
-0.095, 2.907e-10
-0.094, 4.560e-11
-0.093, 1.033e-10
-0.092, 2.754e-10
-0.091, 6.332e-11
-0.090, -1.691e-11
-0.089, 1.911e-10
-0.088, 1.139e-10
-0.087, -1.052e-10
-0.086, 7.041e-11
-0.085, 1.197e-10
-0.084, -1.272e-10
-0.083, -7.835e-11
-0.082, 9.433e-11
-0.081, -1.336e-10
-0.080, -2.038e-10
-0.079, 4.134e-13
-0.078, -9.882e-11
-0.077, -3.191e-10
-0.076, -1.408e-10
-0.075, -1.038e-10
-0.074, -3.515e-10
-0.073, -3.200e-10
-0.072, -1.352e-10
-0.071, -3.679e-10
-0.070, -4.647e-10
-0.069, -2.574e-10
-0.068, -3.655e-10
-0.067, -5.837e-10
-0.066, -4.125e-10
-0.065, -4.039e-10
-0.064, -6.485e-10
-0.063, -6.207e-10
-0.062, -4.658e-10
-0.061, -6.940e-10
-0.060, -8.097e-10
-0.059, -6.020e-10
-0.058, -7.116e-10
-0.057, -9.652e-10
-0.056, -7.956e-10
-0.055, -7.883e-10
-0.054, -1.061e-9
-0.053, -1.021e-9
-0.052, -9.078e-10
-0.051, -1.144e-9
-0.050, -1.251e-9
-0.049, -1.089e-9
-0.048, -1.207e-9
-0.047, -1.456e-9
-0.046, -1.327e-9
-0.045, -1.319e-9
-0.044, -1.625e-9
-0.043, -1.604e-9
-0.042, -1.488e-9
-0.041, -1.769e-9
-0.040, -1.890e-9
-0.039, -1.744e-9
-0.038, -1.908e-9
-0.037, -2.163e-9
-0.036, -2.064e-9
-0.035, -2.088e-9
-0.034, -2.394e-9
-0.033, -2.431e-9
-0.032, -2.332e-9
-0.031, -2.622e-9
-0.030, -2.798e-9
-0.029, -2.660e-9
-0.028, -2.872e-9
-0.027, -3.167e-9
-0.026, -3.087e-9
-0.025, -3.174e-9
-0.024, -3.498e-9
-0.023, -3.557e-9
-0.022, -3.519e-9
-0.021, -3.834e-9
-0.020, -4.066e-9
-0.019, -3.969e-9
-0.018, -4.211e-9
-0.017, -4.568e-9
-0.016, -4.521e-9
-0.015, -4.651e-9
-0.014, -5.062e-9
-0.013, -5.153e-9
-0.012, -5.182e-9
-0.011, -5.556e-9
-0.010, -5.825e-9
-0.009, -5.811e-9
-0.008, -6.100e-9
-0.007, -6.512e-9
-0.006, -6.551e-9
-0.005, -6.719e-9
-0.004, -7.212e-9
-0.003, -7.376e-9
-0.002, -7.461e-9
-0.001, -7.941e-9
-0.000, -8.383e-9
0.001, -8.359e-9
0.002, -8.756e-9
0.003, -9.195e-9
0.004, -9.348e-9
0.005, -9.599e-9
0.006, -1.015e-8
0.007, -1.042e-8
0.008, -1.058e-8
0.009, -1.113e-8
0.010, -1.155e-8
0.011, -1.169e-8
0.012, -1.221e-8
0.013, -1.275e-8
0.014, -1.297e-8
0.015, -1.336e-8
0.016, -1.399e-8
0.017, -1.434e-8
0.018, -1.464e-8
0.019, -1.525e-8
0.020, -1.583e-8
0.021, -1.604e-8
0.022, -1.663e-8
0.023, -1.731e-8
0.024, -1.760e-8
0.025, -1.810e-8
0.026, -1.883e-8
0.027, -1.928e-8
0.028, -1.969e-8
0.029, -2.036e-8
0.030, -2.100e-8
0.031, -2.135e-8
0.032, -2.201e-8
0.033, -2.275e-8
0.034, -2.317e-8
0.035, -2.370e-8
0.036, -2.453e-8
0.037, -2.503e-8
0.038, -2.550e-8
0.039, -2.632e-8
0.040, -2.695e-8
0.041, -2.735e-8
0.042, -2.808e-8
0.043, -2.882e-8
0.044, -2.929e-8
0.045, -2.984e-8
0.046, -3.068e-8
0.047, -3.125e-8
0.048, -3.170e-8
0.049, -3.249e-8
0.050, -3.317e-8
0.051, -3.354e-8
0.052, -3.428e-8
0.053, -3.498e-8
0.054, -3.538e-8
0.055, -3.597e-8
0.056, -3.670e-8
0.057, -3.719e-8
0.058, -3.761e-8
0.059, -3.829e-8
0.060, -3.892e-8
0.061, -3.917e-8
0.062, -3.980e-8
0.063, -4.045e-8
0.064, -4.073e-8
0.065, -4.118e-8
0.066, -4.182e-8
0.067, -4.212e-8
0.068, -4.247e-8
0.069, -4.298e-8
0.070, -4.343e-8
0.071, -4.358e-8
0.072, -4.402e-8
0.073, -4.448e-8
0.074, -4.462e-8
0.075, -4.485e-8
0.076, -4.539e-8
0.077, -4.554e-8
0.078, -4.564e-8
0.079, -4.603e-8
0.080, -4.626e-8
0.081, -4.623e-8
0.082, -4.654e-8
0.083, -4.679e-8
0.084, -4.680e-8
0.085, -4.683e-8
0.086, -4.715e-8
0.087, -4.716e-8
0.088, -4.706e-8
0.089, -4.730e-8
0.090, -4.740e-8
0.091, -4.715e-8
0.092, -4.731e-8
0.093, -4.741e-8
0.094, -4.720e-8
0.095, -4.717e-8
0.096, -4.729e-8
0.097, -4.716e-8
0.098, -4.696e-8
0.099, -4.702e-8
0.100, -4.703e-8
0.101, -4.667e-8
0.102, -4.669e-8
0.103, -4.673e-8
0.104, -4.638e-8
0.105, -4.621e-8
0.106, -4.629e-8
0.107, -4.603e-8
0.108, -4.574e-8
0.109, -4.572e-8
0.110, -4.562e-8
0.111, -4.522e-8
0.112, -4.513e-8
0.113, -4.510e-8
0.114, -4.474e-8
0.115, -4.449e-8
0.116, -4.454e-8
0.117, -4.422e-8
0.118, -4.386e-8
0.119, -4.385e-8
0.120, -4.368e-8
0.121, -4.324e-8
0.122, -4.315e-8
0.123, -4.307e-8
0.124, -4.268e-8
0.125, -4.241e-8
0.126, -4.243e-8
0.127, -4.211e-8
0.128, -4.175e-8
0.129, -4.172e-8
0.130, -4.157e-8
0.131, -4.109e-8
0.132, -4.100e-8
0.133, -4.094e-8
0.134, -4.053e-8
0.135, -4.028e-8
0.136, -4.029e-8
0.137, -3.998e-8
0.138, -3.963e-8
0.139, -3.960e-8
0.140, -3.947e-8
0.141, -3.900e-8
0.142, -3.892e-8
0.143, -3.889e-8
0.144, -3.847e-8
0.145, -3.823e-8
0.146, -3.828e-8
0.147, -3.796e-8
0.148, -3.763e-8
0.149, -3.762e-8
0.150, -3.749e-8
0.151, -3.707e-8
0.152, -3.699e-8
0.153, -3.698e-8
0.154, -3.661e-8
0.155, -3.638e-8
0.156, -3.645e-8
0.157, -3.616e-8
0.158, -3.584e-8
0.159, -3.587e-8
0.160, -3.575e-8
0.161, -3.535e-8
0.162, -3.531e-8
0.163, -3.529e-8
0.164, -3.496e-8
0.165, -3.476e-8
0.166, -3.484e-8
0.167, -3.459e-8
0.168, -3.428e-8
0.169, -3.432e-8
0.170, -3.424e-8
0.171, -3.384e-8
0.172, -3.383e-8
0.173, -3.384e-8
0.174, -3.351e-8
0.175, -3.334e-8
0.176, -3.344e-8
0.177, -3.320e-8
0.178, -3.293e-8
0.179, -3.299e-8
0.180, -3.293e-8
0.181, -3.255e-8
0.182, -3.255e-8
0.183, -3.260e-8
0.184, -3.227e-8
0.185, -3.212e-8
0.186, -3.225e-8
0.187, -3.201e-8
0.188, -3.176e-8
0.189, -3.184e-8
0.190, -3.180e-8
0.191, -3.145e-8
0.192, -3.146e-8
0.193, -3.151e-8
0.194, -3.121e-8
0.195, -3.106e-8
0.196, -3.122e-8
0.197, -3.099e-8
0.198, -3.074e-8
0.199, -3.085e-8
0.200, -3.081e-8
0.201, -3.047e-8
0.202, -3.051e-8
0.203, -3.056e-8
0.204, -3.028e-8
0.205, -3.016e-8
0.206, -3.031e-8
0.207, -3.012e-8
0.208, -2.988e-8
0.209, -3.000e-8
0.210, -2.998e-8
0.211, -2.964e-8
0.212, -2.970e-8
0.213, -2.977e-8
0.214, -2.949e-8
0.215, -2.938e-8
0.216, -2.955e-8
0.217, -2.935e-8
0.218, -2.915e-8
0.219, -2.926e-8
0.220, -2.925e-8
0.221, -2.893e-8
0.222, -2.899e-8
0.223, -2.909e-8
0.224, -2.881e-8
0.225, -2.871e-8
0.226, -2.890e-8
0.227, -2.870e-8
0.228, -2.851e-8
0.229, -2.864e-8
0.230, -2.863e-8
0.231, -2.833e-8
0.232, -2.839e-8
0.233, -2.848e-8
0.234, -2.824e-8
0.235, -2.813e-8
0.236, -2.834e-8
0.237, -2.814e-8
0.238, -2.795e-8
0.239, -2.811e-8
0.240, -2.809e-8
0.241, -2.779e-8
0.242, -2.788e-8
0.243, -2.798e-8
0.244, -2.774e-8
0.245, -2.764e-8
0.246, -2.783e-8
0.247, -2.768e-8
0.248, -2.747e-8
0.249, -2.763e-8
0.250, -2.764e-8
0.251, -2.734e-8
0.252, -2.744e-8
0.253, -2.753e-8
0.254, -2.729e-8
0.255, -2.722e-8
0.256, -2.741e-8
0.257, -2.726e-8
0.258, -2.708e-8
0.259, -2.722e-8
0.260, -2.724e-8
0.261, -2.695e-8
0.262, -2.705e-8
0.263, -2.717e-8
0.264, -2.692e-8
0.265, -2.685e-8
0.266, -2.706e-8
0.267, -2.690e-8
0.268, -2.673e-8
0.269, -2.690e-8
0.270, -2.690e-8
0.271, -2.664e-8
0.272, -2.672e-8
0.273, -2.685e-8
0.274, -2.662e-8
0.275, -2.654e-8
0.276, -2.676e-8
0.277, -2.661e-8
0.278, -2.643e-8
0.279, -2.661e-8
0.280, -2.661e-8
0.281, -2.636e-8
0.282, -2.647e-8
0.283, -2.658e-8
0.284, -2.636e-8
0.285, -2.630e-8
0.286, -2.652e-8
0.287, -2.638e-8
0.288, -2.620e-8
0.289, -2.638e-8
0.290, -2.641e-8
0.291, -2.613e-8
0.292, -2.626e-8
0.293, -2.638e-8
0.294, -2.615e-8
0.295, -2.610e-8
0.296, -2.632e-8
0.297, -2.617e-8
0.298, -2.603e-8
0.299, -2.620e-8
0.300, -2.452e-8
0.299, -2.300e-8
0.298, -2.287e-8
0.297, -2.281e-8
0.296, -2.244e-8
0.295, -2.226e-8
0.294, -2.237e-8
0.293, -2.212e-8
0.292, -2.186e-8
0.291, -2.196e-8
0.290, -2.190e-8
0.289, -2.156e-8
0.288, -2.160e-8
0.287, -2.166e-8
0.286, -2.137e-8
0.285, -2.127e-8
0.284, -2.141e-8
0.283, -2.122e-8
0.282, -2.100e-8
0.281, -2.113e-8
0.280, -2.110e-8
0.279, -2.078e-8
0.278, -2.085e-8
0.277, -2.094e-8
0.276, -2.066e-8
0.275, -2.059e-8
0.274, -2.076e-8
0.273, -2.056e-8
0.272, -2.038e-8
0.271, -2.051e-8
0.270, -2.050e-8
0.269, -2.020e-8
0.268, -2.027e-8
0.267, -2.039e-8
0.266, -2.012e-8
0.265, -2.003e-8
0.264, -2.023e-8
0.263, -2.004e-8
0.262, -1.985e-8
0.261, -2.002e-8
0.260, -1.998e-8
0.259, -1.972e-8
0.258, -1.979e-8
0.257, -1.989e-8
0.256, -1.964e-8
0.255, -1.956e-8
0.254, -1.975e-8
0.253, -1.959e-8
0.252, -1.939e-8
0.251, -1.956e-8
0.250, -1.955e-8
0.249, -1.926e-8
0.248, -1.936e-8
0.247, -1.945e-8
0.246, -1.921e-8
0.245, -1.915e-8
0.244, -1.933e-8
0.243, -1.916e-8
0.242, -1.899e-8
0.241, -1.914e-8
0.240, -1.915e-8
0.239, -1.887e-8
0.238, -1.895e-8
0.237, -1.907e-8
0.236, -1.880e-8
0.235, -1.876e-8
0.234, -1.895e-8
0.233, -1.877e-8
0.232, -1.859e-8
0.231, -1.876e-8
0.230, -1.874e-8
0.229, -1.848e-8
0.228, -1.856e-8
0.227, -1.868e-8
0.226, -1.842e-8
0.225, -1.836e-8
0.224, -1.856e-8
0.223, -1.839e-8
0.222, -1.821e-8
0.221, -1.838e-8
0.220, -1.836e-8
0.219, -1.810e-8
0.218, -1.818e-8
0.217, -1.829e-8
0.216, -1.804e-8
0.215, -1.798e-8
0.214, -1.818e-8
0.213, -1.801e-8
0.212, -1.781e-8
0.211, -1.800e-8
0.210, -1.798e-8
0.209, -1.769e-8
0.208, -1.779e-8
0.207, -1.789e-8
0.206, -1.763e-8
0.205, -1.757e-8
0.204, -1.775e-8
0.203, -1.760e-8
0.202, -1.741e-8
0.201, -1.756e-8
0.200, -1.756e-8
0.199, -1.726e-8
0.198, -1.735e-8
0.197, -1.746e-8
0.196, -1.718e-8
0.195, -1.714e-8
0.194, -1.731e-8
0.193, -1.713e-8
0.192, -1.694e-8
0.191, -1.710e-8
0.190, -1.707e-8
0.189, -1.680e-8
0.188, -1.685e-8
0.187, -1.697e-8
0.186, -1.669e-8
0.185, -1.662e-8
0.184, -1.679e-8
0.183, -1.660e-8
0.182, -1.640e-8
0.181, -1.656e-8
0.180, -1.650e-8
0.179, -1.621e-8
0.178, -1.629e-8
0.177, -1.636e-8
0.176, -1.608e-8
0.175, -1.600e-8
0.174, -1.615e-8
0.173, -1.595e-8
0.172, -1.573e-8
0.171, -1.588e-8
0.170, -1.581e-8
0.169, -1.549e-8
0.168, -1.555e-8
0.167, -1.561e-8
0.166, -1.529e-8
0.165, -1.521e-8
0.164, -1.533e-8
0.163, -1.511e-8
0.162, -1.487e-8
0.161, -1.498e-8
0.160, -1.490e-8
0.159, -1.455e-8
0.158, -1.459e-8
0.157, -1.463e-8
0.156, -1.427e-8
0.155, -1.418e-8
0.154, -1.426e-8
0.153, -1.400e-8
0.152, -1.375e-8
0.151, -1.382e-8
0.150, -1.370e-8
0.149, -1.334e-8
0.148, -1.331e-8
0.147, -1.333e-8
0.146, -1.295e-8
0.145, -1.278e-8
0.144, -1.285e-8
0.143, -1.254e-8
0.142, -1.223e-8
0.141, -1.227e-8
0.140, -1.208e-8
0.139, -1.169e-8
0.138, -1.162e-8
0.137, -1.155e-8
0.136, -1.114e-8
0.135, -1.093e-8
0.134, -1.092e-8
0.133, -1.058e-8
0.132, -1.019e-8
0.131, -1.018e-8
0.130, -9.929e-9
0.129, -9.456e-9
0.128, -9.320e-9
0.127, -9.193e-9
0.126, -8.692e-9
0.125, -8.428e-9
0.124, -8.312e-9
0.123, -7.920e-9
0.122, -7.465e-9
0.121, -7.344e-9
0.120, -7.040e-9
0.119, -6.467e-9
0.118, -6.258e-9
0.117, -6.047e-9
0.116, -5.442e-9
0.115, -5.109e-9
0.114, -4.913e-9
0.113, -4.385e-9
0.112, -3.887e-9
0.111, -3.651e-9
0.110, -3.249e-9
0.109, -2.622e-9
0.108, -2.294e-9
0.107, -2.000e-9
0.106, -1.304e-9
0.105, -8.604e-10
0.104, -5.755e-10
0.103, 7.346e-11
0.102, 6.857e-10
0.101, 9.700e-10
0.100, 1.526e-9
0.099, 2.227e-9
0.098, 2.644e-9
0.097, 3.051e-9
0.096, 3.814e-9
0.095, 4.375e-9
0.094, 4.730e-9
0.093, 5.419e-9
0.092, 6.146e-9
0.091, 6.508e-9
0.090, 7.126e-9
0.089, 7.924e-9
0.088, 8.391e-9
0.087, 8.902e-9
0.086, 9.714e-9
0.085, 1.031e-8
0.084, 1.076e-8
0.083, 1.146e-8
0.082, 1.222e-8
0.081, 1.265e-8
0.080, 1.325e-8
0.079, 1.412e-8
0.078, 1.460e-8
0.077, 1.508e-8
0.076, 1.596e-8
0.075, 1.650e-8
0.074, 1.697e-8
0.073, 1.768e-8
0.072, 1.838e-8
0.071, 1.879e-8
0.070, 1.936e-8
0.069, 2.014e-8
0.068, 2.060e-8
0.067, 2.101e-8
0.066, 2.179e-8
0.065, 2.231e-8
0.064, 2.267e-8
0.063, 2.328e-8
0.062, 2.389e-8
0.061, 2.417e-8
0.060, 2.469e-8
0.059, 2.532e-8
0.058, 2.562e-8
0.057, 2.595e-8
0.056, 2.655e-8
0.055, 2.695e-8
0.054, 2.711e-8
0.053, 2.760e-8
0.052, 2.810e-8
0.051, 2.819e-8
0.050, 2.852e-8
0.049, 2.900e-8
0.048, 2.913e-8
0.047, 2.929e-8
0.046, 2.971e-8
0.045, 2.989e-8
0.044, 2.997e-8
0.043, 3.021e-8
0.042, 3.052e-8
0.041, 3.048e-8
0.040, 3.060e-8
0.039, 3.095e-8
0.038, 3.090e-8
0.037, 3.086e-8
0.036, 3.117e-8
0.035, 3.115e-8
0.034, 3.102e-8
0.033, 3.119e-8
0.032, 3.130e-8
0.031, 3.110e-8
0.030, 3.109e-8
0.029, 3.126e-8
0.028, 3.110e-8
0.027, 3.089e-8
0.026, 3.109e-8
0.025, 3.099e-8
0.024, 3.069e-8
0.023, 3.074e-8
0.022, 3.074e-8
0.021, 3.041e-8
0.020, 3.032e-8
0.019, 3.038e-8
0.018, 3.012e-8
0.017, 2.985e-8
0.016, 2.991e-8
0.015, 2.975e-8
0.014, 2.938e-8
0.013, 2.935e-8
0.012, 2.932e-8
0.011, 2.889e-8
0.010, 2.874e-8
0.009, 2.878e-8
0.008, 2.844e-8
0.007, 2.812e-8
0.006, 2.814e-8
0.005, 2.793e-8
0.004, 2.755e-8
0.003, 2.746e-8
0.002, 2.740e-8
0.001, 2.698e-8
0.000, 2.690e-8
-0.001, 2.684e-8
-0.002, 2.647e-8
-0.003, 2.612e-8
-0.004, 2.618e-8
-0.005, 2.591e-8
-0.006, 2.551e-8
-0.007, 2.545e-8
-0.008, 2.535e-8
-0.009, 2.495e-8
-0.010, 2.475e-8
-0.011, 2.476e-8
-0.012, 2.442e-8
-0.013, 2.407e-8
-0.014, 2.411e-8
-0.015, 2.390e-8
-0.016, 2.347e-8
-0.017, 2.344e-8
-0.018, 2.336e-8
-0.019, 2.295e-8
-0.020, 2.279e-8
-0.021, 2.279e-8
-0.022, 2.248e-8
-0.023, 2.216e-8
-0.024, 2.222e-8
-0.025, 2.201e-8
-0.026, 2.163e-8
-0.027, 2.159e-8
-0.028, 2.155e-8
-0.029, 2.113e-8
-0.030, 2.099e-8
-0.031, 2.104e-8
-0.032, 2.072e-8
-0.033, 2.043e-8
-0.034, 2.051e-8
-0.035, 2.031e-8
-0.036, 1.997e-8
-0.037, 1.995e-8
-0.038, 1.992e-8
-0.039, 1.955e-8
-0.040, 1.942e-8
-0.041, 1.949e-8
-0.042, 1.920e-8
-0.043, 1.891e-8
-0.044, 1.904e-8
-0.045, 1.884e-8
-0.046, 1.850e-8
-0.047, 1.853e-8
-0.048, 1.850e-8
-0.049, 1.815e-8
-0.050, 1.805e-8
-0.051, 1.813e-8
-0.052, 1.787e-8
-0.053, 1.761e-8
-0.054, 1.773e-8
-0.055, 1.758e-8
-0.056, 1.725e-8
-0.057, 1.728e-8
-0.058, 1.729e-8
-0.059, 1.695e-8
-0.060, 1.687e-8
-0.061, 1.696e-8
-0.062, 1.671e-8
-0.063, 1.648e-8
-0.064, 1.662e-8
-0.065, 1.648e-8
-0.066, 1.616e-8
-0.067, 1.621e-8
-0.068, 1.624e-8
-0.069, 1.591e-8
-0.070, 1.584e-8
-0.071, 1.596e-8
-0.072, 1.571e-8
-0.073, 1.550e-8
-0.074, 1.565e-8
-0.075, 1.553e-8
-0.076, 1.524e-8
-0.077, 1.530e-8
-0.078, 1.533e-8
-0.079, 1.503e-8
-0.080, 1.496e-8
-0.081, 1.510e-8
-0.082, 1.487e-8
-0.083, 1.466e-8
-0.084, 1.484e-8
-0.085, 1.471e-8
-0.086, 1.443e-8
-0.087, 1.452e-8
-0.088, 1.456e-8
-0.089, 1.427e-8
-0.090, 1.422e-8
-0.091, 1.435e-8
-0.092, 1.415e-8
-0.093, 1.394e-8
-0.094, 1.412e-8
-0.095, 1.403e-8
-0.096, 1.374e-8
-0.097, 1.384e-8
-0.098, 1.389e-8
-0.099, 1.360e-8
-0.100, 1.358e-8
-0.101, 1.372e-8
-0.102, 1.352e-8
-0.103, 1.333e-8
-0.104, 1.350e-8
-0.105, 1.342e-8
-0.106, 1.315e-8
-0.107, 1.325e-8
-0.108, 1.332e-8
-0.109, 1.303e-8
-0.110, 1.301e-8
-0.111, 1.317e-8
-0.112, 1.296e-8
-0.113, 1.279e-8
-0.114, 1.298e-8
-0.115, 1.289e-8
-0.116, 1.265e-8
-0.117, 1.274e-8
-0.118, 1.281e-8
-0.119, 1.255e-8
-0.120, 1.251e-8
-0.121, 1.268e-8
-0.122, 1.249e-8
-0.123, 1.232e-8
-0.124, 1.252e-8
-0.125, 1.243e-8
-0.126, 1.220e-8
-0.127, 1.231e-8
-0.128, 1.238e-8
-0.129, 1.212e-8
-0.130, 1.211e-8
-0.131, 1.227e-8
-0.132, 1.210e-8
-0.133, 1.192e-8
-0.134, 1.213e-8
-0.135, 1.205e-8
-0.136, 1.181e-8
-0.137, 1.193e-8
-0.138, 1.201e-8
-0.139, 1.173e-8
-0.140, 1.175e-8
-0.141, 1.191e-8
-0.142, 1.173e-8
-0.143, 1.157e-8
-0.144, 1.178e-8
-0.145, 1.171e-8
-0.146, 1.147e-8
-0.147, 1.158e-8
-0.148, 1.169e-8
-0.149, 1.141e-8
-0.150, 1.141e-8
-0.151, 1.160e-8
-0.152, 1.141e-8
-0.153, 1.126e-8
-0.154, 1.148e-8
-0.155, 1.140e-8
-0.156, 1.119e-8
-0.157, 1.129e-8
-0.158, 1.139e-8
-0.159, 1.114e-8
-0.160, 1.113e-8
-0.161, 1.133e-8
-0.162, 1.115e-8
-0.163, 1.099e-8
-0.164, 1.123e-8
-0.165, 1.114e-8
-0.166, 1.092e-8
-0.167, 1.106e-8
-0.168, 1.114e-8
-0.169, 1.089e-8
-0.170, 1.090e-8
-0.171, 1.108e-8
-0.172, 1.092e-8
-0.173, 1.076e-8
-0.174, 1.098e-8
-0.175, 1.093e-8
-0.176, 1.070e-8
-0.177, 1.084e-8
-0.178, 1.094e-8
-0.179, 1.068e-8
-0.180, 1.071e-8
-0.181, 1.088e-8
-0.182, 1.070e-8
-0.183, 1.058e-8
-0.184, 1.080e-8
-0.185, 1.075e-8
-0.186, 1.052e-8
-0.187, 1.066e-8
-0.188, 1.076e-8
-0.189, 1.050e-8
-0.190, 1.053e-8
-0.191, 1.072e-8
-0.192, 1.055e-8
-0.193, 1.042e-8
-0.194, 1.065e-8
-0.195, 1.057e-8
-0.196, 1.038e-8
-0.197, 1.051e-8
-0.198, 1.061e-8
-0.199, 1.037e-8
