Mar. 16, 2023   09:19:39
Cyclic Voltammetry
File: c:/users/oliverrz/desktop/electrolab/data/2023_03_16\fcmeoh_macros_500_um\electrode2_cv_150mvs_500_um.bin
Data Source:  Experiment
Instrument Model:  CHI760E
Header: CV
Note: 

Init E (V) = -0.2
High E (V) = 0.3
Low E (V) = -0.2
Final E (V) = -0.2
Init P/N = P
Scan Rate (V/s) = 0.15
Segment = 3
Sample Interval (V) = 0.001
Quiet Time (sec) = 2
Sensitivity (A/V) = 1e-7

Results:

Channel 1:
Segment 1:
Ep = 0.090V
ip = -3.740e-8A
Ah = -1.514e-8C

Segment 2:
Ep = 0.029V
ip = 3.564e-8A
Ah = 1.446e-8C

Segment 3:

Potential/V, Current/A

-0.200, 4.524e-9
-0.199, 4.064e-9
-0.198, 3.725e-9
-0.197, 3.649e-9
-0.196, 3.637e-9
-0.195, 3.356e-9
-0.194, 3.488e-9
-0.193, 3.252e-9
-0.192, 3.239e-9
-0.191, 3.243e-9
-0.190, 2.993e-9
-0.189, 3.168e-9
-0.188, 2.935e-9
-0.187, 2.940e-9
-0.186, 2.963e-9
-0.185, 2.712e-9
-0.184, 2.902e-9
-0.183, 2.681e-9
-0.182, 2.671e-9
-0.181, 2.727e-9
-0.180, 2.474e-9
-0.179, 2.645e-9
-0.178, 2.467e-9
-0.177, 2.444e-9
-0.176, 2.503e-9
-0.175, 2.276e-9
-0.174, 2.432e-9
-0.173, 2.251e-9
-0.172, 2.254e-9
-0.171, 2.294e-9
-0.170, 2.079e-9
-0.169, 2.239e-9
-0.168, 2.061e-9
-0.167, 2.065e-9
-0.166, 2.101e-9
-0.165, 1.888e-9
-0.164, 2.066e-9
-0.163, 1.877e-9
-0.162, 1.888e-9
-0.161, 1.922e-9
-0.160, 1.730e-9
-0.159, 1.898e-9
-0.158, 1.692e-9
-0.157, 1.729e-9
-0.156, 1.760e-9
-0.155, 1.547e-9
-0.154, 1.742e-9
-0.153, 1.529e-9
-0.152, 1.564e-9
-0.151, 1.620e-9
-0.150, 1.379e-9
-0.149, 1.589e-9
-0.148, 1.392e-9
-0.147, 1.402e-9
-0.146, 1.471e-9
-0.145, 1.242e-9
-0.144, 1.441e-9
-0.143, 1.247e-9
-0.142, 1.262e-9
-0.141, 1.316e-9
-0.140, 1.107e-9
-0.139, 1.300e-9
-0.138, 1.107e-9
-0.137, 1.127e-9
-0.136, 1.194e-9
-0.135, 9.737e-10
-0.134, 1.155e-9
-0.133, 9.865e-10
-0.132, 9.977e-10
-0.131, 1.048e-9
-0.130, 8.522e-10
-0.129, 1.020e-9
-0.128, 8.428e-10
-0.127, 8.752e-10
-0.126, 9.123e-10
-0.125, 7.254e-10
-0.124, 9.123e-10
-0.123, 7.113e-10
-0.122, 7.572e-10
-0.121, 7.977e-10
-0.120, 5.886e-10
-0.119, 7.909e-10
-0.118, 5.881e-10
-0.117, 6.285e-10
-0.116, 6.714e-10
-0.115, 4.648e-10
-0.114, 6.710e-10
-0.113, 4.584e-10
-0.112, 5.155e-10
-0.111, 5.599e-10
-0.110, 3.408e-10
-0.109, 5.535e-10
-0.108, 3.451e-10
-0.107, 3.857e-10
-0.106, 4.550e-10
-0.105, 2.202e-10
-0.104, 4.315e-10
-0.103, 2.331e-10
-0.102, 2.574e-10
-0.101, 3.180e-10
-0.100, 1.176e-10
-0.099, 2.962e-10
-0.098, 1.213e-10
-0.097, 1.426e-10
-0.096, 2.067e-10
-0.095, -1.244e-12
-0.094, 1.841e-10
-0.093, -4.200e-12
-0.092, 2.514e-11
-0.091, 7.570e-11
-0.090, -1.262e-10
-0.089, 4.813e-11
-0.088, -1.208e-10
-0.087, -9.585e-11
-0.086, -6.237e-11
-0.085, -2.509e-10
-0.084, -7.515e-11
-0.083, -2.636e-10
-0.082, -2.230e-10
-0.081, -1.973e-10
-0.080, -3.943e-10
-0.079, -1.989e-10
-0.078, -4.151e-10
-0.077, -3.786e-10
-0.076, -3.335e-10
-0.075, -5.544e-10
-0.074, -3.559e-10
-0.073, -5.644e-10
-0.072, -5.228e-10
-0.071, -4.915e-10
-0.070, -7.125e-10
-0.069, -5.196e-10
-0.068, -7.344e-10
-0.067, -6.990e-10
-0.066, -6.639e-10
-0.065, -8.964e-10
-0.064, -7.082e-10
-0.063, -9.108e-10
-0.062, -9.019e-10
-0.061, -8.529e-10
-0.060, -1.093e-9
-0.059, -9.068e-10
-0.058, -1.113e-9
-0.057, -1.120e-9
-0.056, -1.078e-9
-0.055, -1.300e-9
-0.054, -1.151e-9
-0.053, -1.352e-9
-0.052, -1.349e-9
-0.051, -1.340e-9
-0.050, -1.567e-9
-0.049, -1.410e-9
-0.048, -1.631e-9
-0.047, -1.626e-9
-0.046, -1.631e-9
-0.045, -1.864e-9
-0.044, -1.713e-9
-0.043, -1.947e-9
-0.042, -1.951e-9
-0.041, -1.974e-9
-0.040, -2.201e-9
-0.039, -2.068e-9
-0.038, -2.333e-9
-0.037, -2.317e-9
-0.036, -2.362e-9
-0.035, -2.611e-9
-0.034, -2.479e-9
-0.033, -2.758e-9
-0.032, -2.767e-9
-0.031, -2.800e-9
-0.030, -3.102e-9
-0.029, -2.962e-9
-0.028, -3.256e-9
-0.027, -3.301e-9
-0.026, -3.355e-9
-0.025, -3.643e-9
-0.024, -3.539e-9
-0.023, -3.834e-9
-0.022, -3.905e-9
-0.021, -3.976e-9
-0.020, -4.287e-9
-0.019, -4.204e-9
-0.018, -4.531e-9
-0.017, -4.636e-9
-0.016, -4.702e-9
-0.015, -5.050e-9
-0.014, -5.016e-9
-0.013, -5.345e-9
-0.012, -5.466e-9
-0.011, -5.588e-9
-0.010, -5.934e-9
-0.009, -5.950e-9
-0.008, -6.292e-9
-0.007, -6.436e-9
-0.006, -6.612e-9
-0.005, -6.982e-9
-0.004, -7.011e-9
-0.003, -7.417e-9
-0.002, -7.593e-9
-0.001, -7.805e-9
-0.000, -8.338e-9
0.001, -8.302e-9
0.002, -8.757e-9
0.003, -8.949e-9
0.004, -9.180e-9
0.005, -9.637e-9
0.006, -9.720e-9
0.007, -1.023e-8
0.008, -1.045e-8
0.009, -1.074e-8
0.010, -1.125e-8
0.011, -1.137e-8
0.012, -1.192e-8
0.013, -1.219e-8
0.014, -1.250e-8
0.015, -1.308e-8
0.016, -1.322e-8
0.017, -1.379e-8
0.018, -1.415e-8
0.019, -1.448e-8
0.020, -1.509e-8
0.021, -1.531e-8
0.022, -1.590e-8
0.023, -1.631e-8
0.024, -1.670e-8
0.025, -1.732e-8
0.026, -1.760e-8
0.027, -1.824e-8
0.028, -1.865e-8
0.029, -1.909e-8
0.030, -1.973e-8
0.031, -2.005e-8
0.032, -2.068e-8
0.033, -2.115e-8
0.034, -2.164e-8
0.035, -2.227e-8
0.036, -2.264e-8
0.037, -2.331e-8
0.038, -2.378e-8
0.039, -2.433e-8
0.040, -2.494e-8
0.041, -2.530e-8
0.042, -2.602e-8
0.043, -2.646e-8
0.044, -2.698e-8
0.045, -2.764e-8
0.046, -2.795e-8
0.047, -2.869e-8
0.048, -2.912e-8
0.049, -2.960e-8
0.050, -3.028e-8
0.051, -3.061e-8
0.052, -3.129e-8
0.053, -3.171e-8
0.054, -3.217e-8
0.055, -3.280e-8
0.056, -3.306e-8
0.057, -3.370e-8
0.058, -3.410e-8
0.059, -3.447e-8
0.060, -3.508e-8
0.061, -3.528e-8
0.062, -3.585e-8
0.063, -3.623e-8
0.064, -3.654e-8
0.065, -3.707e-8
0.066, -3.725e-8
0.067, -3.772e-8
0.068, -3.801e-8
0.069, -3.828e-8
0.070, -3.869e-8
0.071, -3.884e-8
0.072, -3.925e-8
0.073, -3.941e-8
0.074, -3.964e-8
0.075, -4.000e-8
0.076, -4.004e-8
0.077, -4.037e-8
0.078, -4.049e-8
0.079, -4.065e-8
0.080, -4.088e-8
0.081, -4.085e-8
0.082, -4.112e-8
0.083, -4.115e-8
0.084, -4.123e-8
0.085, -4.143e-8
0.086, -4.128e-8
0.087, -4.154e-8
0.088, -4.143e-8
0.089, -4.148e-8
0.090, -4.164e-8
0.091, -4.141e-8
0.092, -4.159e-8
0.093, -4.149e-8
0.094, -4.138e-8
0.095, -4.154e-8
0.096, -4.125e-8
0.097, -4.135e-8
0.098, -4.123e-8
0.099, -4.110e-8
0.100, -4.115e-8
0.101, -4.087e-8
0.102, -4.095e-8
0.103, -4.076e-8
0.104, -4.059e-8
0.105, -4.063e-8
0.106, -4.030e-8
0.107, -4.033e-8
0.108, -4.012e-8
0.109, -3.992e-8
0.110, -3.993e-8
0.111, -3.961e-8
0.112, -3.956e-8
0.113, -3.936e-8
0.114, -3.917e-8
0.115, -3.914e-8
0.116, -3.878e-8
0.117, -3.878e-8
0.118, -3.851e-8
0.119, -3.833e-8
0.120, -3.829e-8
0.121, -3.789e-8
0.122, -3.793e-8
0.123, -3.765e-8
0.124, -3.743e-8
0.125, -3.742e-8
0.126, -3.703e-8
0.127, -3.704e-8
0.128, -3.677e-8
0.129, -3.657e-8
0.130, -3.654e-8
0.131, -3.616e-8
0.132, -3.618e-8
0.133, -3.590e-8
0.134, -3.570e-8
0.135, -3.570e-8
0.136, -3.528e-8
0.137, -3.531e-8
0.138, -3.508e-8
0.139, -3.484e-8
0.140, -3.486e-8
0.141, -3.449e-8
0.142, -3.449e-8
0.143, -3.427e-8
0.144, -3.406e-8
0.145, -3.404e-8
0.146, -3.371e-8
0.147, -3.371e-8
0.148, -3.347e-8
0.149, -3.331e-8
0.150, -3.331e-8
0.151, -3.295e-8
0.152, -3.299e-8
0.153, -3.277e-8
0.154, -3.259e-8
0.155, -3.261e-8
0.156, -3.228e-8
0.157, -3.231e-8
0.158, -3.210e-8
0.159, -3.194e-8
0.160, -3.195e-8
0.161, -3.163e-8
0.162, -3.169e-8
0.163, -3.146e-8
0.164, -3.132e-8
0.165, -3.136e-8
0.166, -3.102e-8
0.167, -3.112e-8
0.168, -3.089e-8
0.169, -3.074e-8
0.170, -3.081e-8
0.171, -3.047e-8
0.172, -3.056e-8
0.173, -3.037e-8
0.174, -3.023e-8
0.175, -3.029e-8
0.176, -2.997e-8
0.177, -3.007e-8
0.178, -2.989e-8
0.179, -2.977e-8
0.180, -2.983e-8
0.181, -2.952e-8
0.182, -2.963e-8
0.183, -2.946e-8
0.184, -2.932e-8
0.185, -2.941e-8
0.186, -2.913e-8
0.187, -2.921e-8
0.188, -2.906e-8
0.189, -2.895e-8
0.190, -2.902e-8
0.191, -2.877e-8
0.192, -2.887e-8
0.193, -2.869e-8
0.194, -2.862e-8
0.195, -2.869e-8
0.196, -2.841e-8
0.197, -2.854e-8
0.198, -2.838e-8
0.199, -2.830e-8
0.200, -2.838e-8
0.201, -2.811e-8
0.202, -2.826e-8
0.203, -2.810e-8
0.204, -2.802e-8
0.205, -2.812e-8
0.206, -2.785e-8
0.207, -2.800e-8
0.208, -2.783e-8
0.209, -2.778e-8
0.210, -2.788e-8
0.211, -2.760e-8
0.212, -2.777e-8
0.213, -2.763e-8
0.214, -2.754e-8
0.215, -2.767e-8
0.216, -2.740e-8
0.217, -2.756e-8
0.218, -2.744e-8
0.219, -2.736e-8
0.220, -2.747e-8
0.221, -2.723e-8
0.222, -2.738e-8
0.223, -2.726e-8
0.224, -2.719e-8
0.225, -2.731e-8
0.226, -2.708e-8
0.227, -2.723e-8
0.228, -2.711e-8
0.229, -2.705e-8
0.230, -2.718e-8
0.231, -2.695e-8
0.232, -2.711e-8
0.233, -2.698e-8
0.234, -2.694e-8
0.235, -2.706e-8
0.236, -2.684e-8
0.237, -2.700e-8
0.238, -2.688e-8
0.239, -2.685e-8
0.240, -2.696e-8
0.241, -2.674e-8
0.242, -2.693e-8
0.243, -2.680e-8
0.244, -2.676e-8
0.245, -2.690e-8
0.246, -2.666e-8
0.247, -2.685e-8
0.248, -2.672e-8
0.249, -2.668e-8
0.250, -2.684e-8
0.251, -2.659e-8
0.252, -2.679e-8
0.253, -2.667e-8
0.254, -2.664e-8
0.255, -2.680e-8
0.256, -2.656e-8
0.257, -2.675e-8
0.258, -2.666e-8
0.259, -2.661e-8
0.260, -2.676e-8
0.261, -2.656e-8
0.262, -2.673e-8
0.263, -2.664e-8
0.264, -2.659e-8
0.265, -2.675e-8
0.266, -2.654e-8
0.267, -2.672e-8
0.268, -2.663e-8
0.269, -2.662e-8
0.270, -2.674e-8
0.271, -2.656e-8
0.272, -2.674e-8
0.273, -2.663e-8
0.274, -2.663e-8
0.275, -2.677e-8
0.276, -2.657e-8
0.277, -2.677e-8
0.278, -2.666e-8
0.279, -2.667e-8
0.280, -2.680e-8
0.281, -2.661e-8
0.282, -2.681e-8
0.283, -2.671e-8
0.284, -2.670e-8
0.285, -2.686e-8
0.286, -2.665e-8
0.287, -2.687e-8
0.288, -2.676e-8
0.289, -2.675e-8
0.290, -2.694e-8
0.291, -2.671e-8
0.292, -2.693e-8
0.293, -2.684e-8
0.294, -2.684e-8
0.295, -2.701e-8
0.296, -2.680e-8
0.297, -2.700e-8
0.298, -2.693e-8
0.299, -2.692e-8
0.300, -2.466e-8
0.299, -2.287e-8
0.298, -2.260e-8
0.297, -2.212e-8
0.296, -2.183e-8
0.295, -2.171e-8
0.294, -2.126e-8
0.293, -2.125e-8
0.292, -2.093e-8
0.291, -2.074e-8
0.290, -2.071e-8
0.289, -2.033e-8
0.288, -2.038e-8
0.287, -2.011e-8
0.286, -1.997e-8
0.285, -1.999e-8
0.284, -1.962e-8
0.283, -1.971e-8
0.282, -1.948e-8
0.281, -1.933e-8
0.280, -1.938e-8
0.279, -1.907e-8
0.278, -1.915e-8
0.277, -1.896e-8
0.276, -1.883e-8
0.275, -1.889e-8
0.274, -1.859e-8
0.273, -1.869e-8
0.272, -1.849e-8
0.271, -1.840e-8
0.270, -1.845e-8
0.269, -1.816e-8
0.268, -1.827e-8
0.267, -1.810e-8
0.266, -1.802e-8
0.265, -1.807e-8
0.264, -1.781e-8
0.263, -1.792e-8
0.262, -1.775e-8
0.261, -1.767e-8
0.260, -1.772e-8
0.259, -1.748e-8
0.258, -1.761e-8
0.257, -1.741e-8
0.256, -1.736e-8
0.255, -1.743e-8
0.254, -1.715e-8
0.253, -1.730e-8
0.252, -1.712e-8
0.251, -1.707e-8
0.250, -1.716e-8
0.249, -1.688e-8
0.248, -1.703e-8
0.247, -1.686e-8
0.246, -1.680e-8
0.245, -1.689e-8
0.244, -1.662e-8
0.243, -1.678e-8
0.242, -1.661e-8
0.241, -1.655e-8
0.240, -1.664e-8
0.239, -1.638e-8
0.238, -1.654e-8
0.237, -1.638e-8
0.236, -1.631e-8
0.235, -1.642e-8
0.234, -1.616e-8
0.233, -1.629e-8
0.232, -1.615e-8
0.231, -1.609e-8
0.230, -1.618e-8
0.229, -1.595e-8
0.228, -1.607e-8
0.227, -1.593e-8
0.226, -1.588e-8
0.225, -1.596e-8
0.224, -1.573e-8
0.223, -1.588e-8
0.222, -1.571e-8
0.221, -1.568e-8
0.220, -1.575e-8
0.219, -1.552e-8
0.218, -1.567e-8
0.217, -1.550e-8
0.216, -1.547e-8
0.215, -1.555e-8
0.214, -1.530e-8
0.213, -1.547e-8
0.212, -1.529e-8
0.211, -1.526e-8
0.210, -1.535e-8
0.209, -1.509e-8
0.208, -1.527e-8
0.207, -1.509e-8
0.206, -1.504e-8
0.205, -1.514e-8
0.204, -1.488e-8
0.203, -1.504e-8
0.202, -1.489e-8
0.201, -1.482e-8
0.200, -1.493e-8
0.199, -1.467e-8
0.198, -1.483e-8
0.197, -1.467e-8
0.196, -1.461e-8
0.195, -1.471e-8
0.194, -1.445e-8
0.193, -1.460e-8
0.192, -1.443e-8
0.191, -1.439e-8
0.190, -1.447e-8
0.189, -1.422e-8
0.188, -1.435e-8
0.187, -1.421e-8
0.186, -1.415e-8
0.185, -1.421e-8
0.184, -1.397e-8
0.183, -1.412e-8
0.182, -1.394e-8
0.181, -1.389e-8
0.180, -1.394e-8
0.179, -1.369e-8
0.178, -1.385e-8
0.177, -1.365e-8
0.176, -1.360e-8
0.175, -1.367e-8
0.174, -1.340e-8
0.173, -1.354e-8
0.172, -1.334e-8
0.171, -1.329e-8
0.170, -1.335e-8
0.169, -1.308e-8
0.168, -1.321e-8
0.167, -1.300e-8
0.166, -1.294e-8
0.165, -1.298e-8
0.164, -1.269e-8
0.163, -1.284e-8
0.162, -1.261e-8
0.161, -1.253e-8
0.160, -1.259e-8
0.159, -1.227e-8
0.158, -1.239e-8
0.157, -1.219e-8
0.156, -1.207e-8
0.155, -1.211e-8
0.154, -1.181e-8
0.153, -1.189e-8
0.152, -1.167e-8
0.151, -1.157e-8
0.150, -1.155e-8
0.149, -1.127e-8
0.148, -1.133e-8
0.147, -1.110e-8
0.146, -1.097e-8
0.145, -1.096e-8
0.144, -1.063e-8
0.143, -1.068e-8
0.142, -1.042e-8
0.141, -1.028e-8
0.140, -1.024e-8
0.139, -9.915e-9
0.138, -9.933e-9
0.137, -9.633e-9
0.136, -9.506e-9
0.135, -9.426e-9
0.134, -9.050e-9
0.133, -9.081e-9
0.132, -8.731e-9
0.131, -8.578e-9
0.130, -8.504e-9
0.129, -8.056e-9
0.128, -8.059e-9
0.127, -7.714e-9
0.126, -7.489e-9
0.125, -7.389e-9
0.124, -6.930e-9
0.123, -6.898e-9
0.122, -6.522e-9
0.121, -6.262e-9
0.120, -6.119e-9
0.119, -5.643e-9
0.118, -5.571e-9
0.117, -5.140e-9
0.116, -4.850e-9
0.115, -4.683e-9
0.114, -4.152e-9
0.113, -4.023e-9
0.112, -3.597e-9
0.111, -3.255e-9
0.110, -3.025e-9
0.109, -2.501e-9
0.108, -2.286e-9
0.107, -1.823e-9
0.106, -1.461e-9
0.105, -1.146e-9
0.104, -5.923e-10
0.103, -3.641e-10
0.102, 1.977e-10
0.101, 5.685e-10
0.100, 9.164e-10
0.099, 1.535e-9
0.098, 1.787e-9
0.097, 2.377e-9
0.096, 2.806e-9
0.095, 3.172e-9
0.094, 3.821e-9
0.093, 4.131e-9
0.092, 4.774e-9
0.091, 5.180e-9
0.090, 5.626e-9
0.089, 6.329e-9
0.088, 6.628e-9
0.087, 7.295e-9
0.086, 7.769e-9
0.085, 8.178e-9
0.084, 8.952e-9
0.083, 9.240e-9
0.082, 9.917e-9
0.081, 1.048e-8
0.080, 1.087e-8
0.079, 1.161e-8
0.078, 1.198e-8
0.077, 1.262e-8
0.076, 1.318e-8
0.075, 1.358e-8
0.074, 1.429e-8
0.073, 1.466e-8
0.072, 1.530e-8
0.071, 1.581e-8
0.070, 1.624e-8
0.069, 1.693e-8
0.068, 1.729e-8
0.067, 1.787e-8
0.066, 1.838e-8
0.065, 1.877e-8
0.064, 1.941e-8
0.063, 1.973e-8
0.062, 2.029e-8
0.061, 2.071e-8
0.060, 2.110e-8
0.059, 2.164e-8
0.058, 2.191e-8
0.057, 2.246e-8
0.056, 2.279e-8
0.055, 2.310e-8
0.054, 2.362e-8
0.053, 2.379e-8
0.052, 2.430e-8
0.051, 2.457e-8
0.050, 2.477e-8
0.049, 2.527e-8
0.048, 2.533e-8
0.047, 2.573e-8
0.046, 2.595e-8
0.045, 2.608e-8
0.044, 2.651e-8
0.043, 2.650e-8
0.042, 2.681e-8
0.041, 2.697e-8
0.040, 2.701e-8
0.039, 2.738e-8
0.038, 2.730e-8
0.037, 2.752e-8
0.036, 2.766e-8
0.035, 2.758e-8
0.034, 2.785e-8
0.033, 2.776e-8
0.032, 2.788e-8
0.031, 2.792e-8
0.030, 2.784e-8
0.029, 2.802e-8
0.028, 2.787e-8
0.027, 2.796e-8
0.026, 2.791e-8
0.025, 2.782e-8
0.024, 2.793e-8
0.023, 2.770e-8
0.022, 2.777e-8
0.021, 2.766e-8
0.020, 2.752e-8
0.019, 2.757e-8
0.018, 2.732e-8
0.017, 2.737e-8
0.016, 2.720e-8
0.015, 2.704e-8
0.014, 2.707e-8
0.013, 2.676e-8
0.012, 2.681e-8
0.011, 2.661e-8
0.010, 2.639e-8
0.009, 2.645e-8
0.008, 2.609e-8
0.007, 2.610e-8
0.006, 2.591e-8
0.005, 2.565e-8
0.004, 2.571e-8
0.003, 2.534e-8
0.002, 2.533e-8
0.001, 2.515e-8
0.000, 2.500e-8
-0.001, 2.495e-8
-0.002, 2.457e-8
-0.003, 2.453e-8
-0.004, 2.436e-8
-0.005, 2.407e-8
-0.006, 2.409e-8
-0.007, 2.373e-8
-0.008, 2.370e-8
-0.009, 2.351e-8
-0.010, 2.324e-8
-0.011, 2.327e-8
-0.012, 2.292e-8
-0.013, 2.289e-8
-0.014, 2.269e-8
-0.015, 2.245e-8
-0.016, 2.246e-8
-0.017, 2.211e-8
-0.018, 2.210e-8
-0.019, 2.190e-8
-0.020, 2.168e-8
-0.021, 2.169e-8
-0.022, 2.133e-8
-0.023, 2.135e-8
-0.024, 2.116e-8
-0.025, 2.091e-8
-0.026, 2.097e-8
-0.027, 2.061e-8
-0.028, 2.063e-8
-0.029, 2.043e-8
-0.030, 2.021e-8
-0.031, 2.026e-8
-0.032, 1.992e-8
-0.033, 1.995e-8
-0.034, 1.978e-8
-0.035, 1.954e-8
-0.036, 1.962e-8
-0.037, 1.927e-8
-0.038, 1.931e-8
-0.039, 1.917e-8
-0.040, 1.893e-8
-0.041, 1.901e-8
-0.042, 1.868e-8
-0.043, 1.871e-8
-0.044, 1.858e-8
-0.045, 1.836e-8
-0.046, 1.844e-8
-0.047, 1.813e-8
-0.048, 1.817e-8
-0.049, 1.804e-8
-0.050, 1.785e-8
-0.051, 1.794e-8
-0.052, 1.764e-8
-0.053, 1.767e-8
-0.054, 1.755e-8
-0.055, 1.736e-8
-0.056, 1.745e-8
-0.057, 1.716e-8
-0.058, 1.722e-8
-0.059, 1.709e-8
-0.060, 1.693e-8
-0.061, 1.702e-8
-0.062, 1.672e-8
-0.063, 1.681e-8
-0.064, 1.669e-8
-0.065, 1.651e-8
-0.066, 1.663e-8
-0.067, 1.633e-8
-0.068, 1.643e-8
-0.069, 1.630e-8
-0.070, 1.613e-8
-0.071, 1.627e-8
-0.072, 1.598e-8
-0.073, 1.607e-8
-0.074, 1.596e-8
-0.075, 1.580e-8
-0.076, 1.595e-8
-0.077, 1.566e-8
-0.078, 1.575e-8
-0.079, 1.567e-8
-0.080, 1.550e-8
-0.081, 1.564e-8
-0.082, 1.538e-8
-0.083, 1.547e-8
-0.084, 1.539e-8
-0.085, 1.523e-8
-0.086, 1.537e-8
-0.087, 1.513e-8
-0.088, 1.522e-8
-0.089, 1.513e-8
-0.090, 1.501e-8
-0.091, 1.513e-8
-0.092, 1.489e-8
-0.093, 1.500e-8
-0.094, 1.491e-8
-0.095, 1.478e-8
-0.096, 1.493e-8
-0.097, 1.468e-8
-0.098, 1.480e-8
-0.099, 1.471e-8
-0.100, 1.460e-8
-0.101, 1.474e-8
-0.102, 1.451e-8
-0.103, 1.463e-8
-0.104, 1.454e-8
-0.105, 1.444e-8
-0.106, 1.459e-8
-0.107, 1.434e-8
-0.108, 1.449e-8
-0.109, 1.439e-8
-0.110, 1.429e-8
-0.111, 1.446e-8
-0.112, 1.420e-8
-0.113, 1.435e-8
-0.114, 1.427e-8
-0.115, 1.417e-8
-0.116, 1.434e-8
-0.117, 1.409e-8
-0.118, 1.423e-8
-0.119, 1.417e-8
-0.120, 1.406e-8
-0.121, 1.423e-8
-0.122, 1.401e-8
-0.123, 1.414e-8
-0.124, 1.410e-8
-0.125, 1.397e-8
-0.126, 1.415e-8
-0.127, 1.393e-8
-0.128, 1.408e-8
-0.129, 1.402e-8
-0.130, 1.392e-8
-0.131, 1.409e-8
-0.132, 1.389e-8
-0.133, 1.402e-8
-0.134, 1.396e-8
-0.135, 1.388e-8
-0.136, 1.405e-8
-0.137, 1.383e-8
-0.138, 1.400e-8
-0.139, 1.393e-8
-0.140, 1.386e-8
-0.141, 1.403e-8
-0.142, 1.381e-8
-0.143, 1.399e-8
-0.144, 1.391e-8
-0.145, 1.384e-8
-0.146, 1.402e-8
-0.147, 1.381e-8
-0.148, 1.399e-8
-0.149, 1.391e-8
-0.150, 1.384e-8
-0.151, 1.404e-8
-0.152, 1.382e-8
-0.153, 1.400e-8
-0.154, 1.394e-8
-0.155, 1.386e-8
-0.156, 1.407e-8
-0.157, 1.385e-8
-0.158, 1.402e-8
-0.159, 1.399e-8
-0.160, 1.390e-8
-0.161, 1.409e-8
-0.162, 1.390e-8
-0.163, 1.407e-8
-0.164, 1.404e-8
-0.165, 1.396e-8
-0.166, 1.415e-8
-0.167, 1.397e-8
-0.168, 1.414e-8
-0.169, 1.410e-8
-0.170, 1.404e-8
-0.171, 1.423e-8
-0.172, 1.404e-8
-0.173, 1.421e-8
-0.174, 1.418e-8
-0.175, 1.413e-8
-0.176, 1.431e-8
-0.177, 1.414e-8
-0.178, 1.432e-8
-0.179, 1.428e-8
-0.180, 1.424e-8
-0.181, 1.442e-8
-0.182, 1.423e-8
-0.183, 1.445e-8
-0.184, 1.439e-8
-0.185, 1.435e-8
-0.186, 1.456e-8
-0.187, 1.437e-8
-0.188, 1.457e-8
-0.189, 1.452e-8
-0.190, 1.449e-8
-0.191, 1.470e-8
-0.192, 1.452e-8
-0.193, 1.471e-8
-0.194, 1.469e-8
-0.195, 1.464e-8
-0.196, 1.486e-8
-0.197, 1.467e-8
-0.198, 1.487e-8
-0.199, 1.486e-8
