Mar. 16, 2023   09:24:45
Cyclic Voltammetry
File: c:/users/oliverrz/desktop/electrolab/data/2023_03_16\fcmeoh_macros_500_um\electrode6_cv_100mvs_500_um.bin
Data Source:  Experiment
Instrument Model:  CHI760E
Header: CV
Note: 

Init E (V) = -0.2
High E (V) = 0.3
Low E (V) = -0.2
Final E (V) = -0.2
Init P/N = P
Scan Rate (V/s) = 0.1
Segment = 3
Sample Interval (V) = 0.001
Quiet Time (sec) = 2
Sensitivity (A/V) = 1e-7

Results:

Channel 1:
Segment 1:
Ep = 0.133V
ip = -2.586e-8A
Ah = -1.492e-8C

Segment 2:
Ep = 0.063V
ip = 2.448e-8A
Ah = 1.494e-8C

Segment 3:

Potential/V, Current/A

-0.200, 2.049e-8
-0.199, 1.945e-8
-0.198, 1.902e-8
-0.197, 1.872e-8
-0.196, 1.851e-8
-0.195, 1.827e-8
-0.194, 1.807e-8
-0.193, 1.788e-8
-0.192, 1.766e-8
-0.191, 1.750e-8
-0.190, 1.729e-8
-0.189, 1.713e-8
-0.188, 1.695e-8
-0.187, 1.676e-8
-0.186, 1.662e-8
-0.185, 1.642e-8
-0.184, 1.627e-8
-0.183, 1.611e-8
-0.182, 1.592e-8
-0.181, 1.580e-8
-0.180, 1.560e-8
-0.179, 1.547e-8
-0.178, 1.532e-8
-0.177, 1.514e-8
-0.176, 1.503e-8
-0.175, 1.485e-8
-0.174, 1.472e-8
-0.173, 1.458e-8
-0.172, 1.441e-8
-0.171, 1.431e-8
-0.170, 1.413e-8
-0.169, 1.401e-8
-0.168, 1.388e-8
-0.167, 1.371e-8
-0.166, 1.361e-8
-0.165, 1.345e-8
-0.164, 1.333e-8
-0.163, 1.321e-8
-0.162, 1.306e-8
-0.161, 1.296e-8
-0.160, 1.281e-8
-0.159, 1.269e-8
-0.158, 1.257e-8
-0.157, 1.242e-8
-0.156, 1.233e-8
-0.155, 1.219e-8
-0.154, 1.208e-8
-0.153, 1.196e-8
-0.152, 1.182e-8
-0.151, 1.174e-8
-0.150, 1.159e-8
-0.149, 1.149e-8
-0.148, 1.137e-8
-0.147, 1.124e-8
-0.146, 1.116e-8
-0.145, 1.101e-8
-0.144, 1.092e-8
-0.143, 1.082e-8
-0.142, 1.069e-8
-0.141, 1.061e-8
-0.140, 1.046e-8
-0.139, 1.038e-8
-0.138, 1.028e-8
-0.137, 1.014e-8
-0.136, 1.008e-8
-0.135, 9.947e-9
-0.134, 9.856e-9
-0.133, 9.762e-9
-0.132, 9.632e-9
-0.131, 9.574e-9
-0.130, 9.444e-9
-0.129, 9.350e-9
-0.128, 9.262e-9
-0.127, 9.133e-9
-0.126, 9.074e-9
-0.125, 8.958e-9
-0.124, 8.863e-9
-0.123, 8.784e-9
-0.122, 8.655e-9
-0.121, 8.597e-9
-0.120, 8.480e-9
-0.119, 8.390e-9
-0.118, 8.307e-9
-0.117, 8.193e-9
-0.116, 8.131e-9
-0.115, 8.015e-9
-0.114, 7.938e-9
-0.113, 7.855e-9
-0.112, 7.749e-9
-0.111, 7.690e-9
-0.110, 7.578e-9
-0.109, 7.501e-9
-0.108, 7.420e-9
-0.107, 7.315e-9
-0.106, 7.263e-9
-0.105, 7.150e-9
-0.104, 7.086e-9
-0.103, 6.998e-9
-0.102, 6.886e-9
-0.101, 6.843e-9
-0.100, 6.727e-9
-0.099, 6.669e-9
-0.098, 6.593e-9
-0.097, 6.479e-9
-0.096, 6.446e-9
-0.095, 6.335e-9
-0.094, 6.264e-9
-0.093, 6.201e-9
-0.092, 6.092e-9
-0.091, 6.055e-9
-0.090, 5.943e-9
-0.089, 5.869e-9
-0.088, 5.813e-9
-0.087, 5.703e-9
-0.086, 5.668e-9
-0.085, 5.571e-9
-0.084, 5.496e-9
-0.083, 5.438e-9
-0.082, 5.334e-9
-0.081, 5.294e-9
-0.080, 5.197e-9
-0.079, 5.127e-9
-0.078, 5.069e-9
-0.077, 4.967e-9
-0.076, 4.924e-9
-0.075, 4.837e-9
-0.074, 4.774e-9
-0.073, 4.710e-9
-0.072, 4.615e-9
-0.071, 4.577e-9
-0.070, 4.481e-9
-0.069, 4.424e-9
-0.068, 4.365e-9
-0.067, 4.270e-9
-0.066, 4.232e-9
-0.065, 4.132e-9
-0.064, 4.076e-9
-0.063, 4.021e-9
-0.062, 3.928e-9
-0.061, 3.895e-9
-0.060, 3.800e-9
-0.059, 3.746e-9
-0.058, 3.689e-9
-0.057, 3.590e-9
-0.056, 3.566e-9
-0.055, 3.468e-9
-0.054, 3.412e-9
-0.053, 3.363e-9
-0.052, 3.256e-9
-0.051, 3.232e-9
-0.050, 3.140e-9
-0.049, 3.079e-9
-0.048, 3.033e-9
-0.047, 2.936e-9
-0.046, 2.907e-9
-0.045, 2.819e-9
-0.044, 2.759e-9
-0.043, 2.713e-9
-0.042, 2.615e-9
-0.041, 2.584e-9
-0.040, 2.498e-9
-0.039, 2.439e-9
-0.038, 2.389e-9
-0.037, 2.297e-9
-0.036, 2.265e-9
-0.035, 2.185e-9
-0.034, 2.124e-9
-0.033, 2.070e-9
-0.032, 1.980e-9
-0.031, 1.949e-9
-0.030, 1.859e-9
-0.029, 1.804e-9
-0.028, 1.748e-9
-0.027, 1.658e-9
-0.026, 1.620e-9
-0.025, 1.525e-9
-0.024, 1.474e-9
-0.023, 1.420e-9
-0.022, 1.324e-9
-0.021, 1.296e-9
-0.020, 1.203e-9
-0.019, 1.150e-9
-0.018, 1.091e-9
-0.017, 9.861e-10
-0.016, 9.610e-10
-0.015, 8.592e-10
-0.014, 7.968e-10
-0.013, 7.431e-10
-0.012, 6.339e-10
-0.011, 6.087e-10
-0.010, 4.968e-10
-0.009, 4.321e-10
-0.008, 3.828e-10
-0.007, 2.690e-10
-0.006, 2.305e-10
-0.005, 1.308e-10
-0.004, 5.476e-11
-0.003, 1.693e-12
-0.002, -1.091e-10
-0.001, -1.564e-10
-0.000, -3.137e-10
0.001, -3.713e-10
0.002, -4.249e-10
0.003, -5.349e-10
0.004, -5.876e-10
0.005, -6.933e-10
0.006, -7.783e-10
0.007, -8.566e-10
0.008, -9.726e-10
0.009, -1.037e-9
0.010, -1.153e-9
0.011, -1.242e-9
0.012, -1.336e-9
0.013, -1.462e-9
0.014, -1.532e-9
0.015, -1.664e-9
0.016, -1.763e-9
0.017, -1.861e-9
0.018, -2.006e-9
0.019, -2.085e-9
0.020, -2.233e-9
0.021, -2.345e-9
0.022, -2.449e-9
0.023, -2.618e-9
0.024, -2.702e-9
0.025, -2.870e-9
0.026, -3.007e-9
0.027, -3.129e-9
0.028, -3.313e-9
0.029, -3.410e-9
0.030, -3.583e-9
0.031, -3.739e-9
0.032, -3.872e-9
0.033, -4.081e-9
0.034, -4.211e-9
0.035, -4.400e-9
0.036, -4.588e-9
0.037, -4.745e-9
0.038, -4.964e-9
0.039, -5.136e-9
0.040, -5.341e-9
0.041, -5.547e-9
0.042, -5.734e-9
0.043, -5.980e-9
0.044, -6.177e-9
0.045, -6.408e-9
0.046, -6.652e-9
0.047, -6.872e-9
0.048, -7.136e-9
0.049, -7.368e-9
0.050, -7.642e-9
0.051, -7.913e-9
0.052, -8.177e-9
0.053, -8.475e-9
0.054, -8.728e-9
0.055, -9.041e-9
0.056, -9.332e-9
0.057, -9.624e-9
0.058, -9.960e-9
0.059, -1.026e-8
0.060, -1.061e-8
0.061, -1.092e-8
0.062, -1.125e-8
0.063, -1.163e-8
0.064, -1.195e-8
0.065, -1.234e-8
0.066, -1.270e-8
0.067, -1.306e-8
0.068, -1.347e-8
0.069, -1.382e-8
0.070, -1.424e-8
0.071, -1.465e-8
0.072, -1.503e-8
0.073, -1.548e-8
0.074, -1.586e-8
0.075, -1.631e-8
0.076, -1.675e-8
0.077, -1.716e-8
0.078, -1.762e-8
0.079, -1.805e-8
0.080, -1.849e-8
0.081, -1.896e-8
0.082, -1.937e-8
0.083, -1.984e-8
0.084, -2.029e-8
0.085, -2.074e-8
0.086, -2.120e-8
0.087, -2.165e-8
0.088, -2.212e-8
0.089, -2.256e-8
0.090, -2.303e-8
0.091, -2.349e-8
0.092, -2.393e-8
0.093, -2.438e-8
0.094, -2.481e-8
0.095, -2.527e-8
0.096, -2.569e-8
0.097, -2.611e-8
0.098, -2.657e-8
0.099, -2.694e-8
0.100, -2.737e-8
0.101, -2.775e-8
0.102, -2.816e-8
0.103, -2.858e-8
0.104, -2.892e-8
0.105, -2.928e-8
0.106, -2.964e-8
0.107, -2.997e-8
0.108, -3.033e-8
0.109, -3.060e-8
0.110, -3.094e-8
0.111, -3.125e-8
0.112, -3.150e-8
0.113, -3.181e-8
0.114, -3.203e-8
0.115, -3.230e-8
0.116, -3.255e-8
0.117, -3.273e-8
0.118, -3.296e-8
0.119, -3.313e-8
0.120, -3.331e-8
0.121, -3.349e-8
0.122, -3.362e-8
0.123, -3.378e-8
0.124, -3.390e-8
0.125, -3.400e-8
0.126, -3.412e-8
0.127, -3.419e-8
0.128, -3.431e-8
0.129, -3.435e-8
0.130, -3.440e-8
0.131, -3.445e-8
0.132, -3.446e-8
0.133, -3.450e-8
0.134, -3.448e-8
0.135, -3.449e-8
0.136, -3.447e-8
0.137, -3.445e-8
0.138, -3.444e-8
0.139, -3.438e-8
0.140, -3.436e-8
0.141, -3.430e-8
0.142, -3.422e-8
0.143, -3.419e-8
0.144, -3.407e-8
0.145, -3.400e-8
0.146, -3.393e-8
0.147, -3.381e-8
0.148, -3.375e-8
0.149, -3.361e-8
0.150, -3.352e-8
0.151, -3.342e-8
0.152, -3.327e-8
0.153, -3.319e-8
0.154, -3.304e-8
0.155, -3.292e-8
0.156, -3.280e-8
0.157, -3.263e-8
0.158, -3.254e-8
0.159, -3.238e-8
0.160, -3.225e-8
0.161, -3.212e-8
0.162, -3.196e-8
0.163, -3.185e-8
0.164, -3.168e-8
0.165, -3.155e-8
0.166, -3.141e-8
0.167, -3.125e-8
0.168, -3.113e-8
0.169, -3.096e-8
0.170, -3.083e-8
0.171, -3.068e-8
0.172, -3.052e-8
0.173, -3.040e-8
0.174, -3.023e-8
0.175, -3.011e-8
0.176, -2.997e-8
0.177, -2.982e-8
0.178, -2.971e-8
0.179, -2.954e-8
0.180, -2.943e-8
0.181, -2.929e-8
0.182, -2.914e-8
0.183, -2.905e-8
0.184, -2.888e-8
0.185, -2.877e-8
0.186, -2.865e-8
0.187, -2.850e-8
0.188, -2.841e-8
0.189, -2.825e-8
0.190, -2.815e-8
0.191, -2.804e-8
0.192, -2.789e-8
0.193, -2.781e-8
0.194, -2.767e-8
0.195, -2.757e-8
0.196, -2.747e-8
0.197, -2.733e-8
0.198, -2.726e-8
0.199, -2.713e-8
0.200, -2.704e-8
0.201, -2.695e-8
0.202, -2.683e-8
0.203, -2.676e-8
0.204, -2.664e-8
0.205, -2.656e-8
0.206, -2.648e-8
0.207, -2.636e-8
0.208, -2.630e-8
0.209, -2.619e-8
0.210, -2.612e-8
0.211, -2.604e-8
0.212, -2.595e-8
0.213, -2.589e-8
0.214, -2.579e-8
0.215, -2.573e-8
0.216, -2.566e-8
0.217, -2.557e-8
0.218, -2.553e-8
0.219, -2.543e-8
0.220, -2.539e-8
0.221, -2.532e-8
0.222, -2.524e-8
0.223, -2.521e-8
0.224, -2.511e-8
0.225, -2.508e-8
0.226, -2.503e-8
0.227, -2.494e-8
0.228, -2.494e-8
0.229, -2.484e-8
0.230, -2.481e-8
0.231, -2.478e-8
0.232, -2.470e-8
0.233, -2.469e-8
0.234, -2.462e-8
0.235, -2.458e-8
0.236, -2.456e-8
0.237, -2.448e-8
0.238, -2.448e-8
0.239, -2.442e-8
0.240, -2.439e-8
0.241, -2.437e-8
0.242, -2.431e-8
0.243, -2.432e-8
0.244, -2.426e-8
0.245, -2.424e-8
0.246, -2.422e-8
0.247, -2.418e-8
0.248, -2.418e-8
0.249, -2.413e-8
0.250, -2.413e-8
0.251, -2.411e-8
0.252, -2.407e-8
0.253, -2.408e-8
0.254, -2.404e-8
0.255, -2.404e-8
0.256, -2.403e-8
0.257, -2.400e-8
0.258, -2.401e-8
0.259, -2.397e-8
0.260, -2.398e-8
0.261, -2.398e-8
0.262, -2.395e-8
0.263, -2.397e-8
0.264, -2.393e-8
0.265, -2.395e-8
0.266, -2.395e-8
0.267, -2.391e-8
0.268, -2.396e-8
0.269, -2.392e-8
0.270, -2.393e-8
0.271, -2.395e-8
0.272, -2.391e-8
0.273, -2.396e-8
0.274, -2.393e-8
0.275, -2.395e-8
0.276, -2.397e-8
0.277, -2.394e-8
0.278, -2.398e-8
0.279, -2.397e-8
0.280, -2.398e-8
0.281, -2.401e-8
0.282, -2.399e-8
0.283, -2.404e-8
0.284, -2.402e-8
0.285, -2.404e-8
0.286, -2.407e-8
0.287, -2.406e-8
0.288, -2.410e-8
0.289, -2.409e-8
0.290, -2.412e-8
0.291, -2.415e-8
0.292, -2.415e-8
0.293, -2.419e-8
0.294, -2.419e-8
0.295, -2.423e-8
0.296, -2.426e-8
0.297, -2.425e-8
0.298, -2.431e-8
0.299, -2.431e-8
0.300, -2.330e-8
0.299, -2.134e-8
0.298, -2.057e-8
0.297, -2.019e-8
0.296, -1.984e-8
0.295, -1.957e-8
0.294, -1.934e-8
0.293, -1.910e-8
0.292, -1.892e-8
0.291, -1.870e-8
0.290, -1.853e-8
0.289, -1.837e-8
0.288, -1.818e-8
0.287, -1.805e-8
0.286, -1.788e-8
0.285, -1.774e-8
0.284, -1.761e-8
0.283, -1.745e-8
0.282, -1.735e-8
0.281, -1.719e-8
0.280, -1.709e-8
0.279, -1.697e-8
0.278, -1.684e-8
0.277, -1.676e-8
0.276, -1.662e-8
0.275, -1.653e-8
0.274, -1.643e-8
0.273, -1.629e-8
0.272, -1.624e-8
0.271, -1.610e-8
0.270, -1.602e-8
0.269, -1.593e-8
0.268, -1.580e-8
0.267, -1.576e-8
0.266, -1.564e-8
0.265, -1.556e-8
0.264, -1.549e-8
0.263, -1.537e-8
0.262, -1.532e-8
0.261, -1.521e-8
0.260, -1.513e-8
0.259, -1.507e-8
0.258, -1.496e-8
0.257, -1.491e-8
0.256, -1.480e-8
0.255, -1.473e-8
0.254, -1.468e-8
0.253, -1.457e-8
0.252, -1.452e-8
0.251, -1.443e-8
0.250, -1.436e-8
0.249, -1.430e-8
0.248, -1.420e-8
0.247, -1.416e-8
0.246, -1.407e-8
0.245, -1.401e-8
0.244, -1.395e-8
0.243, -1.385e-8
0.242, -1.382e-8
0.241, -1.372e-8
0.240, -1.367e-8
0.239, -1.361e-8
0.238, -1.351e-8
0.237, -1.348e-8
0.236, -1.339e-8
0.235, -1.334e-8
0.234, -1.328e-8
0.233, -1.318e-8
0.232, -1.316e-8
0.231, -1.305e-8
0.230, -1.300e-8
0.229, -1.296e-8
0.228, -1.285e-8
0.227, -1.283e-8
0.226, -1.274e-8
0.225, -1.268e-8
0.224, -1.263e-8
0.223, -1.253e-8
0.222, -1.251e-8
0.221, -1.241e-8
0.220, -1.235e-8
0.219, -1.230e-8
0.218, -1.220e-8
0.217, -1.217e-8
0.216, -1.208e-8
0.215, -1.202e-8
0.214, -1.197e-8
0.213, -1.187e-8
0.212, -1.183e-8
0.211, -1.175e-8
0.210, -1.168e-8
0.209, -1.162e-8
0.208, -1.152e-8
0.207, -1.147e-8
0.206, -1.138e-8
0.205, -1.131e-8
0.204, -1.125e-8
0.203, -1.115e-8
0.202, -1.110e-8
0.201, -1.100e-8
0.200, -1.093e-8
0.199, -1.085e-8
0.198, -1.075e-8
0.197, -1.070e-8
0.196, -1.059e-8
0.195, -1.051e-8
0.194, -1.044e-8
0.193, -1.031e-8
0.192, -1.026e-8
0.191, -1.014e-8
0.190, -1.005e-8
0.189, -9.968e-9
0.188, -9.835e-9
0.187, -9.770e-9
0.186, -9.643e-9
0.185, -9.548e-9
0.184, -9.460e-9
0.183, -9.306e-9
0.182, -9.239e-9
0.181, -9.095e-9
0.180, -8.977e-9
0.179, -8.879e-9
0.178, -8.721e-9
0.177, -8.631e-9
0.176, -8.478e-9
0.175, -8.344e-9
0.174, -8.229e-9
0.173, -8.056e-9
0.172, -7.940e-9
0.171, -7.776e-9
0.170, -7.625e-9
0.169, -7.484e-9
0.168, -7.296e-9
0.167, -7.148e-9
0.166, -6.962e-9
0.165, -6.793e-9
0.164, -6.627e-9
0.163, -6.421e-9
0.162, -6.262e-9
0.161, -6.051e-9
0.160, -5.853e-9
0.159, -5.665e-9
0.158, -5.436e-9
0.157, -5.254e-9
0.156, -5.007e-9
0.155, -4.793e-9
0.154, -4.575e-9
0.153, -4.310e-9
0.152, -4.108e-9
0.151, -3.829e-9
0.150, -3.589e-9
0.149, -3.363e-9
0.148, -3.057e-9
0.147, -2.824e-9
0.146, -2.518e-9
0.145, -2.240e-9
0.144, -1.974e-9
0.143, -1.637e-9
0.142, -1.379e-9
0.141, -1.042e-9
0.140, -7.190e-10
0.139, -4.301e-10
0.138, -6.141e-11
0.137, 2.324e-10
0.136, 6.018e-10
0.135, 9.531e-10
0.134, 1.270e-9
0.133, 1.666e-9
0.132, 2.007e-9
0.131, 2.386e-9
0.130, 2.774e-9
0.129, 3.128e-9
0.128, 3.554e-9
0.127, 3.922e-9
0.126, 4.320e-9
0.125, 4.727e-9
0.124, 5.112e-9
0.123, 5.541e-9
0.122, 5.933e-9
0.121, 6.355e-9
0.120, 6.768e-9
0.119, 7.185e-9
0.118, 7.615e-9
0.117, 8.024e-9
0.116, 8.465e-9
0.115, 8.896e-9
0.114, 9.318e-9
0.113, 9.754e-9
0.112, 1.015e-8
0.111, 1.061e-8
0.110, 1.101e-8
0.109, 1.142e-8
0.108, 1.187e-8
0.107, 1.225e-8
0.106, 1.268e-8
0.105, 1.308e-8
0.104, 1.348e-8
0.103, 1.392e-8
0.102, 1.429e-8
0.101, 1.468e-8
0.100, 1.507e-8
0.099, 1.542e-8
0.098, 1.582e-8
0.097, 1.616e-8
0.096, 1.652e-8
0.095, 1.689e-8
0.094, 1.719e-8
0.093, 1.755e-8
0.092, 1.784e-8
0.091, 1.816e-8
0.090, 1.847e-8
0.089, 1.873e-8
0.088, 1.905e-8
0.087, 1.929e-8
0.086, 1.955e-8
0.085, 1.981e-8
0.084, 2.003e-8
0.083, 2.027e-8
0.082, 2.046e-8
0.081, 2.067e-8
0.080, 2.087e-8
0.079, 2.104e-8
0.078, 2.122e-8
0.077, 2.137e-8
0.076, 2.153e-8
0.075, 2.166e-8
0.074, 2.177e-8
0.073, 2.190e-8
0.072, 2.198e-8
0.071, 2.210e-8
0.070, 2.218e-8
0.069, 2.223e-8
0.068, 2.233e-8
0.067, 2.234e-8
0.066, 2.241e-8
0.065, 2.244e-8
0.064, 2.246e-8
0.063, 2.252e-8
0.062, 2.248e-8
0.061, 2.250e-8
0.060, 2.251e-8
0.059, 2.247e-8
0.058, 2.249e-8
0.057, 2.243e-8
0.056, 2.241e-8
0.055, 2.239e-8
0.054, 2.231e-8
0.053, 2.231e-8
0.052, 2.223e-8
0.051, 2.219e-8
0.050, 2.214e-8
0.049, 2.204e-8
0.048, 2.200e-8
0.047, 2.190e-8
0.046, 2.183e-8
0.045, 2.176e-8
0.044, 2.165e-8
0.043, 2.160e-8
0.042, 2.149e-8
0.041, 2.141e-8
0.040, 2.132e-8
0.039, 2.121e-8
0.038, 2.114e-8
0.037, 2.102e-8
0.036, 2.094e-8
0.035, 2.083e-8
0.034, 2.072e-8
0.033, 2.065e-8
0.032, 2.052e-8
0.031, 2.044e-8
0.030, 2.034e-8
0.029, 2.021e-8
0.028, 2.016e-8
0.027, 2.002e-8
0.026, 1.994e-8
0.025, 1.984e-8
0.024, 1.972e-8
0.023, 1.966e-8
0.022, 1.952e-8
0.021, 1.945e-8
0.020, 1.936e-8
0.019, 1.923e-8
0.018, 1.918e-8
0.017, 1.905e-8
0.016, 1.898e-8
0.015, 1.889e-8
0.014, 1.878e-8
0.013, 1.872e-8
0.012, 1.861e-8
0.011, 1.854e-8
0.010, 1.846e-8
0.009, 1.835e-8
0.008, 1.830e-8
0.007, 1.820e-8
0.006, 1.813e-8
0.005, 1.806e-8
0.004, 1.797e-8
0.003, 1.792e-8
0.002, 1.782e-8
0.001, 1.777e-8
0.000, 1.775e-8
-0.001, 1.765e-8
-0.002, 1.759e-8
-0.003, 1.749e-8
-0.004, 1.745e-8
-0.005, 1.739e-8
-0.006, 1.731e-8
-0.007, 1.728e-8
-0.008, 1.719e-8
-0.009, 1.716e-8
-0.010, 1.711e-8
-0.011, 1.704e-8
-0.012, 1.703e-8
-0.013, 1.694e-8
-0.014, 1.692e-8
-0.015, 1.688e-8
-0.016, 1.680e-8
-0.017, 1.681e-8
-0.018, 1.673e-8
-0.019, 1.671e-8
-0.020, 1.668e-8
-0.021, 1.662e-8
-0.022, 1.662e-8
-0.023, 1.656e-8
-0.024, 1.654e-8
-0.025, 1.652e-8
-0.026, 1.647e-8
-0.027, 1.648e-8
-0.028, 1.642e-8
-0.029, 1.641e-8
-0.030, 1.639e-8
-0.031, 1.635e-8
-0.032, 1.636e-8
-0.033, 1.631e-8
-0.034, 1.631e-8
-0.035, 1.630e-8
-0.036, 1.626e-8
-0.037, 1.628e-8
-0.038, 1.624e-8
-0.039, 1.625e-8
-0.040, 1.624e-8
-0.041, 1.621e-8
-0.042, 1.624e-8
-0.043, 1.620e-8
-0.044, 1.622e-8
-0.045, 1.621e-8
-0.046, 1.619e-8
-0.047, 1.623e-8
-0.048, 1.619e-8
-0.049, 1.622e-8
-0.050, 1.622e-8
-0.051, 1.620e-8
-0.052, 1.625e-8
-0.053, 1.622e-8
-0.054, 1.625e-8
-0.055, 1.626e-8
-0.056, 1.624e-8
-0.057, 1.629e-8
-0.058, 1.627e-8
-0.059, 1.630e-8
-0.060, 1.633e-8
-0.061, 1.630e-8
-0.062, 1.637e-8
-0.063, 1.635e-8
-0.064, 1.639e-8
-0.065, 1.642e-8
-0.066, 1.640e-8
-0.067, 1.647e-8
-0.068, 1.646e-8
-0.069, 1.650e-8
-0.070, 1.653e-8
-0.071, 1.653e-8
-0.072, 1.659e-8
-0.073, 1.660e-8
-0.074, 1.663e-8
-0.075, 1.667e-8
-0.076, 1.668e-8
-0.077, 1.675e-8
-0.078, 1.675e-8
-0.079, 1.680e-8
-0.080, 1.683e-8
-0.081, 1.685e-8
-0.082, 1.692e-8
-0.083, 1.693e-8
-0.084, 1.698e-8
-0.085, 1.703e-8
-0.086, 1.704e-8
-0.087, 1.712e-8
-0.088, 1.713e-8
-0.089, 1.720e-8
-0.090, 1.725e-8
-0.091, 1.727e-8
-0.092, 1.736e-8
-0.093, 1.737e-8
-0.094, 1.744e-8
-0.095, 1.750e-8
-0.096, 1.752e-8
-0.097, 1.762e-8
-0.098, 1.764e-8
-0.099, 1.771e-8
-0.100, 1.778e-8
-0.101, 1.780e-8
-0.102, 1.791e-8
-0.103, 1.794e-8
-0.104, 1.801e-8
-0.105, 1.808e-8
-0.106, 1.811e-8
-0.107, 1.821e-8
-0.108, 1.826e-8
-0.109, 1.833e-8
-0.110, 1.841e-8
-0.111, 1.845e-8
-0.112, 1.855e-8
-0.113, 1.860e-8
-0.114, 1.868e-8
-0.115, 1.877e-8
-0.116, 1.882e-8
-0.117, 1.893e-8
-0.118, 1.898e-8
-0.119, 1.907e-8
-0.120, 1.915e-8
-0.121, 1.921e-8
-0.122, 1.932e-8
-0.123, 1.937e-8
-0.124, 1.947e-8
-0.125, 1.956e-8
-0.126, 1.962e-8
-0.127, 1.975e-8
-0.128, 1.981e-8
-0.129, 1.992e-8
-0.130, 2.001e-8
-0.131, 2.007e-8
-0.132, 2.020e-8
-0.133, 2.026e-8
-0.134, 2.037e-8
-0.135, 2.048e-8
-0.136, 2.054e-8
-0.137, 2.068e-8
-0.138, 2.075e-8
-0.139, 2.086e-8
-0.140, 2.098e-8
-0.141, 2.105e-8
-0.142, 2.119e-8
-0.143, 2.127e-8
-0.144, 2.138e-8
-0.145, 2.150e-8
-0.146, 2.158e-8
-0.147, 2.172e-8
-0.148, 2.181e-8
-0.149, 2.193e-8
-0.150, 2.206e-8
-0.151, 2.214e-8
-0.152, 2.229e-8
-0.153, 2.238e-8
-0.154, 2.251e-8
-0.155, 2.264e-8
-0.156, 2.273e-8
-0.157, 2.288e-8
-0.158, 2.298e-8
-0.159, 2.311e-8
-0.160, 2.324e-8
-0.161, 2.334e-8
-0.162, 2.350e-8
-0.163, 2.360e-8
-0.164, 2.374e-8
-0.165, 2.388e-8
-0.166, 2.399e-8
-0.167, 2.416e-8
-0.168, 2.426e-8
-0.169, 2.441e-8
-0.170, 2.455e-8
-0.171, 2.466e-8
-0.172, 2.484e-8
-0.173, 2.495e-8
-0.174, 2.510e-8
-0.175, 2.525e-8
-0.176, 2.536e-8
-0.177, 2.555e-8
-0.178, 2.566e-8
-0.179, 2.582e-8
-0.180, 2.598e-8
-0.181, 2.609e-8
-0.182, 2.627e-8
-0.183, 2.640e-8
-0.184, 2.655e-8
-0.185, 2.672e-8
-0.186, 2.683e-8
-0.187, 2.703e-8
-0.188, 2.716e-8
-0.189, 2.731e-8
-0.190, 2.749e-8
-0.191, 2.762e-8
-0.192, 2.781e-8
-0.193, 2.795e-8
-0.194, 2.810e-8
-0.195, 2.828e-8
-0.196, 2.841e-8
-0.197, 2.860e-8
-0.198, 2.874e-8
-0.199, 2.891e-8
