Mar. 16, 2023   09:25:18
Cyclic Voltammetry
File: c:/users/oliverrz/desktop/electrolab/data/2023_03_16\fcmeoh_macros_500_um\electrode6_cv_250mvs_500_um.bin
Data Source:  Experiment
Instrument Model:  CHI760E
Header: CV
Note: 

Init E (V) = -0.2
High E (V) = 0.3
Low E (V) = -0.2
Final E (V) = -0.2
Init P/N = P
Scan Rate (V/s) = 0.25
Segment = 3
Sample Interval (V) = 0.001
Quiet Time (sec) = 2
Sensitivity (A/V) = 1e-7

Results:

Channel 1:
Segment 1:
Ep = 0.100V
ip = -4.350e-8A
Ah = -1.057e-8C

Segment 2:
Ep = 0.036V
ip = 4.440e-8A
Ah = 1.126e-8C

Segment 3:

Potential/V, Current/A

-0.200, 1.357e-8
-0.199, 1.154e-8
-0.198, 1.114e-8
-0.197, 1.074e-8
-0.196, 1.041e-8
-0.195, 1.028e-8
-0.194, 1.010e-8
-0.193, 9.790e-9
-0.192, 9.544e-9
-0.191, 9.359e-9
-0.190, 9.298e-9
-0.189, 9.083e-9
-0.188, 8.775e-9
-0.187, 8.652e-9
-0.186, 8.590e-9
-0.185, 8.375e-9
-0.184, 8.160e-9
-0.183, 7.944e-9
-0.182, 7.913e-9
-0.181, 7.760e-9
-0.180, 7.483e-9
-0.179, 7.360e-9
-0.178, 7.298e-9
-0.177, 7.144e-9
-0.176, 6.990e-9
-0.175, 6.775e-9
-0.174, 6.744e-9
-0.173, 6.652e-9
-0.172, 6.406e-9
-0.171, 6.252e-9
-0.170, 6.191e-9
-0.169, 6.098e-9
-0.168, 5.944e-9
-0.167, 5.729e-9
-0.166, 5.637e-9
-0.165, 5.637e-9
-0.164, 5.421e-9
-0.163, 5.237e-9
-0.162, 5.175e-9
-0.161, 5.114e-9
-0.160, 5.022e-9
-0.159, 4.775e-9
-0.158, 4.652e-9
-0.157, 4.683e-9
-0.156, 4.529e-9
-0.155, 4.375e-9
-0.154, 4.252e-9
-0.153, 4.222e-9
-0.152, 4.129e-9
-0.151, 3.945e-9
-0.150, 3.791e-9
-0.149, 3.822e-9
-0.148, 3.699e-9
-0.147, 3.576e-9
-0.146, 3.422e-9
-0.145, 3.360e-9
-0.144, 3.360e-9
-0.143, 3.145e-9
-0.142, 3.022e-9
-0.141, 2.960e-9
-0.140, 2.929e-9
-0.139, 2.837e-9
-0.138, 2.653e-9
-0.137, 2.591e-9
-0.136, 2.622e-9
-0.135, 2.468e-9
-0.134, 2.314e-9
-0.133, 2.222e-9
-0.132, 2.222e-9
-0.131, 2.130e-9
-0.130, 1.976e-9
-0.129, 1.853e-9
-0.128, 1.883e-9
-0.127, 1.791e-9
-0.126, 1.637e-9
-0.125, 1.545e-9
-0.124, 1.545e-9
-0.123, 1.484e-9
-0.122, 1.360e-9
-0.121, 1.176e-9
-0.120, 1.207e-9
-0.119, 1.207e-9
-0.118, 1.022e-9
-0.117, 8.990e-10
-0.116, 8.375e-10
-0.115, 8.682e-10
-0.114, 7.759e-10
-0.113, 5.606e-10
-0.112, 5.606e-10
-0.111, 5.606e-10
-0.110, 4.375e-10
-0.109, 3.145e-10
-0.108, 2.222e-10
-0.107, 3.145e-10
-0.106, 1.914e-10
-0.105, 6.813e-12
-0.104, -2.395e-11
-0.103, -5.472e-11
-0.102, -8.548e-11
-0.101, -2.085e-10
-0.100, -3.624e-10
-0.099, -2.701e-10
-0.098, -3.624e-10
-0.097, -4.854e-10
-0.096, -5.777e-10
-0.095, -6.085e-10
-0.094, -6.085e-10
-0.093, -7.315e-10
-0.092, -8.854e-10
-0.091, -8.854e-10
-0.090, -8.546e-10
-0.089, -1.008e-9
-0.088, -1.131e-9
-0.087, -1.193e-9
-0.086, -1.131e-9
-0.085, -1.224e-9
-0.084, -1.439e-9
-0.083, -1.439e-9
-0.082, -1.378e-9
-0.081, -1.531e-9
-0.080, -1.624e-9
-0.079, -1.747e-9
-0.078, -1.716e-9
-0.077, -1.747e-9
-0.076, -1.931e-9
-0.075, -1.993e-9
-0.074, -1.931e-9
-0.073, -2.024e-9
-0.072, -2.116e-9
-0.071, -2.270e-9
-0.070, -2.270e-9
-0.069, -2.239e-9
-0.068, -2.424e-9
-0.067, -2.516e-9
-0.066, -2.547e-9
-0.065, -2.547e-9
-0.064, -2.639e-9
-0.063, -2.854e-9
-0.062, -2.854e-9
-0.061, -2.824e-9
-0.060, -2.947e-9
-0.059, -3.100e-9
-0.058, -3.162e-9
-0.057, -3.100e-9
-0.056, -3.193e-9
-0.055, -3.377e-9
-0.054, -3.470e-9
-0.053, -3.408e-9
-0.052, -3.500e-9
-0.051, -3.685e-9
-0.050, -3.777e-9
-0.049, -3.777e-9
-0.048, -3.808e-9
-0.047, -3.993e-9
-0.046, -4.116e-9
-0.045, -4.085e-9
-0.044, -4.177e-9
-0.043, -4.300e-9
-0.042, -4.454e-9
-0.041, -4.516e-9
-0.040, -4.485e-9
-0.039, -4.700e-9
-0.038, -4.885e-9
-0.037, -4.885e-9
-0.036, -4.946e-9
-0.035, -5.069e-9
-0.034, -5.285e-9
-0.033, -5.408e-9
-0.032, -5.316e-9
-0.031, -5.531e-9
-0.030, -5.715e-9
-0.029, -5.808e-9
-0.028, -5.869e-9
-0.027, -5.992e-9
-0.026, -6.208e-9
-0.025, -6.362e-9
-0.024, -6.392e-9
-0.023, -6.546e-9
-0.022, -6.731e-9
-0.021, -6.946e-9
-0.020, -7.008e-9
-0.019, -7.069e-9
-0.018, -7.346e-9
-0.017, -7.592e-9
-0.016, -7.684e-9
-0.015, -7.777e-9
-0.014, -7.992e-9
-0.013, -8.269e-9
-0.012, -8.454e-9
-0.011, -8.515e-9
-0.010, -8.761e-9
-0.009, -9.069e-9
-0.008, -9.223e-9
-0.007, -9.377e-9
-0.006, -9.623e-9
-0.005, -9.900e-9
-0.004, -1.018e-8
-0.003, -1.030e-8
-0.002, -1.055e-8
-0.001, -1.091e-8
-0.000, -1.138e-8
0.001, -1.144e-8
0.002, -1.165e-8
0.003, -1.196e-8
0.004, -1.239e-8
0.005, -1.255e-8
0.006, -1.282e-8
0.007, -1.322e-8
0.008, -1.359e-8
0.009, -1.390e-8
0.010, -1.418e-8
0.011, -1.458e-8
0.012, -1.504e-8
0.013, -1.534e-8
0.014, -1.565e-8
0.015, -1.611e-8
0.016, -1.658e-8
0.017, -1.698e-8
0.018, -1.731e-8
0.019, -1.774e-8
0.020, -1.833e-8
0.021, -1.876e-8
0.022, -1.913e-8
0.023, -1.962e-8
0.024, -2.018e-8
0.025, -2.073e-8
0.026, -2.113e-8
0.027, -2.162e-8
0.028, -2.227e-8
0.029, -2.279e-8
0.030, -2.331e-8
0.031, -2.384e-8
0.032, -2.445e-8
0.033, -2.513e-8
0.034, -2.565e-8
0.035, -2.617e-8
0.036, -2.688e-8
0.037, -2.753e-8
0.038, -2.814e-8
0.039, -2.873e-8
0.040, -2.934e-8
0.041, -3.014e-8
0.042, -3.076e-8
0.043, -3.128e-8
0.044, -3.205e-8
0.045, -3.276e-8
0.046, -3.350e-8
0.047, -3.405e-8
0.048, -3.470e-8
0.049, -3.550e-8
0.050, -3.620e-8
0.051, -3.682e-8
0.052, -3.756e-8
0.053, -3.823e-8
0.054, -3.900e-8
0.055, -3.962e-8
0.056, -4.023e-8
0.057, -4.100e-8
0.058, -4.171e-8
0.059, -4.230e-8
0.060, -4.297e-8
0.061, -4.362e-8
0.062, -4.436e-8
0.063, -4.500e-8
0.064, -4.546e-8
0.065, -4.623e-8
0.066, -4.682e-8
0.067, -4.740e-8
0.068, -4.796e-8
0.069, -4.848e-8
0.070, -4.913e-8
0.071, -4.971e-8
0.072, -5.005e-8
0.073, -5.066e-8
0.074, -5.112e-8
0.075, -5.162e-8
0.076, -5.205e-8
0.077, -5.245e-8
0.078, -5.294e-8
0.079, -5.337e-8
0.080, -5.359e-8
0.081, -5.396e-8
0.082, -5.436e-8
0.083, -5.469e-8
0.084, -5.497e-8
0.085, -5.515e-8
0.086, -5.549e-8
0.087, -5.577e-8
0.088, -5.592e-8
0.089, -5.608e-8
0.090, -5.629e-8
0.091, -5.648e-8
0.092, -5.666e-8
0.093, -5.660e-8
0.094, -5.679e-8
0.095, -5.691e-8
0.096, -5.694e-8
0.097, -5.694e-8
0.098, -5.697e-8
0.099, -5.700e-8
0.100, -5.709e-8
0.101, -5.691e-8
0.102, -5.694e-8
0.103, -5.694e-8
0.104, -5.688e-8
0.105, -5.679e-8
0.106, -5.660e-8
0.107, -5.657e-8
0.108, -5.654e-8
0.109, -5.629e-8
0.110, -5.611e-8
0.111, -5.605e-8
0.112, -5.592e-8
0.113, -5.577e-8
0.114, -5.546e-8
0.115, -5.537e-8
0.116, -5.525e-8
0.117, -5.500e-8
0.118, -5.472e-8
0.119, -5.454e-8
0.120, -5.439e-8
0.121, -5.417e-8
0.122, -5.386e-8
0.123, -5.362e-8
0.124, -5.349e-8
0.125, -5.328e-8
0.126, -5.291e-8
0.127, -5.269e-8
0.128, -5.251e-8
0.129, -5.232e-8
0.130, -5.199e-8
0.131, -5.165e-8
0.132, -5.156e-8
0.133, -5.131e-8
0.134, -5.100e-8
0.135, -5.072e-8
0.136, -5.048e-8
0.137, -5.036e-8
0.138, -5.002e-8
0.139, -4.968e-8
0.140, -4.952e-8
0.141, -4.931e-8
0.142, -4.906e-8
0.143, -4.873e-8
0.144, -4.848e-8
0.145, -4.839e-8
0.146, -4.811e-8
0.147, -4.771e-8
0.148, -4.756e-8
0.149, -4.734e-8
0.150, -4.719e-8
0.151, -4.685e-8
0.152, -4.654e-8
0.153, -4.645e-8
0.154, -4.626e-8
0.155, -4.596e-8
0.156, -4.568e-8
0.157, -4.549e-8
0.158, -4.537e-8
0.159, -4.509e-8
0.160, -4.482e-8
0.161, -4.466e-8
0.162, -4.457e-8
0.163, -4.426e-8
0.164, -4.402e-8
0.165, -4.386e-8
0.166, -4.374e-8
0.167, -4.356e-8
0.168, -4.322e-8
0.169, -4.310e-8
0.170, -4.300e-8
0.171, -4.279e-8
0.172, -4.251e-8
0.173, -4.233e-8
0.174, -4.226e-8
0.175, -4.214e-8
0.176, -4.180e-8
0.177, -4.165e-8
0.178, -4.156e-8
0.179, -4.146e-8
0.180, -4.122e-8
0.181, -4.097e-8
0.182, -4.091e-8
0.183, -4.085e-8
0.184, -4.057e-8
0.185, -4.039e-8
0.186, -4.030e-8
0.187, -4.023e-8
0.188, -4.005e-8
0.189, -3.980e-8
0.190, -3.974e-8
0.191, -3.968e-8
0.192, -3.950e-8
0.193, -3.928e-8
0.194, -3.919e-8
0.195, -3.916e-8
0.196, -3.903e-8
0.197, -3.879e-8
0.198, -3.866e-8
0.199, -3.866e-8
0.200, -3.851e-8
0.201, -3.833e-8
0.202, -3.820e-8
0.203, -3.814e-8
0.204, -3.814e-8
0.205, -3.793e-8
0.206, -3.777e-8
0.207, -3.777e-8
0.208, -3.768e-8
0.209, -3.756e-8
0.210, -3.737e-8
0.211, -3.731e-8
0.212, -3.734e-8
0.213, -3.716e-8
0.214, -3.697e-8
0.215, -3.697e-8
0.216, -3.691e-8
0.217, -3.688e-8
0.218, -3.663e-8
0.219, -3.660e-8
0.220, -3.663e-8
0.221, -3.648e-8
0.222, -3.636e-8
0.223, -3.630e-8
0.224, -3.627e-8
0.225, -3.627e-8
0.226, -3.608e-8
0.227, -3.596e-8
0.228, -3.602e-8
0.229, -3.596e-8
0.230, -3.583e-8
0.231, -3.571e-8
0.232, -3.571e-8
0.233, -3.574e-8
0.234, -3.559e-8
0.235, -3.547e-8
0.236, -3.550e-8
0.237, -3.547e-8
0.238, -3.537e-8
0.239, -3.525e-8
0.240, -3.522e-8
0.241, -3.528e-8
0.242, -3.522e-8
0.243, -3.503e-8
0.244, -3.507e-8
0.245, -3.507e-8
0.246, -3.503e-8
0.247, -3.488e-8
0.248, -3.485e-8
0.249, -3.494e-8
0.250, -3.491e-8
0.251, -3.473e-8
0.252, -3.473e-8
0.253, -3.473e-8
0.254, -3.476e-8
0.255, -3.467e-8
0.256, -3.454e-8
0.257, -3.463e-8
0.258, -3.467e-8
0.259, -3.454e-8
0.260, -3.451e-8
0.261, -3.448e-8
0.262, -3.457e-8
0.263, -3.451e-8
0.264, -3.439e-8
0.265, -3.445e-8
0.266, -3.451e-8
0.267, -3.445e-8
0.268, -3.436e-8
0.269, -3.436e-8
0.270, -3.448e-8
0.271, -3.445e-8
0.272, -3.430e-8
0.273, -3.436e-8
0.274, -3.442e-8
0.275, -3.445e-8
0.276, -3.436e-8
0.277, -3.433e-8
0.278, -3.442e-8
0.279, -3.448e-8
0.280, -3.436e-8
0.281, -3.436e-8
0.282, -3.445e-8
0.283, -3.451e-8
0.284, -3.448e-8
0.285, -3.439e-8
0.286, -3.448e-8
0.287, -3.460e-8
0.288, -3.454e-8
0.289, -3.451e-8
0.290, -3.457e-8
0.291, -3.467e-8
0.292, -3.473e-8
0.293, -3.460e-8
0.294, -3.470e-8
0.295, -3.485e-8
0.296, -3.482e-8
0.297, -3.476e-8
0.298, -3.482e-8
0.299, -3.491e-8
0.300, -3.196e-8
0.299, -2.756e-8
0.298, -2.670e-8
0.297, -2.624e-8
0.296, -2.590e-8
0.295, -2.537e-8
0.294, -2.504e-8
0.293, -2.482e-8
0.292, -2.457e-8
0.291, -2.430e-8
0.290, -2.396e-8
0.289, -2.381e-8
0.288, -2.371e-8
0.287, -2.344e-8
0.286, -2.316e-8
0.285, -2.304e-8
0.284, -2.291e-8
0.283, -2.279e-8
0.282, -2.245e-8
0.281, -2.236e-8
0.280, -2.233e-8
0.279, -2.214e-8
0.278, -2.193e-8
0.277, -2.181e-8
0.276, -2.174e-8
0.275, -2.168e-8
0.274, -2.141e-8
0.273, -2.128e-8
0.272, -2.128e-8
0.271, -2.119e-8
0.270, -2.101e-8
0.269, -2.085e-8
0.268, -2.079e-8
0.267, -2.079e-8
0.266, -2.058e-8
0.265, -2.042e-8
0.264, -2.042e-8
0.263, -2.036e-8
0.262, -2.027e-8
0.261, -2.008e-8
0.260, -2.002e-8
0.259, -2.005e-8
0.258, -1.990e-8
0.257, -1.971e-8
0.256, -1.968e-8
0.255, -1.968e-8
0.254, -1.962e-8
0.253, -1.944e-8
0.252, -1.934e-8
0.251, -1.941e-8
0.250, -1.931e-8
0.249, -1.913e-8
0.248, -1.907e-8
0.247, -1.904e-8
0.246, -1.907e-8
0.245, -1.888e-8
0.244, -1.876e-8
0.243, -1.879e-8
0.242, -1.876e-8
0.241, -1.864e-8
0.240, -1.851e-8
0.239, -1.848e-8
0.238, -1.851e-8
0.237, -1.842e-8
0.236, -1.824e-8
0.235, -1.827e-8
0.234, -1.827e-8
0.233, -1.818e-8
0.232, -1.802e-8
0.231, -1.796e-8
0.230, -1.802e-8
0.229, -1.793e-8
0.228, -1.774e-8
0.227, -1.774e-8
0.226, -1.774e-8
0.225, -1.768e-8
0.224, -1.756e-8
0.223, -1.747e-8
0.222, -1.753e-8
0.221, -1.750e-8
0.220, -1.731e-8
0.219, -1.725e-8
0.218, -1.722e-8
0.217, -1.725e-8
0.216, -1.713e-8
0.215, -1.698e-8
0.214, -1.701e-8
0.213, -1.704e-8
0.212, -1.688e-8
0.211, -1.676e-8
0.210, -1.673e-8
0.209, -1.676e-8
0.208, -1.670e-8
0.207, -1.648e-8
0.206, -1.651e-8
0.205, -1.651e-8
0.204, -1.645e-8
0.203, -1.630e-8
0.202, -1.624e-8
0.201, -1.627e-8
0.200, -1.621e-8
0.199, -1.602e-8
0.198, -1.596e-8
0.197, -1.599e-8
0.196, -1.593e-8
0.195, -1.581e-8
0.194, -1.565e-8
0.193, -1.565e-8
0.192, -1.568e-8
0.191, -1.550e-8
0.190, -1.538e-8
0.189, -1.541e-8
0.188, -1.534e-8
0.187, -1.528e-8
0.186, -1.507e-8
0.185, -1.507e-8
0.184, -1.507e-8
0.183, -1.491e-8
0.182, -1.476e-8
0.181, -1.470e-8
0.180, -1.467e-8
0.179, -1.461e-8
0.178, -1.439e-8
0.177, -1.433e-8
0.176, -1.433e-8
0.175, -1.421e-8
0.174, -1.402e-8
0.173, -1.393e-8
0.172, -1.390e-8
0.171, -1.384e-8
0.170, -1.359e-8
0.169, -1.344e-8
0.168, -1.344e-8
0.167, -1.335e-8
0.166, -1.316e-8
0.165, -1.298e-8
0.164, -1.291e-8
0.163, -1.285e-8
0.162, -1.264e-8
0.161, -1.242e-8
0.160, -1.236e-8
0.159, -1.227e-8
0.158, -1.208e-8
0.157, -1.184e-8
0.156, -1.171e-8
0.155, -1.162e-8
0.154, -1.144e-8
0.153, -1.113e-8
0.152, -1.104e-8
0.151, -1.088e-8
0.150, -1.073e-8
0.149, -1.042e-8
0.148, -1.021e-8
0.147, -1.011e-8
0.146, -9.900e-9
0.145, -9.592e-9
0.144, -9.377e-9
0.143, -9.161e-9
0.142, -9.007e-9
0.141, -8.669e-9
0.140, -8.331e-9
0.139, -8.177e-9
0.138, -7.931e-9
0.137, -7.623e-9
0.136, -7.285e-9
0.135, -6.977e-9
0.134, -6.792e-9
0.133, -6.454e-9
0.132, -6.023e-9
0.131, -5.777e-9
0.130, -5.469e-9
0.129, -5.131e-9
0.128, -4.639e-9
0.127, -4.331e-9
0.126, -4.023e-9
0.125, -3.654e-9
0.124, -3.162e-9
0.123, -2.793e-9
0.122, -2.424e-9
0.121, -2.054e-9
0.120, -1.501e-9
0.119, -1.008e-9
0.118, -6.700e-10
0.117, -2.393e-10
0.116, 3.452e-10
0.115, 8.682e-10
0.114, 1.330e-9
0.113, 1.760e-9
0.112, 2.314e-9
0.111, 2.960e-9
0.110, 3.391e-9
0.109, 3.914e-9
0.108, 4.529e-9
0.107, 5.145e-9
0.106, 5.668e-9
0.105, 6.221e-9
0.104, 6.837e-9
0.103, 7.606e-9
0.102, 8.160e-9
0.101, 8.683e-9
0.100, 9.390e-9
0.099, 1.004e-8
0.098, 1.071e-8
0.097, 1.130e-8
0.096, 1.188e-8
0.095, 1.271e-8
0.094, 1.333e-8
0.093, 1.394e-8
0.092, 1.462e-8
0.091, 1.533e-8
0.090, 1.610e-8
0.089, 1.671e-8
0.088, 1.736e-8
0.087, 1.813e-8
0.086, 1.880e-8
0.085, 1.945e-8
0.084, 2.016e-8
0.083, 2.074e-8
0.082, 2.160e-8
0.081, 2.219e-8
0.080, 2.280e-8
0.079, 2.351e-8
0.078, 2.422e-8
0.077, 2.483e-8
0.076, 2.545e-8
0.075, 2.600e-8
0.074, 2.677e-8
0.073, 2.730e-8
0.072, 2.788e-8
0.071, 2.843e-8
0.070, 2.905e-8
0.069, 2.963e-8
0.068, 3.013e-8
0.067, 3.056e-8
0.066, 3.120e-8
0.065, 3.169e-8
0.064, 3.216e-8
0.063, 3.256e-8
0.062, 3.299e-8
0.061, 3.351e-8
0.060, 3.388e-8
0.059, 3.413e-8
0.058, 3.459e-8
0.057, 3.499e-8
0.056, 3.523e-8
0.055, 3.557e-8
0.054, 3.579e-8
0.053, 3.619e-8
0.052, 3.640e-8
0.051, 3.656e-8
0.050, 3.680e-8
0.049, 3.711e-8
0.048, 3.717e-8
0.047, 3.739e-8
0.046, 3.742e-8
0.045, 3.763e-8
0.044, 3.779e-8
0.043, 3.772e-8
0.042, 3.785e-8
0.041, 3.797e-8
0.040, 3.800e-8
0.039, 3.803e-8
0.038, 3.794e-8
0.037, 3.800e-8
0.036, 3.809e-8
0.035, 3.794e-8
0.034, 3.788e-8
0.033, 3.788e-8
0.032, 3.785e-8
0.031, 3.776e-8
0.030, 3.757e-8
0.029, 3.748e-8
0.028, 3.751e-8
0.027, 3.732e-8
0.026, 3.720e-8
0.025, 3.702e-8
0.024, 3.702e-8
0.023, 3.686e-8
0.022, 3.662e-8
0.021, 3.646e-8
0.020, 3.640e-8
0.019, 3.622e-8
0.018, 3.597e-8
0.017, 3.579e-8
0.016, 3.563e-8
0.015, 3.554e-8
0.014, 3.529e-8
0.013, 3.505e-8
0.012, 3.493e-8
0.011, 3.477e-8
0.010, 3.453e-8
0.009, 3.431e-8
0.008, 3.409e-8
0.007, 3.403e-8
0.006, 3.373e-8
0.005, 3.348e-8
0.004, 3.336e-8
0.003, 3.320e-8
0.002, 3.302e-8
0.001, 3.271e-8
0.000, 3.268e-8
-0.001, 3.253e-8
-0.002, 3.225e-8
-0.003, 3.200e-8
-0.004, 3.176e-8
-0.005, 3.163e-8
-0.006, 3.151e-8
-0.007, 3.123e-8
-0.008, 3.099e-8
-0.009, 3.093e-8
-0.010, 3.074e-8
-0.011, 3.053e-8
-0.012, 3.028e-8
-0.013, 3.019e-8
-0.014, 3.010e-8
-0.015, 2.985e-8
-0.016, 2.960e-8
-0.017, 2.951e-8
-0.018, 2.942e-8
-0.019, 2.920e-8
-0.020, 2.899e-8
-0.021, 2.883e-8
-0.022, 2.880e-8
-0.023, 2.862e-8
-0.024, 2.837e-8
-0.025, 2.825e-8
-0.026, 2.822e-8
-0.027, 2.806e-8
-0.028, 2.788e-8
-0.029, 2.766e-8
-0.030, 2.766e-8
-0.031, 2.757e-8
-0.032, 2.736e-8
-0.033, 2.720e-8
-0.034, 2.717e-8
-0.035, 2.708e-8
-0.036, 2.693e-8
-0.037, 2.668e-8
-0.038, 2.671e-8
-0.039, 2.665e-8
-0.040, 2.646e-8
-0.041, 2.634e-8
-0.042, 2.625e-8
-0.043, 2.628e-8
-0.044, 2.613e-8
-0.045, 2.591e-8
-0.046, 2.588e-8
-0.047, 2.591e-8
-0.048, 2.576e-8
-0.049, 2.563e-8
-0.050, 2.551e-8
-0.051, 2.557e-8
-0.052, 2.551e-8
-0.053, 2.530e-8
-0.054, 2.523e-8
-0.055, 2.526e-8
-0.056, 2.520e-8
-0.057, 2.508e-8
-0.058, 2.496e-8
-0.059, 2.499e-8
-0.060, 2.499e-8
-0.061, 2.483e-8
-0.062, 2.474e-8
-0.063, 2.477e-8
-0.064, 2.477e-8
-0.065, 2.468e-8
-0.066, 2.453e-8
-0.067, 2.453e-8
-0.068, 2.462e-8
-0.069, 2.450e-8
-0.070, 2.437e-8
-0.071, 2.437e-8
-0.072, 2.443e-8
-0.073, 2.440e-8
-0.074, 2.425e-8
-0.075, 2.422e-8
-0.076, 2.434e-8
-0.077, 2.425e-8
-0.078, 2.419e-8
-0.079, 2.413e-8
-0.080, 2.416e-8
-0.081, 2.425e-8
-0.082, 2.410e-8
-0.083, 2.403e-8
-0.084, 2.416e-8
-0.085, 2.413e-8
-0.086, 2.410e-8
-0.087, 2.400e-8
-0.088, 2.407e-8
-0.089, 2.416e-8
-0.090, 2.403e-8
-0.091, 2.397e-8
-0.092, 2.403e-8
-0.093, 2.410e-8
-0.094, 2.410e-8
-0.095, 2.397e-8
-0.096, 2.400e-8
-0.097, 2.416e-8
-0.098, 2.413e-8
-0.099, 2.403e-8
-0.100, 2.407e-8
-0.101, 2.416e-8
-0.102, 2.419e-8
-0.103, 2.413e-8
-0.104, 2.410e-8
-0.105, 2.425e-8
-0.106, 2.425e-8
-0.107, 2.422e-8
-0.108, 2.422e-8
-0.109, 2.431e-8
-0.110, 2.437e-8
-0.111, 2.434e-8
-0.112, 2.428e-8
-0.113, 2.443e-8
-0.114, 2.450e-8
-0.115, 2.447e-8
-0.116, 2.447e-8
-0.117, 2.450e-8
-0.118, 2.465e-8
-0.119, 2.465e-8
-0.120, 2.456e-8
-0.121, 2.471e-8
-0.122, 2.480e-8
-0.123, 2.480e-8
-0.124, 2.480e-8
-0.125, 2.480e-8
-0.126, 2.502e-8
-0.127, 2.505e-8
-0.128, 2.502e-8
-0.129, 2.508e-8
-0.130, 2.517e-8
-0.131, 2.526e-8
-0.132, 2.526e-8
-0.133, 2.526e-8
-0.134, 2.545e-8
-0.135, 2.551e-8
-0.136, 2.551e-8
-0.137, 2.554e-8
-0.138, 2.563e-8
-0.139, 2.582e-8
-0.140, 2.579e-8
-0.141, 2.579e-8
-0.142, 2.594e-8
-0.143, 2.610e-8
-0.144, 2.610e-8
-0.145, 2.613e-8
-0.146, 2.622e-8
-0.147, 2.640e-8
-0.148, 2.646e-8
-0.149, 2.643e-8
-0.150, 2.653e-8
-0.151, 2.674e-8
-0.152, 2.677e-8
-0.153, 2.683e-8
-0.154, 2.690e-8
-0.155, 2.708e-8
-0.156, 2.723e-8
-0.157, 2.717e-8
-0.158, 2.730e-8
-0.159, 2.745e-8
-0.160, 2.757e-8
-0.161, 2.766e-8
-0.162, 2.766e-8
-0.163, 2.788e-8
-0.164, 2.803e-8
-0.165, 2.803e-8
-0.166, 2.813e-8
-0.167, 2.828e-8
-0.168, 2.846e-8
-0.169, 2.859e-8
-0.170, 2.856e-8
-0.171, 2.874e-8
-0.172, 2.899e-8
-0.173, 2.902e-8
-0.174, 2.908e-8
-0.175, 2.923e-8
-0.176, 2.945e-8
-0.177, 2.960e-8
-0.178, 2.960e-8
-0.179, 2.976e-8
-0.180, 3.000e-8
-0.181, 3.013e-8
-0.182, 3.022e-8
-0.183, 3.028e-8
-0.184, 3.053e-8
-0.185, 3.071e-8
-0.186, 3.077e-8
-0.187, 3.086e-8
-0.188, 3.114e-8
-0.189, 3.129e-8
-0.190, 3.142e-8
-0.191, 3.154e-8
-0.192, 3.173e-8
-0.193, 3.200e-8
-0.194, 3.206e-8
-0.195, 3.213e-8
-0.196, 3.240e-8
-0.197, 3.262e-8
-0.198, 3.277e-8
-0.199, 3.286e-8
