Mar. 16, 2023   09:25:08
Cyclic Voltammetry
File: c:/users/oliverrz/desktop/electrolab/data/2023_03_16\fcmeoh_macros_500_um\electrode6_cv_200mvs_500_um.bin
Data Source:  Experiment
Instrument Model:  CHI760E
Header: CV
Note: 

Init E (V) = -0.2
High E (V) = 0.3
Low E (V) = -0.2
Final E (V) = -0.2
Init P/N = P
Scan Rate (V/s) = 0.2
Segment = 3
Sample Interval (V) = 0.001
Quiet Time (sec) = 2
Sensitivity (A/V) = 1e-7

Results:

Channel 1:
Segment 1:
Ep = 0.103V
ip = -3.859e-8A
Ah = -1.152e-8C

Segment 2:
Ep = 0.042V
ip = 3.936e-8A
Ah = 1.195e-8C

Segment 3:

Potential/V, Current/A

-0.200, 1.447e-8
-0.199, 1.307e-8
-0.198, 1.274e-8
-0.197, 1.237e-8
-0.196, 1.209e-8
-0.195, 1.198e-8
-0.194, 1.170e-8
-0.193, 1.139e-8
-0.192, 1.132e-8
-0.191, 1.112e-8
-0.190, 1.083e-8
-0.189, 1.072e-8
-0.188, 1.058e-8
-0.187, 1.034e-8
-0.186, 1.016e-8
-0.185, 1.007e-8
-0.184, 9.877e-9
-0.183, 9.631e-9
-0.182, 9.587e-9
-0.181, 9.429e-9
-0.180, 9.167e-9
-0.179, 9.075e-9
-0.178, 8.999e-9
-0.177, 8.728e-9
-0.176, 8.606e-9
-0.175, 8.560e-9
-0.174, 8.354e-9
-0.173, 8.153e-9
-0.172, 8.105e-9
-0.171, 7.983e-9
-0.170, 7.752e-9
-0.169, 7.661e-9
-0.168, 7.615e-9
-0.167, 7.382e-9
-0.166, 7.237e-9
-0.165, 7.243e-9
-0.164, 7.030e-9
-0.163, 6.859e-9
-0.162, 6.846e-9
-0.161, 6.709e-9
-0.160, 6.518e-9
-0.159, 6.437e-9
-0.158, 6.379e-9
-0.157, 6.190e-9
-0.156, 6.057e-9
-0.155, 6.059e-9
-0.154, 5.885e-9
-0.153, 5.696e-9
-0.152, 5.705e-9
-0.151, 5.593e-9
-0.150, 5.382e-9
-0.149, 5.344e-9
-0.148, 5.292e-9
-0.147, 5.112e-9
-0.146, 4.998e-9
-0.145, 4.994e-9
-0.144, 4.847e-9
-0.143, 4.673e-9
-0.142, 4.679e-9
-0.141, 4.584e-9
-0.140, 4.377e-9
-0.139, 4.360e-9
-0.138, 4.331e-9
-0.137, 4.115e-9
-0.136, 4.051e-9
-0.135, 4.044e-9
-0.134, 3.902e-9
-0.133, 3.746e-9
-0.132, 3.749e-9
-0.131, 3.670e-9
-0.130, 3.497e-9
-0.129, 3.436e-9
-0.128, 3.429e-9
-0.127, 3.259e-9
-0.126, 3.152e-9
-0.125, 3.196e-9
-0.124, 3.031e-9
-0.123, 2.891e-9
-0.122, 2.936e-9
-0.121, 2.810e-9
-0.120, 2.661e-9
-0.119, 2.641e-9
-0.118, 2.593e-9
-0.117, 2.453e-9
-0.116, 2.350e-9
-0.115, 2.390e-9
-0.114, 2.261e-9
-0.113, 2.093e-9
-0.112, 2.151e-9
-0.111, 2.062e-9
-0.110, 1.879e-9
-0.109, 1.883e-9
-0.108, 1.851e-9
-0.107, 1.705e-9
-0.106, 1.622e-9
-0.105, 1.648e-9
-0.104, 1.529e-9
-0.103, 1.366e-9
-0.102, 1.403e-9
-0.101, 1.333e-9
-0.100, 1.174e-9
-0.099, 1.162e-9
-0.098, 1.168e-9
-0.097, 9.728e-10
-0.096, 9.384e-10
-0.095, 9.590e-10
-0.094, 8.198e-10
-0.093, 6.861e-10
-0.092, 7.247e-10
-0.091, 6.594e-10
-0.090, 4.873e-10
-0.089, 4.643e-10
-0.088, 4.769e-10
-0.087, 3.141e-10
-0.086, 2.433e-10
-0.085, 2.928e-10
-0.084, 1.455e-10
-0.083, 2.690e-11
-0.082, 7.770e-11
-0.081, -2.636e-11
-0.080, -1.472e-10
-0.079, -1.660e-10
-0.078, -1.830e-10
-0.077, -3.411e-10
-0.076, -4.138e-10
-0.075, -3.610e-10
-0.074, -4.861e-10
-0.073, -6.392e-10
-0.072, -5.714e-10
-0.071, -6.471e-10
-0.070, -8.190e-10
-0.069, -8.109e-10
-0.068, -8.351e-10
-0.067, -9.767e-10
-0.066, -1.048e-9
-0.065, -1.031e-9
-0.064, -1.141e-9
-0.063, -1.276e-9
-0.062, -1.239e-9
-0.061, -1.299e-9
-0.060, -1.475e-9
-0.059, -1.475e-9
-0.058, -1.483e-9
-0.057, -1.670e-9
-0.056, -1.718e-9
-0.055, -1.684e-9
-0.054, -1.840e-9
-0.053, -1.954e-9
-0.052, -1.934e-9
-0.051, -2.015e-9
-0.050, -2.175e-9
-0.049, -2.210e-9
-0.048, -2.198e-9
-0.047, -2.373e-9
-0.046, -2.467e-9
-0.045, -2.417e-9
-0.044, -2.588e-9
-0.043, -2.720e-9
-0.042, -2.676e-9
-0.041, -2.799e-9
-0.040, -2.959e-9
-0.039, -2.986e-9
-0.038, -3.036e-9
-0.037, -3.194e-9
-0.036, -3.312e-9
-0.035, -3.274e-9
-0.034, -3.433e-9
-0.033, -3.597e-9
-0.032, -3.566e-9
-0.031, -3.696e-9
-0.030, -3.895e-9
-0.029, -3.909e-9
-0.028, -3.988e-9
-0.027, -4.171e-9
-0.026, -4.290e-9
-0.025, -4.322e-9
-0.024, -4.473e-9
-0.023, -4.654e-9
-0.022, -4.694e-9
-0.021, -4.790e-9
-0.020, -5.046e-9
-0.019, -5.076e-9
-0.018, -5.173e-9
-0.017, -5.410e-9
-0.016, -5.532e-9
-0.015, -5.572e-9
-0.014, -5.820e-9
-0.013, -5.996e-9
-0.012, -6.063e-9
-0.011, -6.219e-9
-0.010, -6.483e-9
-0.009, -6.593e-9
-0.008, -6.693e-9
-0.007, -6.966e-9
-0.006, -7.164e-9
-0.005, -7.228e-9
-0.004, -7.526e-9
-0.003, -7.752e-9
-0.002, -7.851e-9
-0.001, -8.102e-9
-0.000, -8.529e-9
0.001, -8.583e-9
0.002, -8.777e-9
0.003, -9.065e-9
0.004, -9.314e-9
0.005, -9.448e-9
0.006, -9.767e-9
0.007, -1.009e-8
0.008, -1.026e-8
0.009, -1.054e-8
0.010, -1.092e-8
0.011, -1.113e-8
0.012, -1.141e-8
0.013, -1.177e-8
0.014, -1.209e-8
0.015, -1.234e-8
0.016, -1.271e-8
0.017, -1.310e-8
0.018, -1.337e-8
0.019, -1.371e-8
0.020, -1.422e-8
0.021, -1.447e-8
0.022, -1.483e-8
0.023, -1.534e-8
0.024, -1.573e-8
0.025, -1.606e-8
0.026, -1.657e-8
0.027, -1.702e-8
0.028, -1.739e-8
0.029, -1.783e-8
0.030, -1.837e-8
0.031, -1.880e-8
0.032, -1.922e-8
0.033, -1.979e-8
0.034, -2.030e-8
0.035, -2.068e-8
0.036, -2.131e-8
0.037, -2.184e-8
0.038, -2.231e-8
0.039, -2.290e-8
0.040, -2.349e-8
0.041, -2.399e-8
0.042, -2.456e-8
0.043, -2.515e-8
0.044, -2.579e-8
0.045, -2.623e-8
0.046, -2.692e-8
0.047, -2.758e-8
0.048, -2.803e-8
0.049, -2.870e-8
0.050, -2.938e-8
0.051, -2.995e-8
0.052, -3.056e-8
0.053, -3.122e-8
0.054, -3.185e-8
0.055, -3.239e-8
0.056, -3.305e-8
0.057, -3.373e-8
0.058, -3.426e-8
0.059, -3.487e-8
0.060, -3.560e-8
0.061, -3.610e-8
0.062, -3.670e-8
0.063, -3.740e-8
0.064, -3.796e-8
0.065, -3.848e-8
0.066, -3.915e-8
0.067, -3.972e-8
0.068, -4.024e-8
0.069, -4.078e-8
0.070, -4.139e-8
0.071, -4.189e-8
0.072, -4.236e-8
0.073, -4.294e-8
0.074, -4.344e-8
0.075, -4.381e-8
0.076, -4.439e-8
0.077, -4.486e-8
0.078, -4.520e-8
0.079, -4.569e-8
0.080, -4.610e-8
0.081, -4.646e-8
0.082, -4.683e-8
0.083, -4.718e-8
0.084, -4.758e-8
0.085, -4.774e-8
0.086, -4.814e-8
0.087, -4.850e-8
0.088, -4.860e-8
0.089, -4.891e-8
0.090, -4.923e-8
0.091, -4.933e-8
0.092, -4.955e-8
0.093, -4.973e-8
0.094, -4.991e-8
0.095, -4.998e-8
0.096, -5.014e-8
0.097, -5.028e-8
0.098, -5.030e-8
0.099, -5.037e-8
0.100, -5.051e-8
0.101, -5.046e-8
0.102, -5.053e-8
0.103, -5.062e-8
0.104, -5.055e-8
0.105, -5.046e-8
0.106, -5.051e-8
0.107, -5.049e-8
0.108, -5.036e-8
0.109, -5.026e-8
0.110, -5.030e-8
0.111, -5.014e-8
0.112, -5.001e-8
0.113, -4.997e-8
0.114, -4.986e-8
0.115, -4.962e-8
0.116, -4.959e-8
0.117, -4.946e-8
0.118, -4.920e-8
0.119, -4.910e-8
0.120, -4.897e-8
0.121, -4.875e-8
0.122, -4.855e-8
0.123, -4.841e-8
0.124, -4.825e-8
0.125, -4.794e-8
0.126, -4.782e-8
0.127, -4.769e-8
0.128, -4.738e-8
0.129, -4.720e-8
0.130, -4.709e-8
0.131, -4.676e-8
0.132, -4.656e-8
0.133, -4.639e-8
0.134, -4.617e-8
0.135, -4.588e-8
0.136, -4.571e-8
0.137, -4.554e-8
0.138, -4.523e-8
0.139, -4.500e-8
0.140, -4.491e-8
0.141, -4.460e-8
0.142, -4.435e-8
0.143, -4.423e-8
0.144, -4.398e-8
0.145, -4.367e-8
0.146, -4.356e-8
0.147, -4.335e-8
0.148, -4.306e-8
0.149, -4.285e-8
0.150, -4.274e-8
0.151, -4.246e-8
0.152, -4.220e-8
0.153, -4.209e-8
0.154, -4.190e-8
0.155, -4.157e-8
0.156, -4.148e-8
0.157, -4.130e-8
0.158, -4.100e-8
0.159, -4.085e-8
0.160, -4.072e-8
0.161, -4.045e-8
0.162, -4.025e-8
0.163, -4.013e-8
0.164, -3.996e-8
0.165, -3.966e-8
0.166, -3.957e-8
0.167, -3.946e-8
0.168, -3.915e-8
0.169, -3.900e-8
0.170, -3.894e-8
0.171, -3.867e-8
0.172, -3.849e-8
0.173, -3.839e-8
0.174, -3.821e-8
0.175, -3.799e-8
0.176, -3.789e-8
0.177, -3.778e-8
0.178, -3.754e-8
0.179, -3.741e-8
0.180, -3.736e-8
0.181, -3.713e-8
0.182, -3.695e-8
0.183, -3.691e-8
0.184, -3.674e-8
0.185, -3.651e-8
0.186, -3.647e-8
0.187, -3.637e-8
0.188, -3.615e-8
0.189, -3.602e-8
0.190, -3.599e-8
0.191, -3.581e-8
0.192, -3.564e-8
0.193, -3.561e-8
0.194, -3.550e-8
0.195, -3.526e-8
0.196, -3.525e-8
0.197, -3.517e-8
0.198, -3.494e-8
0.199, -3.489e-8
0.200, -3.486e-8
0.201, -3.467e-8
0.202, -3.454e-8
0.203, -3.452e-8
0.204, -3.444e-8
0.205, -3.423e-8
0.206, -3.421e-8
0.207, -3.417e-8
0.208, -3.396e-8
0.209, -3.389e-8
0.210, -3.390e-8
0.211, -3.371e-8
0.212, -3.362e-8
0.213, -3.362e-8
0.214, -3.352e-8
0.215, -3.336e-8
0.216, -3.334e-8
0.217, -3.331e-8
0.218, -3.315e-8
0.219, -3.308e-8
0.220, -3.311e-8
0.221, -3.294e-8
0.222, -3.284e-8
0.223, -3.288e-8
0.224, -3.278e-8
0.225, -3.263e-8
0.226, -3.265e-8
0.227, -3.263e-8
0.228, -3.247e-8
0.229, -3.243e-8
0.230, -3.246e-8
0.231, -3.234e-8
0.232, -3.224e-8
0.233, -3.226e-8
0.234, -3.223e-8
0.235, -3.206e-8
0.236, -3.211e-8
0.237, -3.209e-8
0.238, -3.194e-8
0.239, -3.193e-8
0.240, -3.197e-8
0.241, -3.183e-8
0.242, -3.179e-8
0.243, -3.182e-8
0.244, -3.178e-8
0.245, -3.164e-8
0.246, -3.168e-8
0.247, -3.171e-8
0.248, -3.155e-8
0.249, -3.155e-8
0.250, -3.163e-8
0.251, -3.149e-8
0.252, -3.148e-8
0.253, -3.151e-8
0.254, -3.147e-8
0.255, -3.138e-8
0.256, -3.143e-8
0.257, -3.144e-8
0.258, -3.134e-8
0.259, -3.132e-8
0.260, -3.143e-8
0.261, -3.132e-8
0.262, -3.126e-8
0.263, -3.138e-8
0.264, -3.132e-8
0.265, -3.123e-8
0.266, -3.131e-8
0.267, -3.134e-8
0.268, -3.125e-8
0.269, -3.126e-8
0.270, -3.135e-8
0.271, -3.128e-8
0.272, -3.124e-8
0.273, -3.134e-8
0.274, -3.133e-8
0.275, -3.125e-8
0.276, -3.135e-8
0.277, -3.138e-8
0.278, -3.128e-8
0.279, -3.136e-8
0.280, -3.143e-8
0.281, -3.138e-8
0.282, -3.138e-8
0.283, -3.146e-8
0.284, -3.149e-8
0.285, -3.140e-8
0.286, -3.150e-8
0.287, -3.160e-8
0.288, -3.148e-8
0.289, -3.155e-8
0.290, -3.169e-8
0.291, -3.161e-8
0.292, -3.163e-8
0.293, -3.174e-8
0.294, -3.177e-8
0.295, -3.171e-8
0.296, -3.183e-8
0.297, -3.191e-8
0.298, -3.184e-8
0.299, -3.191e-8
0.300, -2.871e-8
0.299, -2.575e-8
0.298, -2.507e-8
0.297, -2.468e-8
0.296, -2.430e-8
0.295, -2.387e-8
0.294, -2.366e-8
0.293, -2.344e-8
0.292, -2.306e-8
0.291, -2.290e-8
0.290, -2.276e-8
0.289, -2.245e-8
0.288, -2.226e-8
0.287, -2.216e-8
0.286, -2.196e-8
0.285, -2.173e-8
0.284, -2.162e-8
0.283, -2.152e-8
0.282, -2.126e-8
0.281, -2.114e-8
0.280, -2.111e-8
0.279, -2.088e-8
0.278, -2.074e-8
0.277, -2.072e-8
0.276, -2.055e-8
0.275, -2.037e-8
0.274, -2.033e-8
0.273, -2.024e-8
0.272, -2.004e-8
0.271, -1.997e-8
0.270, -1.996e-8
0.269, -1.977e-8
0.268, -1.963e-8
0.267, -1.965e-8
0.266, -1.953e-8
0.265, -1.933e-8
0.264, -1.935e-8
0.263, -1.929e-8
0.262, -1.909e-8
0.261, -1.906e-8
0.260, -1.904e-8
0.259, -1.890e-8
0.258, -1.879e-8
0.257, -1.878e-8
0.256, -1.870e-8
0.255, -1.853e-8
0.254, -1.854e-8
0.253, -1.851e-8
0.252, -1.831e-8
0.251, -1.830e-8
0.250, -1.831e-8
0.249, -1.814e-8
0.248, -1.807e-8
0.247, -1.809e-8
0.246, -1.799e-8
0.245, -1.784e-8
0.244, -1.783e-8
0.243, -1.784e-8
0.242, -1.766e-8
0.241, -1.762e-8
0.240, -1.766e-8
0.239, -1.748e-8
0.238, -1.742e-8
0.237, -1.745e-8
0.236, -1.735e-8
0.235, -1.723e-8
0.234, -1.725e-8
0.233, -1.720e-8
0.232, -1.704e-8
0.231, -1.702e-8
0.230, -1.705e-8
0.229, -1.691e-8
0.228, -1.681e-8
0.227, -1.687e-8
0.226, -1.678e-8
0.225, -1.663e-8
0.224, -1.668e-8
0.223, -1.663e-8
0.222, -1.647e-8
0.221, -1.647e-8
0.220, -1.647e-8
0.219, -1.635e-8
0.218, -1.624e-8
0.217, -1.629e-8
0.216, -1.621e-8
0.215, -1.606e-8
0.214, -1.610e-8
0.213, -1.607e-8
0.212, -1.588e-8
0.211, -1.589e-8
0.210, -1.591e-8
0.209, -1.574e-8
0.208, -1.569e-8
0.207, -1.571e-8
0.206, -1.562e-8
0.205, -1.548e-8
0.204, -1.547e-8
0.203, -1.548e-8
0.202, -1.530e-8
0.201, -1.527e-8
0.200, -1.531e-8
0.199, -1.513e-8
0.198, -1.505e-8
0.197, -1.509e-8
0.196, -1.496e-8
0.195, -1.483e-8
0.194, -1.485e-8
0.193, -1.480e-8
0.192, -1.463e-8
0.191, -1.459e-8
0.190, -1.461e-8
0.189, -1.444e-8
0.188, -1.433e-8
0.187, -1.437e-8
0.186, -1.425e-8
0.185, -1.408e-8
0.184, -1.410e-8
0.183, -1.404e-8
0.182, -1.385e-8
0.181, -1.381e-8
0.180, -1.378e-8
0.179, -1.362e-8
0.178, -1.349e-8
0.177, -1.350e-8
0.176, -1.338e-8
0.175, -1.320e-8
0.174, -1.318e-8
0.173, -1.312e-8
0.172, -1.287e-8
0.171, -1.283e-8
0.170, -1.279e-8
0.169, -1.257e-8
0.168, -1.246e-8
0.167, -1.242e-8
0.166, -1.226e-8
0.165, -1.207e-8
0.164, -1.200e-8
0.163, -1.193e-8
0.162, -1.166e-8
0.161, -1.157e-8
0.160, -1.152e-8
0.159, -1.126e-8
0.158, -1.110e-8
0.157, -1.104e-8
0.156, -1.081e-8
0.155, -1.061e-8
0.154, -1.049e-8
0.153, -1.035e-8
0.152, -1.007e-8
0.151, -9.927e-9
0.150, -9.800e-9
0.149, -9.535e-9
0.148, -9.272e-9
0.147, -9.211e-9
0.146, -8.941e-9
0.145, -8.633e-9
0.144, -8.514e-9
0.143, -8.286e-9
0.142, -7.935e-9
0.141, -7.750e-9
0.140, -7.537e-9
0.139, -7.209e-9
0.138, -6.921e-9
0.137, -6.724e-9
0.136, -6.429e-9
0.135, -6.035e-9
0.134, -5.837e-9
0.133, -5.556e-9
0.132, -5.095e-9
0.131, -4.869e-9
0.130, -4.595e-9
0.129, -4.135e-9
0.128, -3.782e-9
0.127, -3.503e-9
0.126, -3.122e-9
0.125, -2.682e-9
0.124, -2.348e-9
0.123, -2.008e-9
0.122, -1.472e-9
0.121, -1.106e-9
0.120, -7.768e-10
0.119, -2.219e-10
0.118, 2.200e-10
0.117, 5.859e-10
0.116, 1.121e-9
0.115, 1.640e-9
0.114, 2.040e-9
0.113, 2.531e-9
0.112, 3.089e-9
0.111, 3.585e-9
0.110, 4.033e-9
0.109, 4.616e-9
0.108, 5.184e-9
0.107, 5.625e-9
0.106, 6.228e-9
0.105, 6.842e-9
0.104, 7.330e-9
0.103, 7.910e-9
0.102, 8.602e-9
0.101, 9.100e-9
0.100, 9.671e-9
0.099, 1.030e-8
0.098, 1.090e-8
0.097, 1.147e-8
0.096, 1.205e-8
0.095, 1.277e-8
0.094, 1.328e-8
0.093, 1.385e-8
0.092, 1.462e-8
0.091, 1.513e-8
0.090, 1.573e-8
0.089, 1.643e-8
0.088, 1.700e-8
0.087, 1.757e-8
0.086, 1.820e-8
0.085, 1.885e-8
0.084, 1.942e-8
0.083, 1.992e-8
0.082, 2.063e-8
0.081, 2.117e-8
0.080, 2.167e-8
0.079, 2.236e-8
0.078, 2.286e-8
0.077, 2.337e-8
0.076, 2.397e-8
0.075, 2.449e-8
0.074, 2.495e-8
0.073, 2.545e-8
0.072, 2.602e-8
0.071, 2.645e-8
0.070, 2.683e-8
0.069, 2.736e-8
0.068, 2.781e-8
0.067, 2.810e-8
0.066, 2.856e-8
0.065, 2.900e-8
0.064, 2.930e-8
0.063, 2.966e-8
0.062, 3.006e-8
0.061, 3.029e-8
0.060, 3.060e-8
0.059, 3.092e-8
0.058, 3.120e-8
0.057, 3.137e-8
0.056, 3.163e-8
0.055, 3.193e-8
0.054, 3.202e-8
0.053, 3.222e-8
0.052, 3.252e-8
0.051, 3.257e-8
0.050, 3.265e-8
0.049, 3.287e-8
0.048, 3.293e-8
0.047, 3.298e-8
0.046, 3.307e-8
0.045, 3.318e-8
0.044, 3.319e-8
0.043, 3.315e-8
0.042, 3.330e-8
0.041, 3.325e-8
0.040, 3.318e-8
0.039, 3.328e-8
0.038, 3.324e-8
0.037, 3.311e-8
0.036, 3.315e-8
0.035, 3.308e-8
0.034, 3.297e-8
0.033, 3.287e-8
0.032, 3.289e-8
0.031, 3.275e-8
0.030, 3.259e-8
0.029, 3.254e-8
0.028, 3.248e-8
0.027, 3.223e-8
0.026, 3.218e-8
0.025, 3.211e-8
0.024, 3.187e-8
0.023, 3.175e-8
0.022, 3.168e-8
0.021, 3.146e-8
0.020, 3.130e-8
0.019, 3.118e-8
0.018, 3.105e-8
0.017, 3.082e-8
0.016, 3.068e-8
0.015, 3.060e-8
0.014, 3.034e-8
0.013, 3.016e-8
0.012, 3.014e-8
0.011, 2.986e-8
0.010, 2.965e-8
0.009, 2.959e-8
0.008, 2.941e-8
0.007, 2.917e-8
0.006, 2.903e-8
0.005, 2.893e-8
0.004, 2.870e-8
0.003, 2.848e-8
0.002, 2.845e-8
0.001, 2.823e-8
0.000, 2.813e-8
-0.001, 2.799e-8
-0.002, 2.781e-8
-0.003, 2.753e-8
-0.004, 2.745e-8
-0.005, 2.733e-8
-0.006, 2.710e-8
-0.007, 2.693e-8
-0.008, 2.690e-8
-0.009, 2.669e-8
-0.010, 2.649e-8
-0.011, 2.642e-8
-0.012, 2.632e-8
-0.013, 2.606e-8
-0.014, 2.598e-8
-0.015, 2.592e-8
-0.016, 2.567e-8
-0.017, 2.554e-8
-0.018, 2.553e-8
-0.019, 2.532e-8
-0.020, 2.518e-8
-0.021, 2.511e-8
-0.022, 2.501e-8
-0.023, 2.481e-8
-0.024, 2.473e-8
-0.025, 2.470e-8
-0.026, 2.451e-8
-0.027, 2.437e-8
-0.028, 2.440e-8
-0.029, 2.421e-8
-0.030, 2.404e-8
-0.031, 2.406e-8
-0.032, 2.395e-8
-0.033, 2.377e-8
-0.034, 2.374e-8
-0.035, 2.370e-8
-0.036, 2.355e-8
-0.037, 2.342e-8
-0.038, 2.347e-8
-0.039, 2.333e-8
-0.040, 2.317e-8
-0.041, 2.321e-8
-0.042, 2.314e-8
-0.043, 2.296e-8
-0.044, 2.297e-8
-0.045, 2.294e-8
-0.046, 2.279e-8
-0.047, 2.272e-8
-0.048, 2.277e-8
-0.049, 2.265e-8
-0.050, 2.253e-8
-0.051, 2.258e-8
-0.052, 2.255e-8
-0.053, 2.236e-8
-0.054, 2.239e-8
-0.055, 2.241e-8
-0.056, 2.226e-8
-0.057, 2.221e-8
-0.058, 2.229e-8
-0.059, 2.217e-8
-0.060, 2.209e-8
-0.061, 2.213e-8
-0.062, 2.211e-8
-0.063, 2.199e-8
-0.064, 2.200e-8
-0.065, 2.204e-8
-0.066, 2.192e-8
-0.067, 2.188e-8
-0.068, 2.199e-8
-0.069, 2.186e-8
-0.070, 2.180e-8
-0.071, 2.188e-8
-0.072, 2.186e-8
-0.073, 2.175e-8
-0.074, 2.180e-8
-0.075, 2.184e-8
-0.076, 2.177e-8
-0.077, 2.171e-8
-0.078, 2.183e-8
-0.079, 2.177e-8
-0.080, 2.168e-8
-0.081, 2.179e-8
-0.082, 2.179e-8
-0.083, 2.167e-8
-0.084, 2.177e-8
-0.085, 2.180e-8
-0.086, 2.173e-8
-0.087, 2.172e-8
-0.088, 2.183e-8
-0.089, 2.179e-8
-0.090, 2.173e-8
-0.091, 2.183e-8
-0.092, 2.187e-8
-0.093, 2.175e-8
-0.094, 2.185e-8
-0.095, 2.193e-8
-0.096, 2.185e-8
-0.097, 2.186e-8
-0.098, 2.200e-8
-0.099, 2.194e-8
-0.100, 2.194e-8
-0.101, 2.203e-8
-0.102, 2.209e-8
-0.103, 2.202e-8
-0.104, 2.210e-8
-0.105, 2.219e-8
-0.106, 2.213e-8
-0.107, 2.213e-8
-0.108, 2.233e-8
-0.109, 2.225e-8
-0.110, 2.224e-8
-0.111, 2.240e-8
-0.112, 2.242e-8
-0.113, 2.237e-8
-0.114, 2.248e-8
-0.115, 2.257e-8
-0.116, 2.256e-8
-0.117, 2.255e-8
-0.118, 2.274e-8
-0.119, 2.272e-8
-0.120, 2.270e-8
-0.121, 2.287e-8
-0.122, 2.292e-8
-0.123, 2.285e-8
-0.124, 2.302e-8
-0.125, 2.309e-8
-0.126, 2.309e-8
-0.127, 2.313e-8
-0.128, 2.332e-8
-0.129, 2.331e-8
-0.130, 2.331e-8
-0.131, 2.346e-8
-0.132, 2.357e-8
-0.133, 2.351e-8
-0.134, 2.365e-8
-0.135, 2.378e-8
-0.136, 2.377e-8
-0.137, 2.384e-8
-0.138, 2.402e-8
-0.139, 2.402e-8
-0.140, 2.407e-8
-0.141, 2.424e-8
-0.142, 2.433e-8
-0.143, 2.432e-8
-0.144, 2.445e-8
-0.145, 2.461e-8
-0.146, 2.461e-8
-0.147, 2.468e-8
-0.148, 2.491e-8
-0.149, 2.491e-8
-0.150, 2.494e-8
-0.151, 2.516e-8
-0.152, 2.524e-8
-0.153, 2.526e-8
-0.154, 2.542e-8
-0.155, 2.555e-8
-0.156, 2.561e-8
-0.157, 2.567e-8
-0.158, 2.590e-8
-0.159, 2.594e-8
-0.160, 2.598e-8
-0.161, 2.621e-8
-0.162, 2.631e-8
-0.163, 2.632e-8
-0.164, 2.653e-8
-0.165, 2.666e-8
-0.166, 2.672e-8
-0.167, 2.684e-8
-0.168, 2.705e-8
-0.169, 2.712e-8
-0.170, 2.718e-8
-0.171, 2.740e-8
-0.172, 2.756e-8
-0.173, 2.757e-8
-0.174, 2.777e-8
-0.175, 2.796e-8
-0.176, 2.800e-8
-0.177, 2.814e-8
-0.178, 2.839e-8
-0.179, 2.846e-8
-0.180, 2.857e-8
-0.181, 2.878e-8
-0.182, 2.894e-8
-0.183, 2.898e-8
-0.184, 2.919e-8
-0.185, 2.941e-8
-0.186, 2.948e-8
-0.187, 2.961e-8
-0.188, 2.992e-8
-0.189, 2.996e-8
-0.190, 3.007e-8
-0.191, 3.036e-8
-0.192, 3.050e-8
-0.193, 3.057e-8
-0.194, 3.081e-8
-0.195, 3.102e-8
-0.196, 3.113e-8
-0.197, 3.128e-8
-0.198, 3.156e-8
-0.199, 3.168e-8
