Mar. 16, 2023   09:23:37
Cyclic Voltammetry
File: c:/users/oliverrz/desktop/electrolab/data/2023_03_16\fcmeoh_macros_500_um\electrode5_cv_150mvs_500_um.bin
Data Source:  Experiment
Instrument Model:  CHI760E
Header: CV
Note: 

Init E (V) = -0.2
High E (V) = 0.3
Low E (V) = -0.2
Final E (V) = -0.2
Init P/N = P
Scan Rate (V/s) = 0.15
Segment = 3
Sample Interval (V) = 0.001
Quiet Time (sec) = 2
Sensitivity (A/V) = 1e-7

Results:

Channel 1:
Segment 1:
Ep = 0.081V
ip = -3.983e-8A
Ah = -1.611e-8C

Segment 2:
Ep = 0.023V
ip = 3.788e-8A
Ah = 1.523e-8C

Segment 3:

Potential/V, Current/A

-0.200, 3.437e-9
-0.199, 2.900e-9
-0.198, 3.032e-9
-0.197, 2.889e-9
-0.196, 2.846e-9
-0.195, 2.949e-9
-0.194, 2.711e-9
-0.193, 2.892e-9
-0.192, 2.755e-9
-0.191, 2.711e-9
-0.190, 2.835e-9
-0.189, 2.600e-9
-0.188, 2.773e-9
-0.187, 2.660e-9
-0.186, 2.614e-9
-0.185, 2.730e-9
-0.184, 2.522e-9
-0.183, 2.689e-9
-0.182, 2.555e-9
-0.181, 2.537e-9
-0.180, 2.641e-9
-0.179, 2.413e-9
-0.178, 2.617e-9
-0.177, 2.468e-9
-0.176, 2.447e-9
-0.175, 2.586e-9
-0.174, 2.337e-9
-0.173, 2.531e-9
-0.172, 2.413e-9
-0.171, 2.364e-9
-0.170, 2.502e-9
-0.169, 2.276e-9
-0.168, 2.458e-9
-0.167, 2.335e-9
-0.166, 2.305e-9
-0.165, 2.432e-9
-0.164, 2.203e-9
-0.163, 2.399e-9
-0.162, 2.269e-9
-0.161, 2.229e-9
-0.160, 2.378e-9
-0.159, 2.140e-9
-0.158, 2.323e-9
-0.157, 2.215e-9
-0.156, 2.168e-9
-0.155, 2.301e-9
-0.154, 2.088e-9
-0.153, 2.263e-9
-0.152, 2.144e-9
-0.151, 2.125e-9
-0.150, 2.235e-9
-0.149, 2.020e-9
-0.148, 2.218e-9
-0.147, 2.078e-9
-0.146, 2.057e-9
-0.145, 2.186e-9
-0.144, 1.966e-9
-0.143, 2.154e-9
-0.142, 2.024e-9
-0.141, 1.997e-9
-0.140, 2.127e-9
-0.139, 1.905e-9
-0.138, 2.098e-9
-0.137, 1.963e-9
-0.136, 1.948e-9
-0.135, 2.073e-9
-0.134, 1.839e-9
-0.133, 2.046e-9
-0.132, 1.906e-9
-0.131, 1.883e-9
-0.130, 2.023e-9
-0.129, 1.779e-9
-0.128, 1.981e-9
-0.127, 1.860e-9
-0.126, 1.819e-9
-0.125, 1.962e-9
-0.124, 1.732e-9
-0.123, 1.917e-9
-0.122, 1.802e-9
-0.121, 1.763e-9
-0.120, 1.899e-9
-0.119, 1.678e-9
-0.118, 1.860e-9
-0.117, 1.739e-9
-0.116, 1.703e-9
-0.115, 1.836e-9
-0.114, 1.608e-9
-0.113, 1.788e-9
-0.112, 1.679e-9
-0.111, 1.642e-9
-0.110, 1.760e-9
-0.109, 1.550e-9
-0.108, 1.728e-9
-0.107, 1.603e-9
-0.106, 1.579e-9
-0.105, 1.690e-9
-0.104, 1.468e-9
-0.103, 1.660e-9
-0.102, 1.518e-9
-0.101, 1.493e-9
-0.100, 1.624e-9
-0.099, 1.381e-9
-0.098, 1.580e-9
-0.097, 1.444e-9
-0.096, 1.412e-9
-0.095, 1.536e-9
-0.094, 1.296e-9
-0.093, 1.490e-9
-0.092, 1.352e-9
-0.091, 1.320e-9
-0.090, 1.440e-9
-0.089, 1.195e-9
-0.088, 1.396e-9
-0.087, 1.250e-9
-0.086, 1.207e-9
-0.085, 1.338e-9
-0.084, 1.093e-9
-0.083, 1.274e-9
-0.082, 1.141e-9
-0.081, 1.086e-9
-0.080, 1.209e-9
-0.079, 9.765e-10
-0.078, 1.143e-9
-0.077, 9.985e-10
-0.076, 9.566e-10
-0.075, 1.064e-9
-0.074, 8.218e-10
-0.073, 9.949e-10
-0.072, 8.465e-10
-0.071, 7.992e-10
-0.070, 8.960e-10
-0.069, 6.572e-10
-0.068, 8.170e-10
-0.067, 6.605e-10
-0.066, 6.147e-10
-0.065, 6.948e-10
-0.064, 4.514e-10
-0.063, 6.098e-10
-0.062, 4.388e-10
-0.061, 3.951e-10
-0.060, 4.704e-10
-0.059, 2.157e-10
-0.058, 3.701e-10
-0.057, 1.932e-10
-0.056, 1.313e-10
-0.055, 2.166e-10
-0.054, -6.266e-11
-0.053, 8.627e-11
-0.052, -9.711e-11
-0.051, -1.802e-10
-0.050, -9.940e-11
-0.049, -3.881e-10
-0.048, -2.413e-10
-0.047, -4.420e-10
-0.046, -5.342e-10
-0.045, -4.709e-10
-0.044, -7.695e-10
-0.043, -6.445e-10
-0.042, -8.471e-10
-0.041, -9.637e-10
-0.040, -9.007e-10
-0.039, -1.219e-9
-0.038, -1.123e-9
-0.037, -1.326e-9
-0.036, -1.455e-9
-0.035, -1.433e-9
-0.034, -1.745e-9
-0.033, -1.671e-9
-0.032, -1.907e-9
-0.031, -2.041e-9
-0.030, -2.053e-9
-0.029, -2.378e-9
-0.028, -2.323e-9
-0.027, -2.590e-9
-0.026, -2.743e-9
-0.025, -2.778e-9
-0.024, -3.136e-9
-0.023, -3.096e-9
-0.022, -3.392e-9
-0.021, -3.566e-9
-0.020, -3.621e-9
-0.019, -4.007e-9
-0.018, -4.000e-9
-0.017, -4.325e-9
-0.016, -4.522e-9
-0.015, -4.625e-9
-0.014, -5.046e-9
-0.013, -5.064e-9
-0.012, -5.430e-9
-0.011, -5.668e-9
-0.010, -5.773e-9
-0.009, -6.262e-9
-0.008, -6.298e-9
-0.007, -6.696e-9
-0.006, -6.993e-9
-0.005, -7.131e-9
-0.004, -7.644e-9
-0.003, -7.755e-9
-0.002, -8.166e-9
-0.001, -8.509e-9
-0.000, -8.826e-9
0.001, -9.270e-9
0.002, -9.427e-9
0.003, -9.891e-9
0.004, -1.026e-8
0.005, -1.049e-8
0.006, -1.106e-8
0.007, -1.127e-8
0.008, -1.177e-8
0.009, -1.218e-8
0.010, -1.249e-8
0.011, -1.309e-8
0.012, -1.335e-8
0.013, -1.389e-8
0.014, -1.433e-8
0.015, -1.470e-8
0.016, -1.532e-8
0.017, -1.561e-8
0.018, -1.624e-8
0.019, -1.668e-8
0.020, -1.708e-8
0.021, -1.777e-8
0.022, -1.806e-8
0.023, -1.873e-8
0.024, -1.922e-8
0.025, -1.964e-8
0.026, -2.036e-8
0.027, -2.069e-8
0.028, -2.135e-8
0.029, -2.188e-8
0.030, -2.231e-8
0.031, -2.305e-8
0.032, -2.339e-8
0.033, -2.407e-8
0.034, -2.461e-8
0.035, -2.503e-8
0.036, -2.580e-8
0.037, -2.612e-8
0.038, -2.678e-8
0.039, -2.734e-8
0.040, -2.774e-8
0.041, -2.845e-8
0.042, -2.882e-8
0.043, -2.941e-8
0.044, -2.995e-8
0.045, -3.032e-8
0.046, -3.099e-8
0.047, -3.135e-8
0.048, -3.192e-8
0.049, -3.239e-8
0.050, -3.277e-8
0.051, -3.339e-8
0.052, -3.363e-8
0.053, -3.419e-8
0.054, -3.460e-8
0.055, -3.489e-8
0.056, -3.545e-8
0.057, -3.566e-8
0.058, -3.611e-8
0.059, -3.647e-8
0.060, -3.670e-8
0.061, -3.716e-8
0.062, -3.729e-8
0.063, -3.773e-8
0.064, -3.796e-8
0.065, -3.813e-8
0.066, -3.855e-8
0.067, -3.856e-8
0.068, -3.892e-8
0.069, -3.910e-8
0.070, -3.916e-8
0.071, -3.953e-8
0.072, -3.945e-8
0.073, -3.972e-8
0.074, -3.985e-8
0.075, -3.981e-8
0.076, -4.011e-8
0.077, -4.001e-8
0.078, -4.016e-8
0.079, -4.022e-8
0.080, -4.013e-8
0.081, -4.036e-8
0.082, -4.015e-8
0.083, -4.027e-8
0.084, -4.027e-8
0.085, -4.011e-8
0.086, -4.027e-8
0.087, -4.006e-8
0.088, -4.007e-8
0.089, -4.005e-8
0.090, -3.985e-8
0.091, -3.994e-8
0.092, -3.967e-8
0.093, -3.968e-8
0.094, -3.956e-8
0.095, -3.938e-8
0.096, -3.940e-8
0.097, -3.908e-8
0.098, -3.910e-8
0.099, -3.895e-8
0.100, -3.867e-8
0.101, -3.873e-8
0.102, -3.840e-8
0.103, -3.837e-8
0.104, -3.819e-8
0.105, -3.791e-8
0.106, -3.795e-8
0.107, -3.758e-8
0.108, -3.754e-8
0.109, -3.735e-8
0.110, -3.706e-8
0.111, -3.710e-8
0.112, -3.670e-8
0.113, -3.666e-8
0.114, -3.649e-8
0.115, -3.618e-8
0.116, -3.622e-8
0.117, -3.583e-8
0.118, -3.575e-8
0.119, -3.560e-8
0.120, -3.528e-8
0.121, -3.529e-8
0.122, -3.494e-8
0.123, -3.488e-8
0.124, -3.470e-8
0.125, -3.440e-8
0.126, -3.442e-8
0.127, -3.405e-8
0.128, -3.400e-8
0.129, -3.383e-8
0.130, -3.353e-8
0.131, -3.356e-8
0.132, -3.320e-8
0.133, -3.315e-8
0.134, -3.298e-8
0.135, -3.270e-8
0.136, -3.273e-8
0.137, -3.237e-8
0.138, -3.235e-8
0.139, -3.217e-8
0.140, -3.191e-8
0.141, -3.196e-8
0.142, -3.159e-8
0.143, -3.158e-8
0.144, -3.142e-8
0.145, -3.114e-8
0.146, -3.122e-8
0.147, -3.086e-8
0.148, -3.084e-8
0.149, -3.071e-8
0.150, -3.043e-8
0.151, -3.051e-8
0.152, -3.016e-8
0.153, -3.017e-8
0.154, -3.003e-8
0.155, -2.978e-8
0.156, -2.986e-8
0.157, -2.952e-8
0.158, -2.953e-8
0.159, -2.942e-8
0.160, -2.916e-8
0.161, -2.926e-8
0.162, -2.894e-8
0.163, -2.894e-8
0.164, -2.883e-8
0.165, -2.860e-8
0.166, -2.869e-8
0.167, -2.839e-8
0.168, -2.840e-8
0.169, -2.829e-8
0.170, -2.807e-8
0.171, -2.817e-8
0.172, -2.787e-8
0.173, -2.789e-8
0.174, -2.780e-8
0.175, -2.758e-8
0.176, -2.769e-8
0.177, -2.739e-8
0.178, -2.742e-8
0.179, -2.734e-8
0.180, -2.713e-8
0.181, -2.724e-8
0.182, -2.695e-8
0.183, -2.700e-8
0.184, -2.690e-8
0.185, -2.670e-8
0.186, -2.684e-8
0.187, -2.654e-8
0.188, -2.659e-8
0.189, -2.651e-8
0.190, -2.630e-8
0.191, -2.645e-8
0.192, -2.617e-8
0.193, -2.622e-8
0.194, -2.615e-8
0.195, -2.595e-8
0.196, -2.608e-8
0.197, -2.581e-8
0.198, -2.587e-8
0.199, -2.581e-8
0.200, -2.561e-8
0.201, -2.575e-8
0.202, -2.549e-8
0.203, -2.555e-8
0.204, -2.549e-8
0.205, -2.530e-8
0.206, -2.545e-8
0.207, -2.519e-8
0.208, -2.525e-8
0.209, -2.519e-8
0.210, -2.502e-8
0.211, -2.516e-8
0.212, -2.491e-8
0.213, -2.499e-8
0.214, -2.491e-8
0.215, -2.476e-8
0.216, -2.490e-8
0.217, -2.463e-8
0.218, -2.474e-8
0.219, -2.467e-8
0.220, -2.450e-8
0.221, -2.466e-8
0.222, -2.440e-8
0.223, -2.449e-8
0.224, -2.443e-8
0.225, -2.426e-8
0.226, -2.443e-8
0.227, -2.418e-8
0.228, -2.426e-8
0.229, -2.421e-8
0.230, -2.406e-8
0.231, -2.422e-8
0.232, -2.396e-8
0.233, -2.406e-8
0.234, -2.402e-8
0.235, -2.384e-8
0.236, -2.402e-8
0.237, -2.377e-8
0.238, -2.386e-8
0.239, -2.383e-8
0.240, -2.366e-8
0.241, -2.383e-8
0.242, -2.360e-8
0.243, -2.369e-8
0.244, -2.365e-8
0.245, -2.350e-8
0.246, -2.366e-8
0.247, -2.342e-8
0.248, -2.353e-8
0.249, -2.348e-8
0.250, -2.334e-8
0.251, -2.352e-8
0.252, -2.327e-8
0.253, -2.337e-8
0.254, -2.334e-8
0.255, -2.319e-8
0.256, -2.336e-8
0.257, -2.313e-8
0.258, -2.323e-8
0.259, -2.319e-8
0.260, -2.306e-8
0.261, -2.323e-8
0.262, -2.298e-8
0.263, -2.311e-8
0.264, -2.306e-8
0.265, -2.292e-8
0.266, -2.312e-8
0.267, -2.286e-8
0.268, -2.298e-8
0.269, -2.296e-8
0.270, -2.280e-8
0.271, -2.300e-8
0.272, -2.275e-8
0.273, -2.286e-8
0.274, -2.285e-8
0.275, -2.270e-8
0.276, -2.288e-8
0.277, -2.266e-8
0.278, -2.277e-8
0.279, -2.275e-8
0.280, -2.260e-8
0.281, -2.281e-8
0.282, -2.257e-8
0.283, -2.269e-8
0.284, -2.267e-8
0.285, -2.252e-8
0.286, -2.272e-8
0.287, -2.250e-8
0.288, -2.260e-8
0.289, -2.259e-8
0.290, -2.247e-8
0.291, -2.264e-8
0.292, -2.243e-8
0.293, -2.256e-8
0.294, -2.252e-8
0.295, -2.241e-8
0.296, -2.259e-8
0.297, -2.236e-8
0.298, -2.251e-8
0.299, -2.247e-8
0.300, -2.083e-8
0.299, -2.017e-8
0.298, -1.973e-8
0.297, -1.969e-8
0.296, -1.956e-8
0.295, -1.931e-8
0.294, -1.940e-8
0.293, -1.911e-8
0.292, -1.914e-8
0.291, -1.905e-8
0.290, -1.886e-8
0.289, -1.898e-8
0.288, -1.869e-8
0.287, -1.876e-8
0.286, -1.868e-8
0.285, -1.850e-8
0.284, -1.863e-8
0.283, -1.837e-8
0.282, -1.844e-8
0.281, -1.837e-8
0.280, -1.821e-8
0.279, -1.835e-8
0.278, -1.810e-8
0.277, -1.819e-8
0.276, -1.810e-8
0.275, -1.796e-8
0.274, -1.811e-8
0.273, -1.784e-8
0.272, -1.795e-8
0.271, -1.790e-8
0.270, -1.772e-8
0.269, -1.790e-8
0.268, -1.763e-8
0.267, -1.773e-8
0.266, -1.769e-8
0.265, -1.751e-8
0.264, -1.769e-8
0.263, -1.744e-8
0.262, -1.754e-8
0.261, -1.749e-8
0.260, -1.733e-8
0.259, -1.751e-8
0.258, -1.725e-8
0.257, -1.735e-8
0.256, -1.731e-8
0.255, -1.715e-8
0.254, -1.733e-8
0.253, -1.709e-8
0.252, -1.717e-8
0.251, -1.714e-8
0.250, -1.700e-8
0.249, -1.716e-8
0.248, -1.692e-8
0.247, -1.703e-8
0.246, -1.698e-8
0.245, -1.683e-8
0.244, -1.700e-8
0.243, -1.676e-8
0.242, -1.687e-8
0.241, -1.682e-8
0.240, -1.668e-8
0.239, -1.685e-8
0.238, -1.661e-8
0.237, -1.673e-8
0.236, -1.667e-8
0.235, -1.654e-8
0.234, -1.671e-8
0.233, -1.646e-8
0.232, -1.659e-8
0.231, -1.653e-8
0.230, -1.638e-8
0.229, -1.657e-8
0.228, -1.631e-8
0.227, -1.644e-8
0.226, -1.639e-8
0.225, -1.624e-8
0.224, -1.643e-8
0.223, -1.618e-8
0.222, -1.628e-8
0.221, -1.625e-8
0.220, -1.610e-8
0.219, -1.628e-8
0.218, -1.603e-8
0.217, -1.614e-8
0.216, -1.610e-8
0.215, -1.596e-8
0.214, -1.613e-8
0.213, -1.590e-8
0.212, -1.600e-8
0.211, -1.596e-8
0.210, -1.581e-8
0.209, -1.599e-8
0.208, -1.575e-8
0.207, -1.586e-8
0.206, -1.581e-8
0.205, -1.566e-8
0.204, -1.582e-8
0.203, -1.560e-8
0.202, -1.570e-8
0.201, -1.564e-8
0.200, -1.552e-8
0.199, -1.568e-8
0.198, -1.543e-8
0.197, -1.555e-8
0.196, -1.548e-8
0.195, -1.535e-8
0.194, -1.552e-8
0.193, -1.526e-8
0.192, -1.538e-8
0.191, -1.533e-8
0.190, -1.516e-8
0.189, -1.535e-8
0.188, -1.508e-8
0.187, -1.519e-8
0.186, -1.514e-8
0.185, -1.498e-8
0.184, -1.514e-8
0.183, -1.489e-8
0.182, -1.500e-8
0.181, -1.493e-8
0.180, -1.477e-8
0.179, -1.495e-8
0.178, -1.468e-8
0.177, -1.477e-8
0.176, -1.473e-8
0.175, -1.455e-8
0.174, -1.471e-8
0.173, -1.447e-8
0.172, -1.453e-8
0.171, -1.449e-8
0.170, -1.433e-8
0.169, -1.445e-8
0.168, -1.420e-8
0.167, -1.429e-8
0.166, -1.419e-8
0.165, -1.405e-8
0.164, -1.418e-8
0.163, -1.391e-8
0.162, -1.399e-8
0.161, -1.390e-8
0.160, -1.373e-8
0.159, -1.386e-8
0.158, -1.358e-8
0.157, -1.365e-8
0.156, -1.355e-8
0.155, -1.338e-8
0.154, -1.348e-8
0.153, -1.321e-8
0.152, -1.327e-8
0.151, -1.315e-8
0.150, -1.297e-8
0.149, -1.309e-8
0.148, -1.276e-8
0.147, -1.283e-8
0.146, -1.270e-8
0.145, -1.247e-8
0.144, -1.260e-8
0.143, -1.227e-8
0.142, -1.230e-8
0.141, -1.217e-8
0.140, -1.194e-8
0.139, -1.202e-8
0.138, -1.170e-8
0.137, -1.170e-8
0.136, -1.155e-8
0.135, -1.131e-8
0.134, -1.136e-8
0.133, -1.101e-8
0.132, -1.100e-8
0.131, -1.084e-8
0.130, -1.056e-8
0.129, -1.059e-8
0.128, -1.021e-8
0.127, -1.017e-8
0.126, -9.979e-9
0.125, -9.697e-9
0.124, -9.676e-9
0.123, -9.303e-9
0.122, -9.235e-9
0.121, -8.988e-9
0.120, -8.690e-9
0.119, -8.652e-9
0.118, -8.213e-9
0.117, -8.130e-9
0.116, -7.847e-9
0.115, -7.511e-9
0.114, -7.451e-9
0.113, -6.957e-9
0.112, -6.848e-9
0.111, -6.539e-9
0.110, -6.153e-9
0.109, -6.059e-9
0.108, -5.531e-9
0.107, -5.399e-9
0.106, -5.040e-9
0.105, -4.612e-9
0.104, -4.484e-9
0.103, -3.901e-9
0.102, -3.705e-9
0.101, -3.338e-9
0.100, -2.848e-9
0.099, -2.691e-9
0.098, -2.098e-9
0.097, -1.827e-9
0.096, -1.427e-9
0.095, -9.006e-10
0.094, -6.794e-10
0.093, -5.069e-11
0.092, 2.560e-10
0.091, 7.161e-10
0.090, 1.281e-9
0.089, 1.562e-9
0.088, 2.223e-9
0.087, 2.570e-9
0.086, 3.059e-9
0.085, 3.636e-9
0.084, 3.984e-9
0.083, 4.655e-9
0.082, 5.028e-9
0.081, 5.589e-9
0.080, 6.155e-9
0.079, 6.545e-9
0.078, 7.253e-9
0.077, 7.654e-9
0.076, 8.258e-9
0.075, 8.842e-9
0.074, 9.209e-9
0.073, 9.976e-9
0.072, 1.036e-8
0.071, 1.095e-8
0.070, 1.157e-8
0.069, 1.194e-8
0.068, 1.270e-8
0.067, 1.306e-8
0.066, 1.365e-8
0.065, 1.430e-8
0.064, 1.464e-8
0.063, 1.537e-8
0.062, 1.576e-8
0.061, 1.630e-8
0.060, 1.693e-8
0.059, 1.722e-8
0.058, 1.794e-8
0.057, 1.828e-8
0.056, 1.879e-8
0.055, 1.938e-8
0.054, 1.963e-8
0.053, 2.029e-8
0.052, 2.062e-8
0.051, 2.104e-8
0.050, 2.156e-8
0.049, 2.180e-8
0.048, 2.235e-8
0.047, 2.261e-8
0.046, 2.298e-8
0.045, 2.339e-8
0.044, 2.361e-8
0.043, 2.409e-8
0.042, 2.423e-8
0.041, 2.460e-8
0.040, 2.494e-8
0.039, 2.502e-8
0.038, 2.548e-8
0.037, 2.556e-8
0.036, 2.580e-8
0.035, 2.605e-8
0.034, 2.607e-8
0.033, 2.645e-8
0.032, 2.643e-8
0.031, 2.662e-8
0.030, 2.681e-8
0.029, 2.675e-8
0.028, 2.706e-8
0.027, 2.696e-8
0.026, 2.709e-8
0.025, 2.724e-8
0.024, 2.706e-8
0.023, 2.732e-8
0.022, 2.717e-8
0.021, 2.721e-8
0.020, 2.732e-8
0.019, 2.707e-8
0.018, 2.727e-8
0.017, 2.709e-8
0.016, 2.704e-8
0.015, 2.710e-8
0.014, 2.685e-8
0.013, 2.696e-8
0.012, 2.675e-8
0.011, 2.667e-8
0.010, 2.667e-8
0.009, 2.639e-8
0.008, 2.648e-8
0.007, 2.621e-8
0.006, 2.612e-8
0.005, 2.608e-8
0.004, 2.577e-8
0.003, 2.582e-8
0.002, 2.555e-8
0.001, 2.543e-8
0.000, 2.547e-8
-0.001, 2.508e-8
-0.002, 2.511e-8
-0.003, 2.479e-8
-0.004, 2.468e-8
-0.005, 2.457e-8
-0.006, 2.422e-8
-0.007, 2.429e-8
-0.008, 2.394e-8
-0.009, 2.381e-8
-0.010, 2.375e-8
-0.011, 2.337e-8
-0.012, 2.342e-8
-0.013, 2.309e-8
-0.014, 2.295e-8
-0.015, 2.288e-8
-0.016, 2.251e-8
-0.017, 2.255e-8
-0.018, 2.222e-8
-0.019, 2.209e-8
-0.020, 2.202e-8
-0.021, 2.165e-8
-0.022, 2.169e-8
-0.023, 2.138e-8
-0.024, 2.124e-8
-0.025, 2.118e-8
-0.026, 2.082e-8
-0.027, 2.086e-8
-0.028, 2.057e-8
-0.029, 2.042e-8
-0.030, 2.037e-8
-0.031, 2.003e-8
-0.032, 2.007e-8
-0.033, 1.977e-8
-0.034, 1.966e-8
-0.035, 1.958e-8
-0.036, 1.927e-8
-0.037, 1.932e-8
-0.038, 1.903e-8
-0.039, 1.892e-8
-0.040, 1.886e-8
-0.041, 1.853e-8
-0.042, 1.861e-8
-0.043, 1.832e-8
-0.044, 1.822e-8
-0.045, 1.817e-8
-0.046, 1.786e-8
-0.047, 1.795e-8
-0.048, 1.766e-8
-0.049, 1.757e-8
-0.050, 1.755e-8
-0.051, 1.722e-8
-0.052, 1.733e-8
-0.053, 1.704e-8
-0.054, 1.696e-8
-0.055, 1.695e-8
-0.056, 1.663e-8
-0.057, 1.674e-8
-0.058, 1.648e-8
-0.059, 1.639e-8
-0.060, 1.639e-8
-0.061, 1.608e-8
-0.062, 1.619e-8
-0.063, 1.594e-8
-0.064, 1.587e-8
-0.065, 1.586e-8
-0.066, 1.557e-8
-0.067, 1.569e-8
-0.068, 1.545e-8
-0.069, 1.538e-8
-0.070, 1.538e-8
-0.071, 1.510e-8
-0.072, 1.522e-8
-0.073, 1.498e-8
-0.074, 1.493e-8
-0.075, 1.493e-8
-0.076, 1.467e-8
-0.077, 1.479e-8
-0.078, 1.456e-8
-0.079, 1.453e-8
-0.080, 1.453e-8
-0.081, 1.426e-8
-0.082, 1.441e-8
-0.083, 1.417e-8
-0.084, 1.414e-8
-0.085, 1.416e-8
-0.086, 1.388e-8
-0.087, 1.404e-8
-0.088, 1.380e-8
-0.089, 1.378e-8
-0.090, 1.380e-8
-0.091, 1.354e-8
-0.092, 1.370e-8
-0.093, 1.346e-8
-0.094, 1.344e-8
-0.095, 1.348e-8
-0.096, 1.322e-8
-0.097, 1.338e-8
-0.098, 1.315e-8
-0.099, 1.313e-8
-0.100, 1.318e-8
-0.101, 1.292e-8
-0.102, 1.309e-8
-0.103, 1.288e-8
-0.104, 1.285e-8
-0.105, 1.289e-8
-0.106, 1.265e-8
-0.107, 1.280e-8
-0.108, 1.261e-8
-0.109, 1.259e-8
-0.110, 1.262e-8
-0.111, 1.239e-8
-0.112, 1.255e-8
-0.113, 1.235e-8
-0.114, 1.234e-8
-0.115, 1.239e-8
-0.116, 1.216e-8
-0.117, 1.232e-8
-0.118, 1.212e-8
-0.119, 1.212e-8
-0.120, 1.217e-8
-0.121, 1.193e-8
-0.122, 1.211e-8
-0.123, 1.191e-8
-0.124, 1.192e-8
-0.125, 1.195e-8
-0.126, 1.172e-8
-0.127, 1.191e-8
-0.128, 1.170e-8
-0.129, 1.171e-8
-0.130, 1.177e-8
-0.131, 1.153e-8
-0.132, 1.173e-8
-0.133, 1.151e-8
-0.134, 1.151e-8
-0.135, 1.159e-8
-0.136, 1.135e-8
-0.137, 1.153e-8
-0.138, 1.135e-8
-0.139, 1.135e-8
-0.140, 1.142e-8
-0.141, 1.118e-8
-0.142, 1.137e-8
-0.143, 1.118e-8
-0.144, 1.120e-8
-0.145, 1.126e-8
-0.146, 1.103e-8
-0.147, 1.122e-8
-0.148, 1.104e-8
-0.149, 1.104e-8
-0.150, 1.111e-8
-0.151, 1.089e-8
-0.152, 1.107e-8
-0.153, 1.090e-8
-0.154, 1.091e-8
-0.155, 1.096e-8
-0.156, 1.077e-8
-0.157, 1.094e-8
-0.158, 1.075e-8
-0.159, 1.079e-8
-0.160, 1.084e-8
-0.161, 1.062e-8
-0.162, 1.083e-8
-0.163, 1.064e-8
-0.164, 1.066e-8
-0.165, 1.073e-8
-0.166, 1.051e-8
-0.167, 1.072e-8
-0.168, 1.053e-8
-0.169, 1.055e-8
-0.170, 1.062e-8
-0.171, 1.041e-8
-0.172, 1.061e-8
-0.173, 1.041e-8
-0.174, 1.046e-8
-0.175, 1.052e-8
-0.176, 1.030e-8
-0.177, 1.052e-8
-0.178, 1.033e-8
-0.179, 1.036e-8
-0.180, 1.044e-8
-0.181, 1.021e-8
-0.182, 1.042e-8
-0.183, 1.026e-8
-0.184, 1.027e-8
-0.185, 1.034e-8
-0.186, 1.015e-8
-0.187, 1.034e-8
-0.188, 1.017e-8
-0.189, 1.020e-8
-0.190, 1.026e-8
-0.191, 1.007e-8
-0.192, 1.028e-8
-0.193, 1.009e-8
-0.194, 1.013e-8
-0.195, 1.021e-8
-0.196, 1.000e-8
-0.197, 1.020e-8
-0.198, 1.004e-8
-0.199, 1.007e-8
