Mar. 16, 2023   09:17:51
Cyclic Voltammetry
File: c:/users/oliverrz/desktop/electrolab/data/2023_03_16\fcmeoh_macros_500_um\electrode1_cv_50mvs_500_um.bin
Data Source:  Experiment
Instrument Model:  CHI760E
Header: CV
Note: 

Init E (V) = -0.2
High E (V) = 0.3
Low E (V) = -0.2
Final E (V) = -0.2
Init P/N = P
Scan Rate (V/s) = 0.05
Segment = 3
Sample Interval (V) = 0.001
Quiet Time (sec) = 2
Sensitivity (A/V) = 1e-7

Results:

Channel 1:
Segment 1:
Ep = 0.097V
ip = -2.399e-8A
Ah = -3.121e-8C

Segment 2:
Ep = 0.025V
ip = 2.298e-8A
Ah = 2.973e-8C

Segment 3:

Potential/V, Current/A

-0.200, 3.368e-9
-0.199, 2.991e-9
-0.198, 2.901e-9
-0.197, 2.857e-9
-0.196, 2.819e-9
-0.195, 2.788e-9
-0.194, 2.749e-9
-0.193, 2.715e-9
-0.192, 2.688e-9
-0.191, 2.658e-9
-0.190, 2.632e-9
-0.189, 2.602e-9
-0.188, 2.572e-9
-0.187, 2.551e-9
-0.186, 2.526e-9
-0.185, 2.503e-9
-0.184, 2.476e-9
-0.183, 2.448e-9
-0.182, 2.429e-9
-0.181, 2.406e-9
-0.180, 2.383e-9
-0.179, 2.358e-9
-0.178, 2.332e-9
-0.177, 2.316e-9
-0.176, 2.299e-9
-0.175, 2.277e-9
-0.174, 2.257e-9
-0.173, 2.235e-9
-0.172, 2.216e-9
-0.171, 2.202e-9
-0.170, 2.181e-9
-0.169, 2.159e-9
-0.168, 2.140e-9
-0.167, 2.121e-9
-0.166, 2.107e-9
-0.165, 2.090e-9
-0.164, 2.066e-9
-0.163, 2.051e-9
-0.162, 2.036e-9
-0.161, 2.022e-9
-0.160, 2.005e-9
-0.159, 1.985e-9
-0.158, 1.970e-9
-0.157, 1.955e-9
-0.156, 1.939e-9
-0.155, 1.927e-9
-0.154, 1.905e-9
-0.153, 1.887e-9
-0.152, 1.878e-9
-0.151, 1.863e-9
-0.150, 1.852e-9
-0.149, 1.834e-9
-0.148, 1.815e-9
-0.147, 1.808e-9
-0.146, 1.794e-9
-0.145, 1.783e-9
-0.144, 1.769e-9
-0.143, 1.752e-9
-0.142, 1.743e-9
-0.141, 1.732e-9
-0.140, 1.717e-9
-0.139, 1.705e-9
-0.138, 1.689e-9
-0.137, 1.679e-9
-0.136, 1.671e-9
-0.135, 1.656e-9
-0.134, 1.643e-9
-0.133, 1.630e-9
-0.132, 1.620e-9
-0.131, 1.611e-9
-0.130, 1.597e-9
-0.129, 1.583e-9
-0.128, 1.570e-9
-0.127, 1.560e-9
-0.126, 1.553e-9
-0.125, 1.542e-9
-0.124, 1.527e-9
-0.123, 1.515e-9
-0.122, 1.508e-9
-0.121, 1.499e-9
-0.120, 1.489e-9
-0.119, 1.474e-9
-0.118, 1.465e-9
-0.117, 1.456e-9
-0.116, 1.447e-9
-0.115, 1.437e-9
-0.114, 1.422e-9
-0.113, 1.410e-9
-0.112, 1.404e-9
-0.111, 1.393e-9
-0.110, 1.385e-9
-0.109, 1.372e-9
-0.108, 1.357e-9
-0.107, 1.353e-9
-0.106, 1.343e-9
-0.105, 1.332e-9
-0.104, 1.319e-9
-0.103, 1.305e-9
-0.102, 1.296e-9
-0.101, 1.290e-9
-0.100, 1.280e-9
-0.099, 1.267e-9
-0.098, 1.255e-9
-0.097, 1.248e-9
-0.096, 1.241e-9
-0.095, 1.229e-9
-0.094, 1.217e-9
-0.093, 1.205e-9
-0.092, 1.194e-9
-0.091, 1.188e-9
-0.090, 1.174e-9
-0.089, 1.158e-9
-0.088, 1.148e-9
-0.087, 1.136e-9
-0.086, 1.127e-9
-0.085, 1.113e-9
-0.084, 1.097e-9
-0.083, 1.085e-9
-0.082, 1.073e-9
-0.081, 1.062e-9
-0.080, 1.049e-9
-0.079, 1.030e-9
-0.078, 1.018e-9
-0.077, 1.003e-9
-0.076, 9.895e-10
-0.075, 9.770e-10
-0.074, 9.576e-10
-0.073, 9.426e-10
-0.072, 9.305e-10
-0.071, 9.119e-10
-0.070, 8.972e-10
-0.069, 8.751e-10
-0.068, 8.546e-10
-0.067, 8.418e-10
-0.066, 8.236e-10
-0.065, 8.042e-10
-0.064, 7.793e-10
-0.063, 7.585e-10
-0.062, 7.427e-10
-0.061, 7.250e-10
-0.060, 7.012e-10
-0.059, 6.785e-10
-0.058, 6.518e-10
-0.057, 6.308e-10
-0.056, 6.070e-10
-0.055, 5.764e-10
-0.054, 5.462e-10
-0.053, 5.187e-10
-0.052, 4.926e-10
-0.051, 4.666e-10
-0.050, 4.366e-10
-0.049, 4.017e-10
-0.048, 3.728e-10
-0.047, 3.396e-10
-0.046, 3.106e-10
-0.045, 2.725e-10
-0.044, 2.325e-10
-0.043, 1.992e-10
-0.042, 1.614e-10
-0.041, 1.242e-10
-0.040, 8.390e-11
-0.039, 3.635e-11
-0.038, -6.773e-12
-0.037, -4.724e-11
-0.036, -9.242e-11
-0.035, -1.385e-10
-0.034, -1.958e-10
-0.033, -2.474e-10
-0.032, -2.956e-10
-0.031, -3.521e-10
-0.030, -4.089e-10
-0.029, -4.698e-10
-0.028, -5.333e-10
-0.027, -5.911e-10
-0.026, -6.581e-10
-0.025, -7.267e-10
-0.024, -8.001e-10
-0.023, -8.730e-10
-0.022, -9.408e-10
-0.021, -1.016e-9
-0.020, -1.098e-9
-0.019, -1.178e-9
-0.018, -1.266e-9
-0.017, -1.349e-9
-0.016, -1.437e-9
-0.015, -1.534e-9
-0.014, -1.632e-9
-0.013, -1.735e-9
-0.012, -1.840e-9
-0.011, -1.940e-9
-0.010, -2.053e-9
-0.009, -2.169e-9
-0.008, -2.285e-9
-0.007, -2.404e-9
-0.006, -2.520e-9
-0.005, -2.654e-9
-0.004, -2.793e-9
-0.003, -2.921e-9
-0.002, -3.064e-9
-0.001, -3.209e-9
-0.000, -3.399e-9
0.001, -3.543e-9
0.002, -3.689e-9
0.003, -3.845e-9
0.004, -4.009e-9
0.005, -4.182e-9
0.006, -4.364e-9
0.007, -4.546e-9
0.008, -4.729e-9
0.009, -4.923e-9
0.010, -5.115e-9
0.011, -5.326e-9
0.012, -5.533e-9
0.013, -5.742e-9
0.014, -5.968e-9
0.015, -6.182e-9
0.016, -6.413e-9
0.017, -6.653e-9
0.018, -6.888e-9
0.019, -7.131e-9
0.020, -7.390e-9
0.021, -7.646e-9
0.022, -7.911e-9
0.023, -8.168e-9
0.024, -8.436e-9
0.025, -8.720e-9
0.026, -9.006e-9
0.027, -9.289e-9
0.028, -9.573e-9
0.029, -9.859e-9
0.030, -1.017e-8
0.031, -1.047e-8
0.032, -1.077e-8
0.033, -1.108e-8
0.034, -1.138e-8
0.035, -1.170e-8
0.036, -1.203e-8
0.037, -1.234e-8
0.038, -1.267e-8
0.039, -1.300e-8
0.040, -1.333e-8
0.041, -1.366e-8
0.042, -1.398e-8
0.043, -1.431e-8
0.044, -1.465e-8
0.045, -1.497e-8
0.046, -1.532e-8
0.047, -1.565e-8
0.048, -1.597e-8
0.049, -1.631e-8
0.050, -1.663e-8
0.051, -1.696e-8
0.052, -1.729e-8
0.053, -1.759e-8
0.054, -1.791e-8
0.055, -1.821e-8
0.056, -1.853e-8
0.057, -1.883e-8
0.058, -1.912e-8
0.059, -1.941e-8
0.060, -1.969e-8
0.061, -1.997e-8
0.062, -2.025e-8
0.063, -2.051e-8
0.064, -2.077e-8
0.065, -2.103e-8
0.066, -2.127e-8
0.067, -2.150e-8
0.068, -2.173e-8
0.069, -2.194e-8
0.070, -2.217e-8
0.071, -2.238e-8
0.072, -2.256e-8
0.073, -2.276e-8
0.074, -2.293e-8
0.075, -2.311e-8
0.076, -2.328e-8
0.077, -2.343e-8
0.078, -2.358e-8
0.079, -2.370e-8
0.080, -2.383e-8
0.081, -2.396e-8
0.082, -2.406e-8
0.083, -2.416e-8
0.084, -2.425e-8
0.085, -2.433e-8
0.086, -2.441e-8
0.087, -2.448e-8
0.088, -2.454e-8
0.089, -2.460e-8
0.090, -2.464e-8
0.091, -2.468e-8
0.092, -2.471e-8
0.093, -2.472e-8
0.094, -2.474e-8
0.095, -2.476e-8
0.096, -2.476e-8
0.097, -2.476e-8
0.098, -2.475e-8
0.099, -2.474e-8
0.100, -2.473e-8
0.101, -2.471e-8
0.102, -2.469e-8
0.103, -2.466e-8
0.104, -2.462e-8
0.105, -2.459e-8
0.106, -2.454e-8
0.107, -2.449e-8
0.108, -2.445e-8
0.109, -2.438e-8
0.110, -2.433e-8
0.111, -2.428e-8
0.112, -2.421e-8
0.113, -2.415e-8
0.114, -2.408e-8
0.115, -2.401e-8
0.116, -2.395e-8
0.117, -2.387e-8
0.118, -2.380e-8
0.119, -2.372e-8
0.120, -2.365e-8
0.121, -2.358e-8
0.122, -2.349e-8
0.123, -2.342e-8
0.124, -2.334e-8
0.125, -2.325e-8
0.126, -2.318e-8
0.127, -2.310e-8
0.128, -2.302e-8
0.129, -2.293e-8
0.130, -2.285e-8
0.131, -2.277e-8
0.132, -2.269e-8
0.133, -2.260e-8
0.134, -2.253e-8
0.135, -2.245e-8
0.136, -2.237e-8
0.137, -2.229e-8
0.138, -2.220e-8
0.139, -2.212e-8
0.140, -2.205e-8
0.141, -2.197e-8
0.142, -2.189e-8
0.143, -2.181e-8
0.144, -2.174e-8
0.145, -2.167e-8
0.146, -2.159e-8
0.147, -2.152e-8
0.148, -2.144e-8
0.149, -2.137e-8
0.150, -2.130e-8
0.151, -2.123e-8
0.152, -2.115e-8
0.153, -2.109e-8
0.154, -2.102e-8
0.155, -2.095e-8
0.156, -2.089e-8
0.157, -2.082e-8
0.158, -2.075e-8
0.159, -2.069e-8
0.160, -2.063e-8
0.161, -2.057e-8
0.162, -2.051e-8
0.163, -2.045e-8
0.164, -2.039e-8
0.165, -2.033e-8
0.166, -2.027e-8
0.167, -2.021e-8
0.168, -2.015e-8
0.169, -2.010e-8
0.170, -2.005e-8
0.171, -1.999e-8
0.172, -1.994e-8
0.173, -1.988e-8
0.174, -1.984e-8
0.175, -1.979e-8
0.176, -1.974e-8
0.177, -1.969e-8
0.178, -1.964e-8
0.179, -1.960e-8
0.180, -1.955e-8
0.181, -1.951e-8
0.182, -1.946e-8
0.183, -1.942e-8
0.184, -1.937e-8
0.185, -1.933e-8
0.186, -1.929e-8
0.187, -1.925e-8
0.188, -1.921e-8
0.189, -1.917e-8
0.190, -1.914e-8
0.191, -1.910e-8
0.192, -1.906e-8
0.193, -1.902e-8
0.194, -1.898e-8
0.195, -1.895e-8
0.196, -1.892e-8
0.197, -1.888e-8
0.198, -1.885e-8
0.199, -1.882e-8
0.200, -1.878e-8
0.201, -1.876e-8
0.202, -1.872e-8
0.203, -1.869e-8
0.204, -1.866e-8
0.205, -1.864e-8
0.206, -1.861e-8
0.207, -1.858e-8
0.208, -1.854e-8
0.209, -1.852e-8
0.210, -1.849e-8
0.211, -1.847e-8
0.212, -1.844e-8
0.213, -1.841e-8
0.214, -1.838e-8
0.215, -1.836e-8
0.216, -1.834e-8
0.217, -1.831e-8
0.218, -1.829e-8
0.219, -1.827e-8
0.220, -1.825e-8
0.221, -1.823e-8
0.222, -1.820e-8
0.223, -1.818e-8
0.224, -1.816e-8
0.225, -1.814e-8
0.226, -1.812e-8
0.227, -1.810e-8
0.228, -1.808e-8
0.229, -1.806e-8
0.230, -1.805e-8
0.231, -1.804e-8
0.232, -1.802e-8
0.233, -1.800e-8
0.234, -1.798e-8
0.235, -1.796e-8
0.236, -1.795e-8
0.237, -1.793e-8
0.238, -1.791e-8
0.239, -1.790e-8
0.240, -1.788e-8
0.241, -1.787e-8
0.242, -1.786e-8
0.243, -1.784e-8
0.244, -1.783e-8
0.245, -1.782e-8
0.246, -1.781e-8
0.247, -1.779e-8
0.248, -1.778e-8
0.249, -1.777e-8
0.250, -1.776e-8
0.251, -1.775e-8
0.252, -1.773e-8
0.253, -1.772e-8
0.254, -1.771e-8
0.255, -1.770e-8
0.256, -1.770e-8
0.257, -1.769e-8
0.258, -1.767e-8
0.259, -1.766e-8
0.260, -1.766e-8
0.261, -1.765e-8
0.262, -1.764e-8
0.263, -1.763e-8
0.264, -1.762e-8
0.265, -1.762e-8
0.266, -1.761e-8
0.267, -1.760e-8
0.268, -1.760e-8
0.269, -1.759e-8
0.270, -1.759e-8
0.271, -1.759e-8
0.272, -1.757e-8
0.273, -1.757e-8
0.274, -1.756e-8
0.275, -1.756e-8
0.276, -1.756e-8
0.277, -1.754e-8
0.278, -1.754e-8
0.279, -1.754e-8
0.280, -1.753e-8
0.281, -1.753e-8
0.282, -1.753e-8
0.283, -1.752e-8
0.284, -1.752e-8
0.285, -1.752e-8
0.286, -1.752e-8
0.287, -1.752e-8
0.288, -1.751e-8
0.289, -1.751e-8
0.290, -1.751e-8
0.291, -1.751e-8
0.292, -1.751e-8
0.293, -1.750e-8
0.294, -1.751e-8
0.295, -1.751e-8
0.296, -1.751e-8
0.297, -1.751e-8
0.298, -1.750e-8
0.299, -1.750e-8
0.300, -1.719e-8
0.299, -1.627e-8
0.298, -1.598e-8
0.297, -1.583e-8
0.296, -1.571e-8
0.295, -1.561e-8
0.294, -1.552e-8
0.293, -1.544e-8
0.292, -1.536e-8
0.291, -1.529e-8
0.290, -1.523e-8
0.289, -1.516e-8
0.288, -1.510e-8
0.287, -1.504e-8
0.286, -1.499e-8
0.285, -1.494e-8
0.284, -1.489e-8
0.283, -1.484e-8
0.282, -1.479e-8
0.281, -1.475e-8
0.280, -1.472e-8
0.279, -1.468e-8
0.278, -1.464e-8
0.277, -1.459e-8
0.276, -1.455e-8
0.275, -1.453e-8
0.274, -1.449e-8
0.273, -1.446e-8
0.272, -1.442e-8
0.271, -1.439e-8
0.270, -1.436e-8
0.269, -1.433e-8
0.268, -1.430e-8
0.267, -1.427e-8
0.266, -1.424e-8
0.265, -1.421e-8
0.264, -1.419e-8
0.263, -1.416e-8
0.262, -1.413e-8
0.261, -1.410e-8
0.260, -1.408e-8
0.259, -1.406e-8
0.258, -1.403e-8
0.257, -1.400e-8
0.256, -1.398e-8
0.255, -1.396e-8
0.254, -1.394e-8
0.253, -1.391e-8
0.252, -1.389e-8
0.251, -1.387e-8
0.250, -1.385e-8
0.249, -1.383e-8
0.248, -1.380e-8
0.247, -1.377e-8
0.246, -1.376e-8
0.245, -1.374e-8
0.244, -1.372e-8
0.243, -1.369e-8
0.242, -1.367e-8
0.241, -1.365e-8
0.240, -1.363e-8
0.239, -1.361e-8
0.238, -1.359e-8
0.237, -1.357e-8
0.236, -1.355e-8
0.235, -1.354e-8
0.234, -1.352e-8
0.233, -1.350e-8
0.232, -1.348e-8
0.231, -1.346e-8
0.230, -1.344e-8
0.229, -1.342e-8
0.228, -1.340e-8
0.227, -1.338e-8
0.226, -1.336e-8
0.225, -1.335e-8
0.224, -1.333e-8
0.223, -1.331e-8
0.222, -1.329e-8
0.221, -1.327e-8
0.220, -1.326e-8
0.219, -1.324e-8
0.218, -1.322e-8
0.217, -1.320e-8
0.216, -1.318e-8
0.215, -1.316e-8
0.214, -1.315e-8
0.213, -1.312e-8
0.212, -1.310e-8
0.211, -1.309e-8
0.210, -1.307e-8
0.209, -1.305e-8
0.208, -1.303e-8
0.207, -1.301e-8
0.206, -1.299e-8
0.205, -1.297e-8
0.204, -1.295e-8
0.203, -1.293e-8
0.202, -1.290e-8
0.201, -1.288e-8
0.200, -1.287e-8
0.199, -1.284e-8
0.198, -1.282e-8
0.197, -1.279e-8
0.196, -1.277e-8
0.195, -1.275e-8
0.194, -1.272e-8
0.193, -1.270e-8
0.192, -1.267e-8
0.191, -1.265e-8
0.190, -1.263e-8
0.189, -1.260e-8
0.188, -1.257e-8
0.187, -1.255e-8
0.186, -1.252e-8
0.185, -1.250e-8
0.184, -1.247e-8
0.183, -1.244e-8
0.182, -1.241e-8
0.181, -1.238e-8
0.180, -1.235e-8
0.179, -1.233e-8
0.178, -1.229e-8
0.177, -1.226e-8
0.176, -1.223e-8
0.175, -1.220e-8
0.174, -1.216e-8
0.173, -1.213e-8
0.172, -1.209e-8
0.171, -1.206e-8
0.170, -1.202e-8
0.169, -1.198e-8
0.168, -1.194e-8
0.167, -1.190e-8
0.166, -1.186e-8
0.165, -1.182e-8
0.164, -1.178e-8
0.163, -1.173e-8
0.162, -1.168e-8
0.161, -1.163e-8
0.160, -1.159e-8
0.159, -1.154e-8
0.158, -1.149e-8
0.157, -1.143e-8
0.156, -1.137e-8
0.155, -1.132e-8
0.154, -1.126e-8
0.153, -1.120e-8
0.152, -1.113e-8
0.151, -1.107e-8
0.150, -1.102e-8
0.149, -1.095e-8
0.148, -1.087e-8
0.147, -1.080e-8
0.146, -1.072e-8
0.145, -1.065e-8
0.144, -1.057e-8
0.143, -1.049e-8
0.142, -1.041e-8
0.141, -1.032e-8
0.140, -1.023e-8
0.139, -1.014e-8
0.138, -1.004e-8
0.137, -9.947e-9
0.136, -9.844e-9
0.135, -9.744e-9
0.134, -9.643e-9
0.133, -9.526e-9
0.132, -9.414e-9
0.131, -9.300e-9
0.130, -9.181e-9
0.129, -9.060e-9
0.128, -8.922e-9
0.127, -8.788e-9
0.126, -8.658e-9
0.125, -8.519e-9
0.124, -8.379e-9
0.123, -8.229e-9
0.122, -8.071e-9
0.121, -7.920e-9
0.120, -7.759e-9
0.119, -7.591e-9
0.118, -7.428e-9
0.117, -7.241e-9
0.116, -7.060e-9
0.115, -6.882e-9
0.114, -6.686e-9
0.113, -6.492e-9
0.112, -6.292e-9
0.111, -6.088e-9
0.110, -5.889e-9
0.109, -5.671e-9
0.108, -5.454e-9
0.107, -5.230e-9
0.106, -4.998e-9
0.105, -4.774e-9
0.104, -4.528e-9
0.103, -4.278e-9
0.102, -4.024e-9
0.101, -3.773e-9
0.100, -3.521e-9
0.099, -3.265e-9
0.098, -2.986e-9
0.097, -2.716e-9
0.096, -2.435e-9
0.095, -2.156e-9
0.094, -1.874e-9
0.093, -1.574e-9
0.092, -1.282e-9
0.091, -9.821e-10
0.090, -6.743e-10
0.089, -3.692e-10
0.088, -5.324e-11
0.087, 2.637e-10
0.086, 5.758e-10
0.085, 9.040e-10
0.084, 1.225e-9
0.083, 1.549e-9
0.082, 1.883e-9
0.081, 2.201e-9
0.080, 2.524e-9
0.079, 2.857e-9
0.078, 3.184e-9
0.077, 3.524e-9
0.076, 3.853e-9
0.075, 4.171e-9
0.074, 4.508e-9
0.073, 4.821e-9
0.072, 5.153e-9
0.071, 5.479e-9
0.070, 5.785e-9
0.069, 6.109e-9
0.068, 6.425e-9
0.067, 6.730e-9
0.066, 7.041e-9
0.065, 7.333e-9
0.064, 7.638e-9
0.063, 7.928e-9
0.062, 8.207e-9
0.061, 8.497e-9
0.060, 8.766e-9
0.059, 9.035e-9
0.058, 9.305e-9
0.057, 9.544e-9
0.056, 9.796e-9
0.055, 1.004e-8
0.054, 1.026e-8
0.053, 1.049e-8
0.052, 1.070e-8
0.051, 1.091e-8
0.050, 1.111e-8
0.049, 1.129e-8
0.048, 1.147e-8
0.047, 1.165e-8
0.046, 1.181e-8
0.045, 1.196e-8
0.044, 1.211e-8
0.043, 1.224e-8
0.042, 1.238e-8
0.041, 1.248e-8
0.040, 1.260e-8
0.039, 1.271e-8
0.038, 1.281e-8
0.037, 1.290e-8
0.036, 1.298e-8
0.035, 1.304e-8
0.034, 1.311e-8
0.033, 1.317e-8
0.032, 1.322e-8
0.031, 1.326e-8
0.030, 1.329e-8
0.029, 1.332e-8
0.028, 1.334e-8
0.027, 1.336e-8
0.026, 1.338e-8
0.025, 1.338e-8
0.024, 1.338e-8
0.023, 1.338e-8
0.022, 1.336e-8
0.021, 1.335e-8
0.020, 1.332e-8
0.019, 1.330e-8
0.018, 1.327e-8
0.017, 1.324e-8
0.016, 1.320e-8
0.015, 1.316e-8
0.014, 1.311e-8
0.013, 1.308e-8
0.012, 1.303e-8
0.011, 1.297e-8
0.010, 1.291e-8
0.009, 1.285e-8
0.008, 1.279e-8
0.007, 1.274e-8
0.006, 1.266e-8
0.005, 1.259e-8
0.004, 1.253e-8
0.003, 1.246e-8
0.002, 1.239e-8
0.001, 1.232e-8
0.000, 1.228e-8
-0.001, 1.221e-8
-0.002, 1.212e-8
-0.003, 1.205e-8
-0.004, 1.197e-8
-0.005, 1.189e-8
-0.006, 1.182e-8
-0.007, 1.174e-8
-0.008, 1.166e-8
-0.009, 1.158e-8
-0.010, 1.150e-8
-0.011, 1.143e-8
-0.012, 1.135e-8
-0.013, 1.128e-8
-0.014, 1.120e-8
-0.015, 1.111e-8
-0.016, 1.104e-8
-0.017, 1.097e-8
-0.018, 1.089e-8
-0.019, 1.082e-8
-0.020, 1.075e-8
-0.021, 1.067e-8
-0.022, 1.060e-8
-0.023, 1.053e-8
-0.024, 1.046e-8
-0.025, 1.039e-8
-0.026, 1.032e-8
-0.027, 1.025e-8
-0.028, 1.018e-8
-0.029, 1.011e-8
-0.030, 1.004e-8
-0.031, 9.977e-9
-0.032, 9.913e-9
-0.033, 9.849e-9
-0.034, 9.782e-9
-0.035, 9.717e-9
-0.036, 9.654e-9
-0.037, 9.597e-9
-0.038, 9.541e-9
-0.039, 9.477e-9
-0.040, 9.414e-9
-0.041, 9.357e-9
-0.042, 9.299e-9
-0.043, 9.246e-9
-0.044, 9.186e-9
-0.045, 9.127e-9
-0.046, 9.076e-9
-0.047, 9.025e-9
-0.048, 8.976e-9
-0.049, 8.920e-9
-0.050, 8.863e-9
-0.051, 8.819e-9
-0.052, 8.771e-9
-0.053, 8.719e-9
-0.054, 8.671e-9
-0.055, 8.617e-9
-0.056, 8.573e-9
-0.057, 8.531e-9
-0.058, 8.480e-9
-0.059, 8.430e-9
-0.060, 8.383e-9
-0.061, 8.341e-9
-0.062, 8.304e-9
-0.063, 8.261e-9
-0.064, 8.221e-9
-0.065, 8.179e-9
-0.066, 8.139e-9
-0.067, 8.103e-9
-0.068, 8.065e-9
-0.069, 8.023e-9
-0.070, 7.986e-9
-0.071, 7.949e-9
-0.072, 7.916e-9
-0.073, 7.881e-9
-0.074, 7.840e-9
-0.075, 7.805e-9
-0.076, 7.773e-9
-0.077, 7.744e-9
-0.078, 7.713e-9
-0.079, 7.675e-9
-0.080, 7.642e-9
-0.081, 7.615e-9
-0.082, 7.584e-9
-0.083, 7.554e-9
-0.084, 7.520e-9
-0.085, 7.487e-9
-0.086, 7.463e-9
-0.087, 7.435e-9
-0.088, 7.408e-9
-0.089, 7.379e-9
-0.090, 7.349e-9
-0.091, 7.327e-9
-0.092, 7.304e-9
-0.093, 7.277e-9
-0.094, 7.251e-9
-0.095, 7.222e-9
-0.096, 7.201e-9
-0.097, 7.182e-9
-0.098, 7.154e-9
-0.099, 7.131e-9
-0.100, 7.105e-9
-0.101, 7.084e-9
-0.102, 7.068e-9
-0.103, 7.044e-9
-0.104, 7.018e-9
-0.105, 6.996e-9
-0.106, 6.975e-9
-0.107, 6.959e-9
-0.108, 6.939e-9
-0.109, 6.915e-9
-0.110, 6.897e-9
-0.111, 6.878e-9
-0.112, 6.862e-9
-0.113, 6.845e-9
-0.114, 6.822e-9
-0.115, 6.805e-9
-0.116, 6.791e-9
-0.117, 6.773e-9
-0.118, 6.758e-9
-0.119, 6.736e-9
-0.120, 6.719e-9
-0.121, 6.709e-9
-0.122, 6.691e-9
-0.123, 6.678e-9
-0.124, 6.660e-9
-0.125, 6.642e-9
-0.126, 6.633e-9
-0.127, 6.620e-9
-0.128, 6.608e-9
-0.129, 6.591e-9
-0.130, 6.573e-9
-0.131, 6.564e-9
-0.132, 6.554e-9
-0.133, 6.540e-9
-0.134, 6.526e-9
-0.135, 6.510e-9
-0.136, 6.502e-9
-0.137, 6.493e-9
-0.138, 6.480e-9
-0.139, 6.467e-9
-0.140, 6.455e-9
-0.141, 6.450e-9
-0.142, 6.442e-9
-0.143, 6.432e-9
-0.144, 6.417e-9
-0.145, 6.408e-9
-0.146, 6.399e-9
-0.147, 6.393e-9
-0.148, 6.385e-9
-0.149, 6.372e-9
-0.150, 6.363e-9
-0.151, 6.357e-9
-0.152, 6.351e-9
-0.153, 6.346e-9
-0.154, 6.334e-9
-0.155, 6.325e-9
-0.156, 6.320e-9
-0.157, 6.314e-9
-0.158, 6.311e-9
-0.159, 6.297e-9
-0.160, 6.290e-9
-0.161, 6.290e-9
-0.162, 6.284e-9
-0.163, 6.280e-9
-0.164, 6.271e-9
-0.165, 6.266e-9
-0.166, 6.267e-9
-0.167, 6.265e-9
-0.168, 6.257e-9
-0.169, 6.251e-9
-0.170, 6.244e-9
-0.171, 6.246e-9
-0.172, 6.244e-9
-0.173, 6.240e-9
-0.174, 6.237e-9
-0.175, 6.232e-9
-0.176, 6.232e-9
-0.177, 6.235e-9
-0.178, 6.231e-9
-0.179, 6.230e-9
-0.180, 6.229e-9
-0.181, 6.229e-9
-0.182, 6.233e-9
-0.183, 6.230e-9
-0.184, 6.228e-9
-0.185, 6.229e-9
-0.186, 6.231e-9
-0.187, 6.234e-9
-0.188, 6.238e-9
-0.189, 6.234e-9
-0.190, 6.237e-9
-0.191, 6.240e-9
-0.192, 6.246e-9
-0.193, 6.251e-9
-0.194, 6.245e-9
-0.195, 6.251e-9
-0.196, 6.259e-9
-0.197, 6.264e-9
-0.198, 6.271e-9
-0.199, 6.270e-9
