Mar. 16, 2023   09:23:25
Cyclic Voltammetry
File: c:/users/oliverrz/desktop/electrolab/data/2023_03_16\fcmeoh_macros_500_um\electrode5_cv_100mvs_500_um.bin
Data Source:  Experiment
Instrument Model:  CHI760E
Header: CV
Note: 

Init E (V) = -0.2
High E (V) = 0.3
Low E (V) = -0.2
Final E (V) = -0.2
Init P/N = P
Scan Rate (V/s) = 0.1
Segment = 3
Sample Interval (V) = 0.001
Quiet Time (sec) = 2
Sensitivity (A/V) = 1e-7

Results:

Channel 1:
Segment 1:
Ep = 0.081V
ip = -3.304e-8A
Ah = -2.040e-8C

Segment 2:
Ep = 0.020V
ip = 3.153e-8A
Ah = 1.917e-8C

Segment 3:

Potential/V, Current/A

-0.200, 3.680e-9
-0.199, 3.215e-9
-0.198, 3.179e-9
-0.197, 3.119e-9
-0.196, 3.058e-9
-0.195, 3.098e-9
-0.194, 3.002e-9
-0.193, 3.032e-9
-0.192, 2.992e-9
-0.191, 2.943e-9
-0.190, 2.984e-9
-0.189, 2.894e-9
-0.188, 2.929e-9
-0.187, 2.894e-9
-0.186, 2.848e-9
-0.185, 2.888e-9
-0.184, 2.802e-9
-0.183, 2.840e-9
-0.182, 2.803e-9
-0.181, 2.763e-9
-0.180, 2.804e-9
-0.179, 2.715e-9
-0.178, 2.758e-9
-0.177, 2.721e-9
-0.176, 2.684e-9
-0.175, 2.728e-9
-0.174, 2.641e-9
-0.173, 2.687e-9
-0.172, 2.648e-9
-0.171, 2.611e-9
-0.170, 2.658e-9
-0.169, 2.569e-9
-0.168, 2.616e-9
-0.167, 2.580e-9
-0.166, 2.541e-9
-0.165, 2.591e-9
-0.164, 2.504e-9
-0.163, 2.552e-9
-0.162, 2.520e-9
-0.161, 2.479e-9
-0.160, 2.529e-9
-0.159, 2.442e-9
-0.158, 2.489e-9
-0.157, 2.462e-9
-0.156, 2.416e-9
-0.155, 2.470e-9
-0.154, 2.380e-9
-0.153, 2.425e-9
-0.152, 2.397e-9
-0.151, 2.358e-9
-0.150, 2.410e-9
-0.149, 2.326e-9
-0.148, 2.370e-9
-0.147, 2.343e-9
-0.146, 2.305e-9
-0.145, 2.354e-9
-0.144, 2.273e-9
-0.143, 2.314e-9
-0.142, 2.286e-9
-0.141, 2.252e-9
-0.140, 2.300e-9
-0.139, 2.219e-9
-0.138, 2.263e-9
-0.137, 2.233e-9
-0.136, 2.199e-9
-0.135, 2.245e-9
-0.134, 2.165e-9
-0.133, 2.210e-9
-0.132, 2.178e-9
-0.131, 2.145e-9
-0.130, 2.195e-9
-0.129, 2.107e-9
-0.128, 2.151e-9
-0.127, 2.125e-9
-0.126, 2.083e-9
-0.125, 2.140e-9
-0.124, 2.051e-9
-0.123, 2.097e-9
-0.122, 2.069e-9
-0.121, 2.028e-9
-0.120, 2.082e-9
-0.119, 1.996e-9
-0.118, 2.041e-9
-0.117, 2.012e-9
-0.116, 1.968e-9
-0.115, 2.021e-9
-0.114, 1.935e-9
-0.113, 1.977e-9
-0.112, 1.952e-9
-0.111, 1.908e-9
-0.110, 1.958e-9
-0.109, 1.875e-9
-0.108, 1.912e-9
-0.107, 1.889e-9
-0.106, 1.844e-9
-0.105, 1.893e-9
-0.104, 1.809e-9
-0.103, 1.846e-9
-0.102, 1.813e-9
-0.101, 1.772e-9
-0.100, 1.819e-9
-0.099, 1.737e-9
-0.098, 1.771e-9
-0.097, 1.741e-9
-0.096, 1.698e-9
-0.095, 1.743e-9
-0.094, 1.655e-9
-0.093, 1.696e-9
-0.092, 1.656e-9
-0.091, 1.613e-9
-0.090, 1.657e-9
-0.089, 1.563e-9
-0.088, 1.604e-9
-0.087, 1.566e-9
-0.086, 1.517e-9
-0.085, 1.561e-9
-0.084, 1.465e-9
-0.083, 1.499e-9
-0.082, 1.462e-9
-0.081, 1.405e-9
-0.080, 1.451e-9
-0.079, 1.350e-9
-0.078, 1.381e-9
-0.077, 1.341e-9
-0.076, 1.281e-9
-0.075, 1.319e-9
-0.074, 1.220e-9
-0.073, 1.247e-9
-0.072, 1.206e-9
-0.071, 1.142e-9
-0.070, 1.176e-9
-0.069, 1.072e-9
-0.068, 1.090e-9
-0.067, 1.046e-9
-0.066, 9.784e-10
-0.065, 1.003e-9
-0.064, 8.940e-10
-0.063, 9.072e-10
-0.062, 8.539e-10
-0.061, 7.826e-10
-0.060, 7.987e-10
-0.059, 6.907e-10
-0.058, 6.936e-10
-0.057, 6.316e-10
-0.056, 5.517e-10
-0.055, 5.610e-10
-0.054, 4.417e-10
-0.053, 4.401e-10
-0.052, 3.688e-10
-0.051, 2.782e-10
-0.050, 2.860e-10
-0.049, 1.493e-10
-0.048, 1.437e-10
-0.047, 6.372e-11
-0.046, -3.414e-11
-0.045, -3.887e-11
-0.044, -1.841e-10
-0.043, -2.019e-10
-0.042, -2.935e-10
-0.041, -4.080e-10
-0.040, -4.206e-10
-0.039, -5.799e-10
-0.038, -6.155e-10
-0.037, -7.178e-10
-0.036, -8.475e-10
-0.035, -8.727e-10
-0.034, -1.047e-9
-0.033, -1.102e-9
-0.032, -1.216e-9
-0.031, -1.362e-9
-0.030, -1.407e-9
-0.029, -1.598e-9
-0.028, -1.671e-9
-0.027, -1.807e-9
-0.026, -1.975e-9
-0.025, -2.048e-9
-0.024, -2.253e-9
-0.023, -2.346e-9
-0.022, -2.504e-9
-0.021, -2.687e-9
-0.020, -2.784e-9
-0.019, -3.008e-9
-0.018, -3.132e-9
-0.017, -3.323e-9
-0.016, -3.522e-9
-0.015, -3.649e-9
-0.014, -3.902e-9
-0.013, -4.046e-9
-0.012, -4.266e-9
-0.011, -4.498e-9
-0.010, -4.652e-9
-0.009, -4.940e-9
-0.008, -5.117e-9
-0.007, -5.364e-9
-0.006, -5.632e-9
-0.005, -5.811e-9
-0.004, -6.138e-9
-0.003, -6.339e-9
-0.002, -6.621e-9
-0.001, -6.932e-9
-0.000, -7.218e-9
0.001, -7.566e-9
0.002, -7.797e-9
0.003, -8.102e-9
0.004, -8.438e-9
0.005, -8.687e-9
0.006, -9.080e-9
0.007, -9.360e-9
0.008, -9.704e-9
0.009, -1.009e-8
0.010, -1.038e-8
0.011, -1.080e-8
0.012, -1.113e-8
0.013, -1.150e-8
0.014, -1.192e-8
0.015, -1.224e-8
0.016, -1.269e-8
0.017, -1.306e-8
0.018, -1.347e-8
0.019, -1.390e-8
0.020, -1.427e-8
0.021, -1.474e-8
0.022, -1.512e-8
0.023, -1.558e-8
0.024, -1.604e-8
0.025, -1.643e-8
0.026, -1.694e-8
0.027, -1.733e-8
0.028, -1.779e-8
0.029, -1.826e-8
0.030, -1.866e-8
0.031, -1.917e-8
0.032, -1.956e-8
0.033, -2.003e-8
0.034, -2.052e-8
0.035, -2.090e-8
0.036, -2.143e-8
0.037, -2.182e-8
0.038, -2.228e-8
0.039, -2.276e-8
0.040, -2.314e-8
0.041, -2.365e-8
0.042, -2.402e-8
0.043, -2.446e-8
0.044, -2.492e-8
0.045, -2.525e-8
0.046, -2.574e-8
0.047, -2.609e-8
0.048, -2.649e-8
0.049, -2.691e-8
0.050, -2.721e-8
0.051, -2.766e-8
0.052, -2.797e-8
0.053, -2.831e-8
0.054, -2.869e-8
0.055, -2.894e-8
0.056, -2.930e-8
0.057, -2.957e-8
0.058, -2.986e-8
0.059, -3.018e-8
0.060, -3.039e-8
0.061, -3.069e-8
0.062, -3.090e-8
0.063, -3.113e-8
0.064, -3.138e-8
0.065, -3.154e-8
0.066, -3.178e-8
0.067, -3.191e-8
0.068, -3.209e-8
0.069, -3.227e-8
0.070, -3.235e-8
0.071, -3.254e-8
0.072, -3.260e-8
0.073, -3.272e-8
0.074, -3.284e-8
0.075, -3.285e-8
0.076, -3.300e-8
0.077, -3.302e-8
0.078, -3.307e-8
0.079, -3.314e-8
0.080, -3.309e-8
0.081, -3.318e-8
0.082, -3.314e-8
0.083, -3.314e-8
0.084, -3.317e-8
0.085, -3.307e-8
0.086, -3.311e-8
0.087, -3.304e-8
0.088, -3.299e-8
0.089, -3.298e-8
0.090, -3.286e-8
0.091, -3.286e-8
0.092, -3.275e-8
0.093, -3.267e-8
0.094, -3.263e-8
0.095, -3.248e-8
0.096, -3.245e-8
0.097, -3.231e-8
0.098, -3.221e-8
0.099, -3.213e-8
0.100, -3.197e-8
0.101, -3.192e-8
0.102, -3.176e-8
0.103, -3.166e-8
0.104, -3.156e-8
0.105, -3.138e-8
0.106, -3.132e-8
0.107, -3.114e-8
0.108, -3.102e-8
0.109, -3.091e-8
0.110, -3.072e-8
0.111, -3.065e-8
0.112, -3.046e-8
0.113, -3.033e-8
0.114, -3.024e-8
0.115, -3.003e-8
0.116, -2.997e-8
0.117, -2.978e-8
0.118, -2.965e-8
0.119, -2.955e-8
0.120, -2.934e-8
0.121, -2.928e-8
0.122, -2.909e-8
0.123, -2.896e-8
0.124, -2.887e-8
0.125, -2.866e-8
0.126, -2.860e-8
0.127, -2.842e-8
0.128, -2.830e-8
0.129, -2.821e-8
0.130, -2.801e-8
0.131, -2.794e-8
0.132, -2.777e-8
0.133, -2.765e-8
0.134, -2.756e-8
0.135, -2.737e-8
0.136, -2.731e-8
0.137, -2.714e-8
0.138, -2.703e-8
0.139, -2.695e-8
0.140, -2.677e-8
0.141, -2.672e-8
0.142, -2.656e-8
0.143, -2.645e-8
0.144, -2.637e-8
0.145, -2.620e-8
0.146, -2.616e-8
0.147, -2.600e-8
0.148, -2.590e-8
0.149, -2.583e-8
0.150, -2.566e-8
0.151, -2.563e-8
0.152, -2.548e-8
0.153, -2.539e-8
0.154, -2.533e-8
0.155, -2.516e-8
0.156, -2.514e-8
0.157, -2.500e-8
0.158, -2.491e-8
0.159, -2.486e-8
0.160, -2.470e-8
0.161, -2.468e-8
0.162, -2.455e-8
0.163, -2.446e-8
0.164, -2.442e-8
0.165, -2.426e-8
0.166, -2.425e-8
0.167, -2.413e-8
0.168, -2.405e-8
0.169, -2.401e-8
0.170, -2.387e-8
0.171, -2.386e-8
0.172, -2.374e-8
0.173, -2.367e-8
0.174, -2.363e-8
0.175, -2.349e-8
0.176, -2.349e-8
0.177, -2.338e-8
0.178, -2.331e-8
0.179, -2.328e-8
0.180, -2.316e-8
0.181, -2.315e-8
0.182, -2.304e-8
0.183, -2.299e-8
0.184, -2.295e-8
0.185, -2.283e-8
0.186, -2.284e-8
0.187, -2.273e-8
0.188, -2.268e-8
0.189, -2.265e-8
0.190, -2.253e-8
0.191, -2.254e-8
0.192, -2.244e-8
0.193, -2.239e-8
0.194, -2.238e-8
0.195, -2.225e-8
0.196, -2.227e-8
0.197, -2.217e-8
0.198, -2.213e-8
0.199, -2.212e-8
0.200, -2.200e-8
0.201, -2.203e-8
0.202, -2.193e-8
0.203, -2.189e-8
0.204, -2.189e-8
0.205, -2.177e-8
0.206, -2.180e-8
0.207, -2.171e-8
0.208, -2.166e-8
0.209, -2.166e-8
0.210, -2.155e-8
0.211, -2.158e-8
0.212, -2.150e-8
0.213, -2.146e-8
0.214, -2.146e-8
0.215, -2.135e-8
0.216, -2.138e-8
0.217, -2.130e-8
0.218, -2.127e-8
0.219, -2.127e-8
0.220, -2.117e-8
0.221, -2.120e-8
0.222, -2.112e-8
0.223, -2.109e-8
0.224, -2.109e-8
0.225, -2.099e-8
0.226, -2.103e-8
0.227, -2.095e-8
0.228, -2.092e-8
0.229, -2.093e-8
0.230, -2.083e-8
0.231, -2.087e-8
0.232, -2.079e-8
0.233, -2.076e-8
0.234, -2.078e-8
0.235, -2.068e-8
0.236, -2.072e-8
0.237, -2.065e-8
0.238, -2.062e-8
0.239, -2.064e-8
0.240, -2.054e-8
0.241, -2.059e-8
0.242, -2.052e-8
0.243, -2.049e-8
0.244, -2.051e-8
0.245, -2.041e-8
0.246, -2.046e-8
0.247, -2.039e-8
0.248, -2.037e-8
0.249, -2.039e-8
0.250, -2.030e-8
0.251, -2.034e-8
0.252, -2.028e-8
0.253, -2.026e-8
0.254, -2.028e-8
0.255, -2.019e-8
0.256, -2.024e-8
0.257, -2.018e-8
0.258, -2.016e-8
0.259, -2.018e-8
0.260, -2.009e-8
0.261, -2.014e-8
0.262, -2.008e-8
0.263, -2.006e-8
0.264, -2.009e-8
0.265, -2.000e-8
0.266, -2.005e-8
0.267, -1.999e-8
0.268, -1.997e-8
0.269, -2.000e-8
0.270, -1.992e-8
0.271, -1.997e-8
0.272, -1.991e-8
0.273, -1.989e-8
0.274, -1.992e-8
0.275, -1.984e-8
0.276, -1.990e-8
0.277, -1.984e-8
0.278, -1.982e-8
0.279, -1.986e-8
0.280, -1.977e-8
0.281, -1.983e-8
0.282, -1.978e-8
0.283, -1.976e-8
0.284, -1.980e-8
0.285, -1.971e-8
0.286, -1.977e-8
0.287, -1.972e-8
0.288, -1.971e-8
0.289, -1.975e-8
0.290, -1.967e-8
0.291, -1.972e-8
0.292, -1.968e-8
0.293, -1.967e-8
0.294, -1.970e-8
0.295, -1.963e-8
0.296, -1.969e-8
0.297, -1.964e-8
0.298, -1.963e-8
0.299, -1.967e-8
0.300, -1.906e-8
0.299, -1.821e-8
0.298, -1.787e-8
0.297, -1.772e-8
0.296, -1.765e-8
0.295, -1.747e-8
0.294, -1.745e-8
0.293, -1.733e-8
0.292, -1.725e-8
0.291, -1.723e-8
0.290, -1.709e-8
0.289, -1.710e-8
0.288, -1.700e-8
0.287, -1.694e-8
0.286, -1.693e-8
0.285, -1.681e-8
0.284, -1.683e-8
0.283, -1.674e-8
0.282, -1.669e-8
0.281, -1.669e-8
0.280, -1.658e-8
0.279, -1.660e-8
0.278, -1.652e-8
0.277, -1.648e-8
0.276, -1.648e-8
0.275, -1.637e-8
0.274, -1.640e-8
0.273, -1.632e-8
0.272, -1.629e-8
0.271, -1.629e-8
0.270, -1.619e-8
0.269, -1.622e-8
0.268, -1.615e-8
0.267, -1.612e-8
0.266, -1.613e-8
0.265, -1.602e-8
0.264, -1.606e-8
0.263, -1.599e-8
0.262, -1.597e-8
0.261, -1.598e-8
0.260, -1.587e-8
0.259, -1.592e-8
0.258, -1.584e-8
0.257, -1.581e-8
0.256, -1.583e-8
0.255, -1.573e-8
0.254, -1.577e-8
0.253, -1.571e-8
0.252, -1.567e-8
0.251, -1.570e-8
0.250, -1.560e-8
0.249, -1.564e-8
0.248, -1.558e-8
0.247, -1.555e-8
0.246, -1.557e-8
0.245, -1.547e-8
0.244, -1.551e-8
0.243, -1.545e-8
0.242, -1.542e-8
0.241, -1.544e-8
0.240, -1.535e-8
0.239, -1.539e-8
0.238, -1.533e-8
0.237, -1.530e-8
0.236, -1.532e-8
0.235, -1.523e-8
0.234, -1.527e-8
0.233, -1.520e-8
0.232, -1.518e-8
0.231, -1.520e-8
0.230, -1.510e-8
0.229, -1.515e-8
0.228, -1.508e-8
0.227, -1.506e-8
0.226, -1.508e-8
0.225, -1.499e-8
0.224, -1.504e-8
0.223, -1.497e-8
0.222, -1.495e-8
0.221, -1.497e-8
0.220, -1.488e-8
0.219, -1.492e-8
0.218, -1.486e-8
0.217, -1.483e-8
0.216, -1.485e-8
0.215, -1.476e-8
0.214, -1.481e-8
0.213, -1.474e-8
0.212, -1.471e-8
0.211, -1.474e-8
0.210, -1.465e-8
0.209, -1.469e-8
0.208, -1.463e-8
0.207, -1.460e-8
0.206, -1.462e-8
0.205, -1.452e-8
0.204, -1.456e-8
0.203, -1.451e-8
0.202, -1.447e-8
0.201, -1.449e-8
0.200, -1.440e-8
0.199, -1.444e-8
0.198, -1.438e-8
0.197, -1.435e-8
0.196, -1.436e-8
0.195, -1.427e-8
0.194, -1.431e-8
0.193, -1.425e-8
0.192, -1.421e-8
0.191, -1.423e-8
0.190, -1.414e-8
0.189, -1.418e-8
0.188, -1.410e-8
0.187, -1.407e-8
0.186, -1.409e-8
0.185, -1.399e-8
0.184, -1.403e-8
0.183, -1.395e-8
0.182, -1.392e-8
0.181, -1.393e-8
0.180, -1.383e-8
0.179, -1.386e-8
0.178, -1.379e-8
0.177, -1.375e-8
0.176, -1.377e-8
0.175, -1.365e-8
0.174, -1.369e-8
0.173, -1.361e-8
0.172, -1.356e-8
0.171, -1.358e-8
0.170, -1.346e-8
0.169, -1.349e-8
0.168, -1.341e-8
0.167, -1.336e-8
0.166, -1.336e-8
0.165, -1.325e-8
0.164, -1.327e-8
0.163, -1.318e-8
0.162, -1.313e-8
0.161, -1.313e-8
0.160, -1.301e-8
0.159, -1.302e-8
0.158, -1.293e-8
0.157, -1.287e-8
0.156, -1.286e-8
0.155, -1.273e-8
0.154, -1.273e-8
0.153, -1.263e-8
0.152, -1.256e-8
0.151, -1.254e-8
0.150, -1.241e-8
0.149, -1.240e-8
0.148, -1.230e-8
0.147, -1.222e-8
0.146, -1.218e-8
0.145, -1.204e-8
0.144, -1.203e-8
0.143, -1.190e-8
0.142, -1.182e-8
0.141, -1.177e-8
0.140, -1.161e-8
0.139, -1.158e-8
0.138, -1.145e-8
0.137, -1.135e-8
0.136, -1.130e-8
0.135, -1.112e-8
0.134, -1.108e-8
0.133, -1.093e-8
0.132, -1.080e-8
0.131, -1.074e-8
0.130, -1.054e-8
0.129, -1.048e-8
0.128, -1.031e-8
0.127, -1.017e-8
0.126, -1.008e-8
0.125, -9.869e-9
0.124, -9.782e-9
0.123, -9.601e-9
0.122, -9.435e-9
0.121, -9.319e-9
0.120, -9.087e-9
0.119, -8.979e-9
0.118, -8.772e-9
0.117, -8.581e-9
0.116, -8.437e-9
0.115, -8.175e-9
0.114, -8.036e-9
0.113, -7.802e-9
0.112, -7.584e-9
0.111, -7.413e-9
0.110, -7.121e-9
0.109, -6.956e-9
0.108, -6.681e-9
0.107, -6.438e-9
0.106, -6.232e-9
0.105, -5.915e-9
0.104, -5.711e-9
0.103, -5.404e-9
0.102, -5.118e-9
0.101, -4.884e-9
0.100, -4.531e-9
0.099, -4.306e-9
0.098, -3.957e-9
0.097, -3.645e-9
0.096, -3.387e-9
0.095, -2.985e-9
0.094, -2.720e-9
0.093, -2.350e-9
0.092, -1.995e-9
0.091, -1.697e-9
0.090, -1.257e-9
0.089, -9.568e-10
0.088, -5.542e-10
0.087, -1.621e-10
0.086, 1.617e-10
0.085, 6.349e-10
0.084, 9.792e-10
0.083, 1.401e-9
0.082, 1.842e-9
0.081, 2.199e-9
0.080, 2.679e-9
0.079, 3.052e-9
0.078, 3.507e-9
0.077, 3.963e-9
0.076, 4.360e-9
0.075, 4.848e-9
0.074, 5.244e-9
0.073, 5.711e-9
0.072, 6.171e-9
0.071, 6.580e-9
0.070, 7.083e-9
0.069, 7.486e-9
0.068, 7.973e-9
0.067, 8.424e-9
0.066, 8.843e-9
0.065, 9.355e-9
0.064, 9.762e-9
0.063, 1.024e-8
0.062, 1.068e-8
0.061, 1.108e-8
0.060, 1.158e-8
0.059, 1.195e-8
0.058, 1.239e-8
0.057, 1.283e-8
0.056, 1.320e-8
0.055, 1.368e-8
0.054, 1.401e-8
0.053, 1.443e-8
0.052, 1.483e-8
0.051, 1.516e-8
0.050, 1.561e-8
0.049, 1.590e-8
0.048, 1.628e-8
0.047, 1.664e-8
0.046, 1.689e-8
0.045, 1.728e-8
0.044, 1.754e-8
0.043, 1.786e-8
0.042, 1.816e-8
0.041, 1.836e-8
0.040, 1.868e-8
0.039, 1.890e-8
0.038, 1.914e-8
0.037, 1.938e-8
0.036, 1.953e-8
0.035, 1.978e-8
0.034, 1.992e-8
0.033, 2.012e-8
0.032, 2.028e-8
0.031, 2.038e-8
0.030, 2.057e-8
0.029, 2.064e-8
0.028, 2.078e-8
0.027, 2.088e-8
0.026, 2.094e-8
0.025, 2.108e-8
0.024, 2.108e-8
0.023, 2.117e-8
0.022, 2.121e-8
0.021, 2.120e-8
0.020, 2.130e-8
0.019, 2.124e-8
0.018, 2.128e-8
0.017, 2.129e-8
0.016, 2.122e-8
0.015, 2.128e-8
0.014, 2.117e-8
0.013, 2.118e-8
0.012, 2.115e-8
0.011, 2.103e-8
0.010, 2.105e-8
0.009, 2.092e-8
0.008, 2.088e-8
0.007, 2.083e-8
0.006, 2.068e-8
0.005, 2.067e-8
0.004, 2.052e-8
0.003, 2.045e-8
0.002, 2.037e-8
0.001, 2.021e-8
0.000, 2.024e-8
-0.001, 2.007e-8
-0.002, 1.995e-8
-0.003, 1.985e-8
-0.004, 1.967e-8
-0.005, 1.962e-8
-0.006, 1.943e-8
-0.007, 1.934e-8
-0.008, 1.923e-8
-0.009, 1.905e-8
-0.010, 1.899e-8
-0.011, 1.880e-8
-0.012, 1.870e-8
-0.013, 1.858e-8
-0.014, 1.840e-8
-0.015, 1.834e-8
-0.016, 1.814e-8
-0.017, 1.805e-8
-0.018, 1.792e-8
-0.019, 1.774e-8
-0.020, 1.768e-8
-0.021, 1.749e-8
-0.022, 1.739e-8
-0.023, 1.727e-8
-0.024, 1.708e-8
-0.025, 1.704e-8
-0.026, 1.684e-8
-0.027, 1.675e-8
-0.028, 1.664e-8
-0.029, 1.645e-8
-0.030, 1.640e-8
-0.031, 1.621e-8
-0.032, 1.611e-8
-0.033, 1.601e-8
-0.034, 1.583e-8
-0.035, 1.578e-8
-0.036, 1.561e-8
-0.037, 1.552e-8
-0.038, 1.542e-8
-0.039, 1.526e-8
-0.040, 1.521e-8
-0.041, 1.504e-8
-0.042, 1.496e-8
-0.043, 1.486e-8
-0.044, 1.470e-8
-0.045, 1.466e-8
-0.046, 1.450e-8
-0.047, 1.443e-8
-0.048, 1.434e-8
-0.049, 1.419e-8
-0.050, 1.416e-8
-0.051, 1.401e-8
-0.052, 1.394e-8
-0.053, 1.385e-8
-0.054, 1.371e-8
-0.055, 1.368e-8
-0.056, 1.353e-8
-0.057, 1.348e-8
-0.058, 1.340e-8
-0.059, 1.326e-8
-0.060, 1.325e-8
-0.061, 1.310e-8
-0.062, 1.305e-8
-0.063, 1.298e-8
-0.064, 1.284e-8
-0.065, 1.284e-8
-0.066, 1.269e-8
-0.067, 1.265e-8
-0.068, 1.259e-8
-0.069, 1.245e-8
-0.070, 1.245e-8
-0.071, 1.232e-8
-0.072, 1.228e-8
-0.073, 1.223e-8
-0.074, 1.210e-8
-0.075, 1.211e-8
-0.076, 1.198e-8
-0.077, 1.195e-8
-0.078, 1.189e-8
-0.079, 1.178e-8
-0.080, 1.178e-8
-0.081, 1.166e-8
-0.082, 1.163e-8
-0.083, 1.158e-8
-0.084, 1.147e-8
-0.085, 1.148e-8
-0.086, 1.136e-8
-0.087, 1.134e-8
-0.088, 1.129e-8
-0.089, 1.118e-8
-0.090, 1.120e-8
-0.091, 1.109e-8
-0.092, 1.106e-8
-0.093, 1.102e-8
-0.094, 1.092e-8
-0.095, 1.094e-8
-0.096, 1.083e-8
-0.097, 1.081e-8
-0.098, 1.078e-8
-0.099, 1.067e-8
-0.100, 1.071e-8
-0.101, 1.060e-8
-0.102, 1.058e-8
-0.103, 1.055e-8
-0.104, 1.045e-8
-0.105, 1.049e-8
-0.106, 1.038e-8
-0.107, 1.036e-8
-0.108, 1.035e-8
-0.109, 1.024e-8
-0.110, 1.028e-8
-0.111, 1.018e-8
-0.112, 1.016e-8
-0.113, 1.014e-8
-0.114, 1.005e-8
-0.115, 1.008e-8
-0.116, 9.989e-9
-0.117, 9.977e-9
-0.118, 9.959e-9
-0.119, 9.870e-9
-0.120, 9.905e-9
-0.121, 9.813e-9
-0.122, 9.804e-9
-0.123, 9.789e-9
-0.124, 9.702e-9
-0.125, 9.738e-9
-0.126, 9.649e-9
-0.127, 9.642e-9
-0.128, 9.632e-9
-0.129, 9.547e-9
-0.130, 9.587e-9
-0.131, 9.499e-9
-0.132, 9.499e-9
-0.133, 9.486e-9
-0.134, 9.402e-9
-0.135, 9.446e-9
-0.136, 9.355e-9
-0.137, 9.360e-9
-0.138, 9.348e-9
-0.139, 9.264e-9
-0.140, 9.315e-9
-0.141, 9.226e-9
-0.142, 9.228e-9
-0.143, 9.223e-9
-0.144, 9.139e-9
-0.145, 9.192e-9
-0.146, 9.102e-9
-0.147, 9.106e-9
-0.148, 9.105e-9
-0.149, 9.024e-9
-0.150, 9.075e-9
-0.151, 8.992e-9
-0.152, 8.996e-9
-0.153, 8.997e-9
-0.154, 8.918e-9
-0.155, 8.969e-9
-0.156, 8.888e-9
-0.157, 8.891e-9
-0.158, 8.894e-9
-0.159, 8.821e-9
-0.160, 8.870e-9
-0.161, 8.792e-9
-0.162, 8.799e-9
-0.163, 8.800e-9
-0.164, 8.726e-9
-0.165, 8.776e-9
-0.166, 8.703e-9
-0.167, 8.711e-9
-0.168, 8.713e-9
-0.169, 8.642e-9
-0.170, 8.695e-9
-0.171, 8.619e-9
-0.172, 8.631e-9
-0.173, 8.630e-9
-0.174, 8.560e-9
-0.175, 8.619e-9
-0.176, 8.541e-9
-0.177, 8.553e-9
-0.178, 8.560e-9
-0.179, 8.488e-9
-0.180, 8.552e-9
-0.181, 8.469e-9
-0.182, 8.484e-9
-0.183, 8.492e-9
-0.184, 8.417e-9
-0.185, 8.484e-9
-0.186, 8.407e-9
-0.187, 8.418e-9
-0.188, 8.434e-9
-0.189, 8.357e-9
-0.190, 8.422e-9
-0.191, 8.353e-9
-0.192, 8.366e-9
-0.193, 8.379e-9
-0.194, 8.306e-9
-0.195, 8.371e-9
-0.196, 8.306e-9
-0.197, 8.319e-9
-0.198, 8.332e-9
-0.199, 8.265e-9
