Mar. 16, 2023   09:23:48
Cyclic Voltammetry
File: c:/users/oliverrz/desktop/electrolab/data/2023_03_16\fcmeoh_macros_500_um\electrode5_cv_200mvs_500_um.bin
Data Source:  Experiment
Instrument Model:  CHI760E
Header: CV
Note: 

Init E (V) = -0.2
High E (V) = 0.3
Low E (V) = -0.2
Final E (V) = -0.2
Init P/N = P
Scan Rate (V/s) = 0.2
Segment = 3
Sample Interval (V) = 0.001
Quiet Time (sec) = 2
Sensitivity (A/V) = 1e-7

Results:

Channel 1:
Segment 1:
Ep = 0.084V
ip = -4.568e-8A
Ah = -1.438e-8C

Segment 2:
Ep = 0.025V
ip = 4.316e-8A
Ah = 1.278e-8C

Segment 3:

Potential/V, Current/A

-0.200, 3.084e-9
-0.199, 2.623e-9
-0.198, 2.705e-9
-0.197, 2.511e-9
-0.196, 2.400e-9
-0.195, 2.592e-9
-0.194, 2.486e-9
-0.193, 2.291e-9
-0.192, 2.437e-9
-0.191, 2.484e-9
-0.190, 2.234e-9
-0.189, 2.303e-9
-0.188, 2.427e-9
-0.187, 2.256e-9
-0.186, 2.171e-9
-0.185, 2.350e-9
-0.184, 2.271e-9
-0.183, 2.088e-9
-0.182, 2.237e-9
-0.181, 2.290e-9
-0.180, 2.046e-9
-0.179, 2.112e-9
-0.178, 2.256e-9
-0.177, 2.070e-9
-0.176, 1.991e-9
-0.175, 2.200e-9
-0.174, 2.088e-9
-0.173, 1.937e-9
-0.172, 2.070e-9
-0.171, 2.129e-9
-0.170, 1.898e-9
-0.169, 1.957e-9
-0.168, 2.110e-9
-0.167, 1.930e-9
-0.166, 1.830e-9
-0.165, 2.057e-9
-0.164, 1.953e-9
-0.163, 1.784e-9
-0.162, 1.938e-9
-0.161, 1.983e-9
-0.160, 1.766e-9
-0.159, 1.831e-9
-0.158, 1.962e-9
-0.157, 1.802e-9
-0.156, 1.705e-9
-0.155, 1.929e-9
-0.154, 1.825e-9
-0.153, 1.647e-9
-0.152, 1.815e-9
-0.151, 1.862e-9
-0.150, 1.626e-9
-0.149, 1.714e-9
-0.148, 1.837e-9
-0.147, 1.675e-9
-0.146, 1.596e-9
-0.145, 1.792e-9
-0.144, 1.712e-9
-0.143, 1.539e-9
-0.142, 1.686e-9
-0.141, 1.744e-9
-0.140, 1.507e-9
-0.139, 1.588e-9
-0.138, 1.731e-9
-0.137, 1.545e-9
-0.136, 1.471e-9
-0.135, 1.695e-9
-0.134, 1.574e-9
-0.133, 1.425e-9
-0.132, 1.572e-9
-0.131, 1.633e-9
-0.130, 1.400e-9
-0.129, 1.460e-9
-0.128, 1.605e-9
-0.127, 1.439e-9
-0.126, 1.345e-9
-0.125, 1.574e-9
-0.124, 1.460e-9
-0.123, 1.300e-9
-0.122, 1.462e-9
-0.121, 1.492e-9
-0.120, 1.281e-9
-0.119, 1.351e-9
-0.118, 1.477e-9
-0.117, 1.317e-9
-0.116, 1.224e-9
-0.115, 1.443e-9
-0.114, 1.335e-9
-0.113, 1.166e-9
-0.112, 1.333e-9
-0.111, 1.369e-9
-0.110, 1.134e-9
-0.109, 1.217e-9
-0.108, 1.341e-9
-0.107, 1.171e-9
-0.106, 1.097e-9
-0.105, 1.291e-9
-0.104, 1.192e-9
-0.103, 1.020e-9
-0.102, 1.173e-9
-0.101, 1.220e-9
-0.100, 9.802e-10
-0.099, 1.054e-9
-0.098, 1.191e-9
-0.097, 9.960e-10
-0.096, 9.275e-10
-0.095, 1.123e-9
-0.094, 1.006e-9
-0.093, 8.519e-10
-0.092, 9.837e-10
-0.091, 1.040e-9
-0.090, 7.870e-10
-0.089, 8.479e-10
-0.088, 9.877e-10
-0.087, 7.987e-10
-0.086, 6.969e-10
-0.085, 9.173e-10
-0.084, 7.869e-10
-0.083, 6.146e-10
-0.082, 7.597e-10
-0.081, 7.819e-10
-0.080, 5.414e-10
-0.079, 6.016e-10
-0.078, 7.167e-10
-0.077, 5.249e-10
-0.076, 4.150e-10
-0.075, 6.178e-10
-0.074, 4.975e-10
-0.073, 3.013e-10
-0.072, 4.481e-10
-0.071, 4.596e-10
-0.070, 2.007e-10
-0.069, 2.652e-10
-0.068, 3.589e-10
-0.067, 1.644e-10
-0.066, 5.594e-11
-0.065, 2.227e-10
-0.064, 9.276e-11
-0.063, -9.863e-11
-0.062, 1.154e-11
-0.061, 2.719e-11
-0.060, -2.506e-10
-0.059, -2.014e-10
-0.058, -1.094e-10
-0.057, -3.466e-10
-0.056, -4.543e-10
-0.055, -2.950e-10
-0.054, -4.643e-10
-0.053, -6.576e-10
-0.052, -5.744e-10
-0.051, -5.864e-10
-0.050, -8.733e-10
-0.049, -8.619e-10
-0.048, -7.842e-10
-0.047, -1.036e-9
-0.046, -1.186e-9
-0.045, -1.033e-9
-0.044, -1.233e-9
-0.043, -1.463e-9
-0.042, -1.378e-9
-0.041, -1.443e-9
-0.040, -1.753e-9
-0.039, -1.767e-9
-0.038, -1.738e-9
-0.037, -2.008e-9
-0.036, -2.192e-9
-0.035, -2.080e-9
-0.034, -2.311e-9
-0.033, -2.589e-9
-0.032, -2.536e-9
-0.031, -2.629e-9
-0.030, -3.001e-9
-0.029, -3.034e-9
-0.028, -3.070e-9
-0.027, -3.377e-9
-0.026, -3.602e-9
-0.025, -3.557e-9
-0.024, -3.821e-9
-0.023, -4.151e-9
-0.022, -4.170e-9
-0.021, -4.306e-9
-0.020, -4.732e-9
-0.019, -4.834e-9
-0.018, -4.904e-9
-0.017, -5.310e-9
-0.016, -5.569e-9
-0.015, -5.588e-9
-0.014, -5.940e-9
-0.013, -6.319e-9
-0.012, -6.419e-9
-0.011, -6.627e-9
-0.010, -7.099e-9
-0.009, -7.315e-9
-0.008, -7.461e-9
-0.007, -7.927e-9
-0.006, -8.293e-9
-0.005, -8.381e-9
-0.004, -8.816e-9
-0.003, -9.273e-9
-0.002, -9.451e-9
-0.001, -9.781e-9
-0.000, -1.047e-8
0.001, -1.067e-8
0.002, -1.093e-8
0.003, -1.144e-8
0.004, -1.192e-8
0.005, -1.209e-8
0.006, -1.262e-8
0.007, -1.320e-8
0.008, -1.346e-8
0.009, -1.387e-8
0.010, -1.455e-8
0.011, -1.491e-8
0.012, -1.530e-8
0.013, -1.593e-8
0.014, -1.649e-8
0.015, -1.680e-8
0.016, -1.740e-8
0.017, -1.805e-8
0.018, -1.844e-8
0.019, -1.893e-8
0.020, -1.972e-8
0.021, -2.015e-8
0.022, -2.061e-8
0.023, -2.136e-8
0.024, -2.197e-8
0.025, -2.238e-8
0.026, -2.309e-8
0.027, -2.380e-8
0.028, -2.426e-8
0.029, -2.482e-8
0.030, -2.562e-8
0.031, -2.618e-8
0.032, -2.665e-8
0.033, -2.743e-8
0.034, -2.812e-8
0.035, -2.850e-8
0.036, -2.928e-8
0.037, -2.997e-8
0.038, -3.046e-8
0.039, -3.108e-8
0.040, -3.186e-8
0.041, -3.238e-8
0.042, -3.289e-8
0.043, -3.361e-8
0.044, -3.429e-8
0.045, -3.463e-8
0.046, -3.532e-8
0.047, -3.603e-8
0.048, -3.640e-8
0.049, -3.693e-8
0.050, -3.766e-8
0.051, -3.811e-8
0.052, -3.854e-8
0.053, -3.918e-8
0.054, -3.970e-8
0.055, -3.999e-8
0.056, -4.053e-8
0.057, -4.111e-8
0.058, -4.139e-8
0.059, -4.174e-8
0.060, -4.235e-8
0.061, -4.261e-8
0.062, -4.286e-8
0.063, -4.336e-8
0.064, -4.374e-8
0.065, -4.385e-8
0.066, -4.426e-8
0.067, -4.462e-8
0.068, -4.475e-8
0.069, -4.492e-8
0.070, -4.533e-8
0.071, -4.547e-8
0.072, -4.550e-8
0.073, -4.582e-8
0.074, -4.604e-8
0.075, -4.592e-8
0.076, -4.621e-8
0.077, -4.638e-8
0.078, -4.631e-8
0.079, -4.636e-8
0.080, -4.657e-8
0.081, -4.650e-8
0.082, -4.645e-8
0.083, -4.657e-8
0.084, -4.663e-8
0.085, -4.637e-8
0.086, -4.644e-8
0.087, -4.655e-8
0.088, -4.629e-8
0.089, -4.621e-8
0.090, -4.631e-8
0.091, -4.611e-8
0.092, -4.592e-8
0.093, -4.592e-8
0.094, -4.585e-8
0.095, -4.553e-8
0.096, -4.548e-8
0.097, -4.547e-8
0.098, -4.515e-8
0.099, -4.494e-8
0.100, -4.500e-8
0.101, -4.471e-8
0.102, -4.443e-8
0.103, -4.442e-8
0.104, -4.426e-8
0.105, -4.385e-8
0.106, -4.379e-8
0.107, -4.368e-8
0.108, -4.334e-8
0.109, -4.309e-8
0.110, -4.309e-8
0.111, -4.278e-8
0.112, -4.244e-8
0.113, -4.240e-8
0.114, -4.223e-8
0.115, -4.180e-8
0.116, -4.171e-8
0.117, -4.160e-8
0.118, -4.122e-8
0.119, -4.098e-8
0.120, -4.096e-8
0.121, -4.064e-8
0.122, -4.032e-8
0.123, -4.025e-8
0.124, -4.009e-8
0.125, -3.964e-8
0.126, -3.956e-8
0.127, -3.949e-8
0.128, -3.908e-8
0.129, -3.885e-8
0.130, -3.886e-8
0.131, -3.852e-8
0.132, -3.821e-8
0.133, -3.817e-8
0.134, -3.799e-8
0.135, -3.759e-8
0.136, -3.750e-8
0.137, -3.744e-8
0.138, -3.707e-8
0.139, -3.685e-8
0.140, -3.688e-8
0.141, -3.657e-8
0.142, -3.627e-8
0.143, -3.626e-8
0.144, -3.611e-8
0.145, -3.571e-8
0.146, -3.567e-8
0.147, -3.561e-8
0.148, -3.527e-8
0.149, -3.506e-8
0.150, -3.510e-8
0.151, -3.484e-8
0.152, -3.455e-8
0.153, -3.456e-8
0.154, -3.445e-8
0.155, -3.406e-8
0.156, -3.405e-8
0.157, -3.400e-8
0.158, -3.368e-8
0.159, -3.351e-8
0.160, -3.357e-8
0.161, -3.330e-8
0.162, -3.306e-8
0.163, -3.308e-8
0.164, -3.298e-8
0.165, -3.263e-8
0.166, -3.262e-8
0.167, -3.262e-8
0.168, -3.229e-8
0.169, -3.215e-8
0.170, -3.225e-8
0.171, -3.199e-8
0.172, -3.175e-8
0.173, -3.180e-8
0.174, -3.171e-8
0.175, -3.140e-8
0.176, -3.138e-8
0.177, -3.140e-8
0.178, -3.112e-8
0.179, -3.097e-8
0.180, -3.110e-8
0.181, -3.085e-8
0.182, -3.062e-8
0.183, -3.070e-8
0.184, -3.063e-8
0.185, -3.030e-8
0.186, -3.034e-8
0.187, -3.036e-8
0.188, -3.008e-8
0.189, -2.996e-8
0.190, -3.008e-8
0.191, -2.988e-8
0.192, -2.966e-8
0.193, -2.975e-8
0.194, -2.970e-8
0.195, -2.938e-8
0.196, -2.943e-8
0.197, -2.947e-8
0.198, -2.920e-8
0.199, -2.911e-8
0.200, -2.922e-8
0.201, -2.902e-8
0.202, -2.884e-8
0.203, -2.893e-8
0.204, -2.890e-8
0.205, -2.860e-8
0.206, -2.865e-8
0.207, -2.871e-8
0.208, -2.844e-8
0.209, -2.836e-8
0.210, -2.850e-8
0.211, -2.830e-8
0.212, -2.812e-8
0.213, -2.823e-8
0.214, -2.819e-8
0.215, -2.792e-8
0.216, -2.797e-8
0.217, -2.804e-8
0.218, -2.780e-8
0.219, -2.770e-8
0.220, -2.787e-8
0.221, -2.767e-8
0.222, -2.750e-8
0.223, -2.763e-8
0.224, -2.759e-8
0.225, -2.732e-8
0.226, -2.741e-8
0.227, -2.745e-8
0.228, -2.723e-8
0.229, -2.715e-8
0.230, -2.731e-8
0.231, -2.714e-8
0.232, -2.697e-8
0.233, -2.710e-8
0.234, -2.708e-8
0.235, -2.681e-8
0.236, -2.691e-8
0.237, -2.697e-8
0.238, -2.673e-8
0.239, -2.668e-8
0.240, -2.683e-8
0.241, -2.667e-8
0.242, -2.651e-8
0.243, -2.664e-8
0.244, -2.663e-8
0.245, -2.637e-8
0.246, -2.646e-8
0.247, -2.655e-8
0.248, -2.631e-8
0.249, -2.625e-8
0.250, -2.644e-8
0.251, -2.626e-8
0.252, -2.612e-8
0.253, -2.626e-8
0.254, -2.624e-8
0.255, -2.600e-8
0.256, -2.609e-8
0.257, -2.617e-8
0.258, -2.597e-8
0.259, -2.590e-8
0.260, -2.609e-8
0.261, -2.592e-8
0.262, -2.577e-8
0.263, -2.593e-8
0.264, -2.591e-8
0.265, -2.566e-8
0.266, -2.578e-8
0.267, -2.585e-8
0.268, -2.565e-8
0.269, -2.560e-8
0.270, -2.578e-8
0.271, -2.563e-8
0.272, -2.549e-8
0.273, -2.564e-8
0.274, -2.565e-8
0.275, -2.539e-8
0.276, -2.552e-8
0.277, -2.560e-8
0.278, -2.538e-8
0.279, -2.536e-8
0.280, -2.554e-8
0.281, -2.539e-8
0.282, -2.526e-8
0.283, -2.541e-8
0.284, -2.542e-8
0.285, -2.517e-8
0.286, -2.529e-8
0.287, -2.540e-8
0.288, -2.517e-8
0.289, -2.515e-8
0.290, -2.535e-8
0.291, -2.519e-8
0.292, -2.507e-8
0.293, -2.523e-8
0.294, -2.523e-8
0.295, -2.502e-8
0.296, -2.512e-8
0.297, -2.522e-8
0.298, -2.503e-8
0.299, -2.500e-8
0.300, -2.345e-8
0.299, -2.199e-8
0.298, -2.160e-8
0.297, -2.158e-8
0.296, -2.144e-8
0.295, -2.106e-8
0.294, -2.107e-8
0.293, -2.107e-8
0.292, -2.076e-8
0.291, -2.066e-8
0.290, -2.078e-8
0.289, -2.053e-8
0.288, -2.036e-8
0.287, -2.043e-8
0.286, -2.038e-8
0.285, -2.009e-8
0.284, -2.014e-8
0.283, -2.019e-8
0.282, -1.992e-8
0.281, -1.984e-8
0.280, -2.000e-8
0.279, -1.979e-8
0.278, -1.963e-8
0.277, -1.975e-8
0.276, -1.969e-8
0.275, -1.944e-8
0.274, -1.952e-8
0.273, -1.957e-8
0.272, -1.933e-8
0.271, -1.926e-8
0.270, -1.942e-8
0.269, -1.924e-8
0.268, -1.908e-8
0.267, -1.922e-8
0.266, -1.919e-8
0.265, -1.892e-8
0.264, -1.903e-8
0.263, -1.909e-8
0.262, -1.885e-8
0.261, -1.880e-8
0.260, -1.895e-8
0.259, -1.879e-8
0.258, -1.864e-8
0.257, -1.877e-8
0.256, -1.874e-8
0.255, -1.849e-8
0.254, -1.859e-8
0.253, -1.867e-8
0.252, -1.841e-8
0.251, -1.839e-8
0.250, -1.855e-8
0.249, -1.837e-8
0.248, -1.824e-8
0.247, -1.838e-8
0.246, -1.836e-8
0.245, -1.811e-8
0.244, -1.820e-8
0.243, -1.828e-8
0.242, -1.805e-8
0.241, -1.801e-8
0.240, -1.819e-8
0.239, -1.800e-8
0.238, -1.788e-8
0.237, -1.802e-8
0.236, -1.799e-8
0.235, -1.775e-8
0.234, -1.786e-8
0.233, -1.792e-8
0.232, -1.770e-8
0.231, -1.766e-8
0.230, -1.783e-8
0.229, -1.767e-8
0.228, -1.752e-8
0.227, -1.768e-8
0.226, -1.766e-8
0.225, -1.740e-8
0.224, -1.753e-8
0.223, -1.758e-8
0.222, -1.736e-8
0.221, -1.733e-8
0.220, -1.749e-8
0.219, -1.733e-8
0.218, -1.719e-8
0.217, -1.733e-8
0.216, -1.732e-8
0.215, -1.706e-8
0.214, -1.718e-8
0.213, -1.725e-8
0.212, -1.701e-8
0.211, -1.699e-8
0.210, -1.716e-8
0.209, -1.697e-8
0.208, -1.686e-8
0.207, -1.699e-8
0.206, -1.697e-8
0.205, -1.672e-8
0.204, -1.682e-8
0.203, -1.690e-8
0.202, -1.667e-8
0.201, -1.662e-8
0.200, -1.681e-8
0.199, -1.661e-8
0.198, -1.649e-8
0.197, -1.664e-8
0.196, -1.659e-8
0.195, -1.635e-8
0.194, -1.646e-8
0.193, -1.651e-8
0.192, -1.628e-8
0.191, -1.625e-8
0.190, -1.641e-8
0.189, -1.622e-8
0.188, -1.607e-8
0.187, -1.622e-8
0.186, -1.619e-8
0.185, -1.592e-8
0.184, -1.604e-8
0.183, -1.607e-8
0.182, -1.585e-8
0.181, -1.580e-8
0.180, -1.595e-8
0.179, -1.575e-8
0.178, -1.562e-8
0.177, -1.574e-8
0.176, -1.570e-8
0.175, -1.543e-8
0.174, -1.552e-8
0.173, -1.557e-8
0.172, -1.530e-8
0.171, -1.527e-8
0.170, -1.541e-8
0.169, -1.519e-8
0.168, -1.503e-8
0.167, -1.514e-8
0.166, -1.509e-8
0.165, -1.481e-8
0.164, -1.488e-8
0.163, -1.492e-8
0.162, -1.465e-8
0.161, -1.457e-8
0.160, -1.471e-8
0.159, -1.446e-8
0.158, -1.430e-8
0.157, -1.440e-8
0.156, -1.431e-8
0.155, -1.402e-8
0.154, -1.407e-8
0.153, -1.406e-8
0.152, -1.379e-8
0.151, -1.369e-8
0.150, -1.380e-8
0.149, -1.354e-8
0.148, -1.334e-8
0.147, -1.342e-8
0.146, -1.330e-8
0.145, -1.296e-8
0.144, -1.301e-8
0.143, -1.297e-8
0.142, -1.265e-8
0.141, -1.253e-8
0.140, -1.257e-8
0.139, -1.230e-8
0.138, -1.206e-8
0.137, -1.208e-8
0.136, -1.194e-8
0.135, -1.155e-8
0.134, -1.156e-8
0.133, -1.148e-8
0.132, -1.110e-8
0.131, -1.094e-8
0.130, -1.094e-8
0.129, -1.059e-8
0.128, -1.032e-8
0.127, -1.028e-8
0.126, -1.008e-8
0.125, -9.655e-9
0.124, -9.569e-9
0.123, -9.437e-9
0.122, -9.011e-9
0.121, -8.759e-9
0.120, -8.732e-9
0.119, -8.285e-9
0.118, -7.960e-9
0.117, -7.860e-9
0.116, -7.549e-9
0.115, -7.060e-9
0.114, -6.914e-9
0.113, -6.672e-9
0.112, -6.191e-9
0.111, -5.863e-9
0.110, -5.725e-9
0.109, -5.235e-9
0.108, -4.786e-9
0.107, -4.615e-9
0.106, -4.233e-9
0.105, -3.647e-9
0.104, -3.419e-9
0.103, -3.077e-9
0.102, -2.480e-9
0.101, -2.092e-9
0.100, -1.821e-9
0.099, -1.274e-9
0.098, -7.294e-10
0.097, -4.197e-10
0.096, 1.449e-11
0.095, 7.352e-10
0.094, 1.048e-9
0.093, 1.472e-9
0.092, 2.193e-9
0.091, 2.670e-9
0.090, 3.028e-9
0.089, 3.718e-9
0.088, 4.316e-9
0.087, 4.720e-9
0.086, 5.258e-9
0.085, 6.040e-9
0.084, 6.474e-9
0.083, 6.949e-9
0.082, 7.731e-9
0.081, 8.337e-9
0.080, 8.727e-9
0.079, 9.505e-9
0.078, 1.016e-8
0.077, 1.064e-8
0.076, 1.129e-8
0.075, 1.205e-8
0.074, 1.253e-8
0.073, 1.309e-8
0.072, 1.387e-8
0.071, 1.452e-8
0.070, 1.492e-8
0.069, 1.571e-8
0.068, 1.645e-8
0.067, 1.684e-8
0.066, 1.749e-8
0.065, 1.830e-8
0.064, 1.874e-8
0.063, 1.929e-8
0.062, 2.004e-8
0.061, 2.059e-8
0.060, 2.104e-8
0.059, 2.172e-8
0.058, 2.234e-8
0.057, 2.274e-8
0.056, 2.329e-8
0.055, 2.404e-8
0.054, 2.434e-8
0.053, 2.480e-8
0.052, 2.550e-8
0.051, 2.591e-8
0.050, 2.622e-8
0.049, 2.681e-8
0.048, 2.726e-8
0.047, 2.755e-8
0.046, 2.793e-8
0.045, 2.848e-8
0.044, 2.873e-8
0.043, 2.895e-8
0.042, 2.947e-8
0.041, 2.976e-8
0.040, 2.987e-8
0.039, 3.032e-8
0.038, 3.061e-8
0.037, 3.068e-8
0.036, 3.094e-8
0.035, 3.127e-8
0.034, 3.134e-8
0.033, 3.142e-8
0.032, 3.175e-8
0.031, 3.187e-8
0.030, 3.178e-8
0.029, 3.204e-8
0.028, 3.221e-8
0.027, 3.209e-8
0.026, 3.219e-8
0.025, 3.241e-8
0.024, 3.226e-8
0.023, 3.222e-8
0.022, 3.237e-8
0.021, 3.233e-8
0.020, 3.214e-8
0.019, 3.220e-8
0.018, 3.224e-8
0.017, 3.202e-8
0.016, 3.191e-8
0.015, 3.206e-8
0.014, 3.178e-8
0.013, 3.159e-8
0.012, 3.171e-8
0.011, 3.151e-8
0.010, 3.120e-8
0.009, 3.124e-8
0.008, 3.114e-8
0.007, 3.084e-8
0.006, 3.067e-8
0.005, 3.071e-8
0.004, 3.039e-8
0.003, 3.013e-8
0.002, 3.015e-8
0.001, 2.994e-8
0.000, 2.968e-8
-0.001, 2.959e-8
-0.002, 2.944e-8
-0.003, 2.905e-8
-0.004, 2.889e-8
-0.005, 2.887e-8
-0.006, 2.849e-8
-0.007, 2.822e-8
-0.008, 2.820e-8
-0.009, 2.798e-8
-0.010, 2.757e-8
-0.011, 2.754e-8
-0.012, 2.740e-8
-0.013, 2.701e-8
-0.014, 2.682e-8
-0.015, 2.682e-8
-0.016, 2.643e-8
-0.017, 2.617e-8
-0.018, 2.614e-8
-0.019, 2.591e-8
-0.020, 2.553e-8
-0.021, 2.548e-8
-0.022, 2.534e-8
-0.023, 2.498e-8
-0.024, 2.478e-8
-0.025, 2.480e-8
-0.026, 2.442e-8
-0.027, 2.414e-8
-0.028, 2.416e-8
-0.029, 2.392e-8
-0.030, 2.355e-8
-0.031, 2.353e-8
-0.032, 2.340e-8
-0.033, 2.305e-8
-0.034, 2.288e-8
-0.035, 2.290e-8
-0.036, 2.256e-8
-0.037, 2.231e-8
-0.038, 2.233e-8
-0.039, 2.214e-8
-0.040, 2.177e-8
-0.041, 2.178e-8
-0.042, 2.167e-8
-0.043, 2.132e-8
-0.044, 2.120e-8
-0.045, 2.123e-8
-0.046, 2.090e-8
-0.047, 2.069e-8
-0.048, 2.072e-8
-0.049, 2.055e-8
-0.050, 2.020e-8
-0.051, 2.023e-8
-0.052, 2.016e-8
-0.053, 1.982e-8
-0.054, 1.972e-8
-0.055, 1.978e-8
-0.056, 1.946e-8
-0.057, 1.927e-8
-0.058, 1.933e-8
-0.059, 1.916e-8
-0.060, 1.885e-8
-0.061, 1.888e-8
-0.062, 1.883e-8
-0.063, 1.853e-8
-0.064, 1.843e-8
-0.065, 1.851e-8
-0.066, 1.822e-8
-0.067, 1.803e-8
-0.068, 1.813e-8
-0.069, 1.797e-8
-0.070, 1.767e-8
-0.071, 1.774e-8
-0.072, 1.769e-8
-0.073, 1.741e-8
-0.074, 1.733e-8
-0.075, 1.741e-8
-0.076, 1.716e-8
-0.077, 1.698e-8
-0.078, 1.708e-8
-0.079, 1.696e-8
-0.080, 1.666e-8
-0.081, 1.675e-8
-0.082, 1.671e-8
-0.083, 1.643e-8
-0.084, 1.639e-8
-0.085, 1.648e-8
-0.086, 1.622e-8
-0.087, 1.607e-8
-0.088, 1.618e-8
-0.089, 1.607e-8
-0.090, 1.579e-8
-0.091, 1.588e-8
-0.092, 1.587e-8
-0.093, 1.559e-8
-0.094, 1.556e-8
-0.095, 1.568e-8
-0.096, 1.542e-8
-0.097, 1.529e-8
-0.098, 1.541e-8
-0.099, 1.530e-8
-0.100, 1.505e-8
-0.101, 1.515e-8
-0.102, 1.515e-8
-0.103, 1.490e-8
-0.104, 1.485e-8
-0.105, 1.499e-8
-0.106, 1.475e-8
-0.107, 1.461e-8
-0.108, 1.476e-8
-0.109, 1.465e-8
-0.110, 1.440e-8
-0.111, 1.453e-8
-0.112, 1.452e-8
-0.113, 1.428e-8
-0.114, 1.425e-8
-0.115, 1.439e-8
-0.116, 1.416e-8
-0.117, 1.404e-8
-0.118, 1.418e-8
-0.119, 1.410e-8
-0.120, 1.384e-8
-0.121, 1.398e-8
-0.122, 1.398e-8
-0.123, 1.373e-8
-0.124, 1.374e-8
-0.125, 1.387e-8
-0.126, 1.364e-8
-0.127, 1.354e-8
-0.128, 1.370e-8
-0.129, 1.360e-8
-0.130, 1.337e-8
-0.131, 1.350e-8
-0.132, 1.352e-8
-0.133, 1.328e-8
-0.134, 1.327e-8
-0.135, 1.343e-8
-0.136, 1.320e-8
-0.137, 1.310e-8
-0.138, 1.326e-8
-0.139, 1.318e-8
-0.140, 1.296e-8
-0.141, 1.309e-8
-0.142, 1.311e-8
-0.143, 1.289e-8
-0.144, 1.287e-8
-0.145, 1.304e-8
-0.146, 1.282e-8
-0.147, 1.272e-8
-0.148, 1.289e-8
-0.149, 1.281e-8
-0.150, 1.258e-8
-0.151, 1.274e-8
-0.152, 1.275e-8
-0.153, 1.253e-8
-0.154, 1.254e-8
-0.155, 1.270e-8
-0.156, 1.249e-8
-0.157, 1.239e-8
-0.158, 1.256e-8
-0.159, 1.249e-8
-0.160, 1.227e-8
-0.161, 1.242e-8
-0.162, 1.245e-8
-0.163, 1.222e-8
-0.164, 1.226e-8
-0.165, 1.239e-8
-0.166, 1.220e-8
-0.167, 1.212e-8
-0.168, 1.228e-8
-0.169, 1.222e-8
-0.170, 1.200e-8
-0.171, 1.216e-8
-0.172, 1.220e-8
-0.173, 1.197e-8
-0.174, 1.199e-8
-0.175, 1.216e-8
-0.176, 1.194e-8
-0.177, 1.188e-8
-0.178, 1.205e-8
-0.179, 1.198e-8
-0.180, 1.178e-8
-0.181, 1.193e-8
-0.182, 1.196e-8
-0.183, 1.176e-8
-0.184, 1.177e-8
-0.185, 1.195e-8
-0.186, 1.174e-8
-0.187, 1.167e-8
-0.188, 1.185e-8
-0.189, 1.178e-8
-0.190, 1.157e-8
-0.191, 1.175e-8
-0.192, 1.178e-8
-0.193, 1.157e-8
-0.194, 1.160e-8
-0.195, 1.176e-8
-0.196, 1.157e-8
-0.197, 1.149e-8
-0.198, 1.167e-8
-0.199, 1.162e-8
