Mar. 16, 2023   09:27:47
Cyclic Voltammetry
File: c:/users/oliverrz/desktop/electrolab/data/2023_03_16\fcmeoh_macros_500_um\electrode8_cv_200mvs_500_um.bin
Data Source:  Experiment
Instrument Model:  CHI760E
Header: CV
Note: 

Init E (V) = -0.2
High E (V) = 0.3
Low E (V) = -0.2
Final E (V) = -0.2
Init P/N = P
Scan Rate (V/s) = 0.2
Segment = 3
Sample Interval (V) = 0.001
Quiet Time (sec) = 2
Sensitivity (A/V) = 1e-7

Results:

Channel 1:
Segment 1:
Ep = 0.088V
ip = -4.399e-8A
Ah = -1.357e-8C

Segment 2:
Ep = 0.027V
ip = 4.230e-8A
Ah = 1.302e-8C

Segment 3:

Potential/V, Current/A

-0.200, 4.045e-9
-0.199, 3.086e-9
-0.198, 2.912e-9
-0.197, 3.070e-9
-0.196, 2.883e-9
-0.195, 2.643e-9
-0.194, 2.805e-9
-0.193, 2.757e-9
-0.192, 2.497e-9
-0.191, 2.536e-9
-0.190, 2.646e-9
-0.189, 2.406e-9
-0.188, 2.311e-9
-0.187, 2.509e-9
-0.186, 2.367e-9
-0.185, 2.126e-9
-0.184, 2.322e-9
-0.183, 2.305e-9
-0.182, 2.035e-9
-0.181, 2.105e-9
-0.180, 2.225e-9
-0.179, 1.983e-9
-0.178, 1.904e-9
-0.177, 2.091e-9
-0.176, 1.974e-9
-0.175, 1.751e-9
-0.174, 1.927e-9
-0.173, 1.931e-9
-0.172, 1.667e-9
-0.171, 1.734e-9
-0.170, 1.884e-9
-0.169, 1.611e-9
-0.168, 1.569e-9
-0.167, 1.751e-9
-0.166, 1.618e-9
-0.165, 1.422e-9
-0.164, 1.598e-9
-0.163, 1.595e-9
-0.162, 1.355e-9
-0.161, 1.403e-9
-0.160, 1.569e-9
-0.159, 1.315e-9
-0.158, 1.250e-9
-0.157, 1.463e-9
-0.156, 1.315e-9
-0.155, 1.122e-9
-0.154, 1.317e-9
-0.153, 1.296e-9
-0.152, 1.065e-9
-0.151, 1.137e-9
-0.150, 1.269e-9
-0.149, 1.038e-9
-0.148, 9.758e-10
-0.147, 1.184e-9
-0.146, 1.054e-9
-0.145, 8.424e-10
-0.144, 1.058e-9
-0.143, 1.046e-9
-0.142, 7.876e-10
-0.141, 8.818e-10
-0.140, 1.015e-9
-0.139, 7.729e-10
-0.138, 7.412e-10
-0.137, 9.222e-10
-0.136, 8.102e-10
-0.135, 5.947e-10
-0.134, 8.110e-10
-0.133, 8.081e-10
-0.132, 5.449e-10
-0.131, 6.313e-10
-0.130, 7.946e-10
-0.129, 5.212e-10
-0.128, 4.880e-10
-0.127, 7.008e-10
-0.126, 5.518e-10
-0.125, 3.672e-10
-0.124, 5.675e-10
-0.123, 5.710e-10
-0.122, 3.289e-10
-0.121, 3.895e-10
-0.120, 5.566e-10
-0.119, 3.086e-10
-0.118, 2.559e-10
-0.117, 4.696e-10
-0.116, 3.331e-10
-0.115, 1.319e-10
-0.114, 3.571e-10
-0.113, 3.229e-10
-0.112, 1.027e-10
-0.111, 1.816e-10
-0.110, 3.189e-10
-0.109, 8.321e-11
-0.108, 3.133e-11
-0.107, 2.468e-10
-0.106, 1.125e-10
-0.105, -9.853e-11
-0.104, 1.334e-10
-0.103, 9.463e-11
-0.102, -1.416e-10
-0.101, -4.989e-11
-0.100, 8.508e-11
-0.099, -1.552e-10
-0.098, -1.890e-10
-0.097, -3.131e-12
-0.096, -1.258e-10
-0.095, -3.286e-10
-0.094, -1.250e-10
-0.093, -1.314e-10
-0.092, -3.806e-10
-0.091, -2.962e-10
-0.090, -1.570e-10
-0.089, -4.178e-10
-0.088, -4.477e-10
-0.087, -2.528e-10
-0.086, -4.005e-10
-0.085, -5.856e-10
-0.084, -3.893e-10
-0.083, -4.099e-10
-0.082, -6.573e-10
-0.081, -5.862e-10
-0.080, -4.432e-10
-0.079, -7.016e-10
-0.078, -7.607e-10
-0.077, -5.566e-10
-0.076, -7.116e-10
-0.075, -9.079e-10
-0.074, -7.041e-10
-0.073, -7.571e-10
-0.072, -9.879e-10
-0.071, -9.178e-10
-0.070, -8.105e-10
-0.069, -1.054e-9
-0.068, -1.120e-9
-0.067, -9.261e-10
-0.066, -1.092e-9
-0.065, -1.304e-9
-0.064, -1.110e-9
-0.063, -1.147e-9
-0.062, -1.425e-9
-0.061, -1.343e-9
-0.060, -1.245e-9
-0.059, -1.515e-9
-0.058, -1.570e-9
-0.057, -1.419e-9
-0.056, -1.575e-9
-0.055, -1.800e-9
-0.054, -1.639e-9
-0.053, -1.686e-9
-0.052, -1.979e-9
-0.051, -1.917e-9
-0.050, -1.829e-9
-0.049, -2.134e-9
-0.048, -2.195e-9
-0.047, -2.055e-9
-0.046, -2.255e-9
-0.045, -2.478e-9
-0.044, -2.340e-9
-0.043, -2.414e-9
-0.042, -2.712e-9
-0.041, -2.694e-9
-0.040, -2.616e-9
-0.039, -2.944e-9
-0.038, -3.062e-9
-0.037, -2.917e-9
-0.036, -3.156e-9
-0.035, -3.413e-9
-0.034, -3.286e-9
-0.033, -3.429e-9
-0.032, -3.724e-9
-0.031, -3.741e-9
-0.030, -3.725e-9
-0.029, -4.055e-9
-0.028, -4.220e-9
-0.027, -4.122e-9
-0.026, -4.402e-9
-0.025, -4.712e-9
-0.024, -4.627e-9
-0.023, -4.782e-9
-0.022, -5.171e-9
-0.021, -5.204e-9
-0.020, -5.242e-9
-0.019, -5.624e-9
-0.018, -5.832e-9
-0.017, -5.809e-9
-0.016, -6.114e-9
-0.015, -6.472e-9
-0.014, -6.475e-9
-0.013, -6.686e-9
-0.012, -7.130e-9
-0.011, -7.229e-9
-0.010, -7.329e-9
-0.009, -7.824e-9
-0.008, -8.048e-9
-0.007, -8.099e-9
-0.006, -8.508e-9
-0.005, -8.919e-9
-0.004, -8.998e-9
-0.003, -9.280e-9
-0.002, -9.796e-9
-0.001, -9.995e-9
-0.000, -1.031e-8
0.001, -1.077e-8
0.002, -1.112e-8
0.003, -1.121e-8
0.004, -1.172e-8
0.005, -1.221e-8
0.006, -1.235e-8
0.007, -1.278e-8
0.008, -1.335e-8
0.009, -1.365e-8
0.010, -1.394e-8
0.011, -1.455e-8
0.012, -1.504e-8
0.013, -1.524e-8
0.014, -1.584e-8
0.015, -1.648e-8
0.016, -1.667e-8
0.017, -1.719e-8
0.018, -1.791e-8
0.019, -1.825e-8
0.020, -1.868e-8
0.021, -1.938e-8
0.022, -1.991e-8
0.023, -2.026e-8
0.024, -2.091e-8
0.025, -2.163e-8
0.026, -2.200e-8
0.027, -2.255e-8
0.028, -2.337e-8
0.029, -2.379e-8
0.030, -2.427e-8
0.031, -2.508e-8
0.032, -2.566e-8
0.033, -2.606e-8
0.034, -2.685e-8
0.035, -2.755e-8
0.036, -2.798e-8
0.037, -2.860e-8
0.038, -2.941e-8
0.039, -2.996e-8
0.040, -3.041e-8
0.041, -3.126e-8
0.042, -3.189e-8
0.043, -3.227e-8
0.044, -3.309e-8
0.045, -3.376e-8
0.046, -3.417e-8
0.047, -3.482e-8
0.048, -3.556e-8
0.049, -3.604e-8
0.050, -3.653e-8
0.051, -3.728e-8
0.052, -3.788e-8
0.053, -3.819e-8
0.054, -3.887e-8
0.055, -3.959e-8
0.056, -3.985e-8
0.057, -4.038e-8
0.058, -4.108e-8
0.059, -4.141e-8
0.060, -4.180e-8
0.061, -4.241e-8
0.062, -4.286e-8
0.063, -4.311e-8
0.064, -4.362e-8
0.065, -4.413e-8
0.066, -4.431e-8
0.067, -4.465e-8
0.068, -4.522e-8
0.069, -4.536e-8
0.070, -4.557e-8
0.071, -4.606e-8
0.072, -4.631e-8
0.073, -4.634e-8
0.074, -4.673e-8
0.075, -4.707e-8
0.076, -4.706e-8
0.077, -4.723e-8
0.078, -4.759e-8
0.079, -4.762e-8
0.080, -4.760e-8
0.081, -4.794e-8
0.082, -4.801e-8
0.083, -4.784e-8
0.084, -4.810e-8
0.085, -4.822e-8
0.086, -4.804e-8
0.087, -4.810e-8
0.088, -4.825e-8
0.089, -4.814e-8
0.090, -4.800e-8
0.091, -4.815e-8
0.092, -4.811e-8
0.093, -4.780e-8
0.094, -4.788e-8
0.095, -4.794e-8
0.096, -4.759e-8
0.097, -4.751e-8
0.098, -4.761e-8
0.099, -4.733e-8
0.100, -4.712e-8
0.101, -4.714e-8
0.102, -4.703e-8
0.103, -4.666e-8
0.104, -4.663e-8
0.105, -4.657e-8
0.106, -4.619e-8
0.107, -4.601e-8
0.108, -4.606e-8
0.109, -4.570e-8
0.110, -4.541e-8
0.111, -4.543e-8
0.112, -4.521e-8
0.113, -4.479e-8
0.114, -4.476e-8
0.115, -4.466e-8
0.116, -4.425e-8
0.117, -4.404e-8
0.118, -4.403e-8
0.119, -4.369e-8
0.120, -4.334e-8
0.121, -4.334e-8
0.122, -4.314e-8
0.123, -4.268e-8
0.124, -4.265e-8
0.125, -4.254e-8
0.126, -4.210e-8
0.127, -4.192e-8
0.128, -4.191e-8
0.129, -4.155e-8
0.130, -4.123e-8
0.131, -4.120e-8
0.132, -4.102e-8
0.133, -4.058e-8
0.134, -4.052e-8
0.135, -4.045e-8
0.136, -4.001e-8
0.137, -3.983e-8
0.138, -3.986e-8
0.139, -3.948e-8
0.140, -3.920e-8
0.141, -3.920e-8
0.142, -3.900e-8
0.143, -3.859e-8
0.144, -3.854e-8
0.145, -3.847e-8
0.146, -3.808e-8
0.147, -3.790e-8
0.148, -3.795e-8
0.149, -3.760e-8
0.150, -3.732e-8
0.151, -3.737e-8
0.152, -3.718e-8
0.153, -3.679e-8
0.154, -3.680e-8
0.155, -3.673e-8
0.156, -3.636e-8
0.157, -3.620e-8
0.158, -3.627e-8
0.159, -3.597e-8
0.160, -3.568e-8
0.161, -3.576e-8
0.162, -3.561e-8
0.163, -3.521e-8
0.164, -3.526e-8
0.165, -3.521e-8
0.166, -3.486e-8
0.167, -3.475e-8
0.168, -3.483e-8
0.169, -3.451e-8
0.170, -3.430e-8
0.171, -3.436e-8
0.172, -3.424e-8
0.173, -3.387e-8
0.174, -3.391e-8
0.175, -3.392e-8
0.176, -3.356e-8
0.177, -3.346e-8
0.178, -3.358e-8
0.179, -3.330e-8
0.180, -3.308e-8
0.181, -3.318e-8
0.182, -3.305e-8
0.183, -3.273e-8
0.184, -3.278e-8
0.185, -3.279e-8
0.186, -3.248e-8
0.187, -3.238e-8
0.188, -3.252e-8
0.189, -3.224e-8
0.190, -3.205e-8
0.191, -3.217e-8
0.192, -3.208e-8
0.193, -3.174e-8
0.194, -3.184e-8
0.195, -3.184e-8
0.196, -3.155e-8
0.197, -3.147e-8
0.198, -3.161e-8
0.199, -3.137e-8
0.200, -3.118e-8
0.201, -3.131e-8
0.202, -3.123e-8
0.203, -3.091e-8
0.204, -3.102e-8
0.205, -3.106e-8
0.206, -3.074e-8
0.207, -3.071e-8
0.208, -3.084e-8
0.209, -3.061e-8
0.210, -3.045e-8
0.211, -3.059e-8
0.212, -3.052e-8
0.213, -3.022e-8
0.214, -3.033e-8
0.215, -3.038e-8
0.216, -3.009e-8
0.217, -3.005e-8
0.218, -3.023e-8
0.219, -2.998e-8
0.220, -2.985e-8
0.221, -2.999e-8
0.222, -2.992e-8
0.223, -2.966e-8
0.224, -2.976e-8
0.225, -2.982e-8
0.226, -2.955e-8
0.227, -2.951e-8
0.228, -2.971e-8
0.229, -2.947e-8
0.230, -2.934e-8
0.231, -2.951e-8
0.232, -2.944e-8
0.233, -2.917e-8
0.234, -2.931e-8
0.235, -2.937e-8
0.236, -2.911e-8
0.237, -2.908e-8
0.238, -2.927e-8
0.239, -2.907e-8
0.240, -2.893e-8
0.241, -2.910e-8
0.242, -2.907e-8
0.243, -2.880e-8
0.244, -2.895e-8
0.245, -2.901e-8
0.246, -2.875e-8
0.247, -2.876e-8
0.248, -2.893e-8
0.249, -2.873e-8
0.250, -2.863e-8
0.251, -2.879e-8
0.252, -2.876e-8
0.253, -2.850e-8
0.254, -2.865e-8
0.255, -2.874e-8
0.256, -2.848e-8
0.257, -2.848e-8
0.258, -2.870e-8
0.259, -2.847e-8
0.260, -2.838e-8
0.261, -2.856e-8
0.262, -2.852e-8
0.263, -2.829e-8
0.264, -2.844e-8
0.265, -2.851e-8
0.266, -2.829e-8
0.267, -2.827e-8
0.268, -2.852e-8
0.269, -2.830e-8
0.270, -2.820e-8
0.271, -2.842e-8
0.272, -2.836e-8
0.273, -2.812e-8
0.274, -2.831e-8
0.275, -2.838e-8
0.276, -2.816e-8
0.277, -2.817e-8
0.278, -2.837e-8
0.279, -2.820e-8
0.280, -2.809e-8
0.281, -2.830e-8
0.282, -2.828e-8
0.283, -2.803e-8
0.284, -2.823e-8
0.285, -2.830e-8
0.286, -2.807e-8
0.287, -2.811e-8
0.288, -2.832e-8
0.289, -2.814e-8
0.290, -2.806e-8
0.291, -2.826e-8
0.292, -2.824e-8
0.293, -2.801e-8
0.294, -2.820e-8
0.295, -2.832e-8
0.296, -2.806e-8
0.297, -2.811e-8
0.298, -2.835e-8
0.299, -2.814e-8
0.300, -2.562e-8
0.299, -2.392e-8
0.298, -2.348e-8
0.297, -2.295e-8
0.296, -2.290e-8
0.295, -2.275e-8
0.294, -2.233e-8
0.293, -2.220e-8
0.292, -2.224e-8
0.291, -2.193e-8
0.290, -2.170e-8
0.289, -2.176e-8
0.288, -2.162e-8
0.287, -2.128e-8
0.286, -2.133e-8
0.285, -2.133e-8
0.284, -2.097e-8
0.283, -2.093e-8
0.282, -2.103e-8
0.281, -2.074e-8
0.280, -2.059e-8
0.279, -2.070e-8
0.278, -2.059e-8
0.277, -2.030e-8
0.276, -2.038e-8
0.275, -2.042e-8
0.274, -2.010e-8
0.273, -2.005e-8
0.272, -2.021e-8
0.271, -1.995e-8
0.270, -1.979e-8
0.269, -1.995e-8
0.268, -1.983e-8
0.267, -1.957e-8
0.266, -1.969e-8
0.265, -1.970e-8
0.264, -1.942e-8
0.263, -1.940e-8
0.262, -1.955e-8
0.261, -1.932e-8
0.260, -1.916e-8
0.259, -1.934e-8
0.258, -1.925e-8
0.257, -1.897e-8
0.256, -1.911e-8
0.255, -1.914e-8
0.254, -1.887e-8
0.253, -1.886e-8
0.252, -1.900e-8
0.251, -1.879e-8
0.250, -1.865e-8
0.249, -1.882e-8
0.248, -1.875e-8
0.247, -1.847e-8
0.246, -1.861e-8
0.245, -1.867e-8
0.244, -1.837e-8
0.243, -1.838e-8
0.242, -1.854e-8
0.241, -1.831e-8
0.240, -1.819e-8
0.239, -1.836e-8
0.238, -1.828e-8
0.237, -1.805e-8
0.236, -1.816e-8
0.235, -1.822e-8
0.234, -1.794e-8
0.233, -1.795e-8
0.232, -1.811e-8
0.231, -1.788e-8
0.230, -1.776e-8
0.229, -1.796e-8
0.228, -1.784e-8
0.227, -1.762e-8
0.226, -1.776e-8
0.225, -1.780e-8
0.224, -1.752e-8
0.223, -1.754e-8
0.222, -1.769e-8
0.221, -1.748e-8
0.220, -1.735e-8
0.219, -1.754e-8
0.218, -1.745e-8
0.217, -1.719e-8
0.216, -1.736e-8
0.215, -1.739e-8
0.214, -1.711e-8
0.213, -1.715e-8
0.212, -1.728e-8
0.211, -1.709e-8
0.210, -1.695e-8
0.209, -1.713e-8
0.208, -1.705e-8
0.207, -1.680e-8
0.206, -1.694e-8
0.205, -1.698e-8
0.204, -1.669e-8
0.203, -1.674e-8
0.202, -1.689e-8
0.201, -1.665e-8
0.200, -1.655e-8
0.199, -1.671e-8
0.198, -1.662e-8
0.197, -1.639e-8
0.196, -1.649e-8
0.195, -1.657e-8
0.194, -1.626e-8
0.193, -1.628e-8
0.192, -1.643e-8
0.191, -1.621e-8
0.190, -1.607e-8
0.189, -1.627e-8
0.188, -1.613e-8
0.187, -1.591e-8
0.186, -1.603e-8
0.185, -1.606e-8
0.184, -1.577e-8
0.183, -1.578e-8
0.182, -1.592e-8
0.181, -1.569e-8
0.180, -1.554e-8
0.179, -1.573e-8
0.178, -1.560e-8
0.177, -1.534e-8
0.176, -1.547e-8
0.175, -1.548e-8
0.174, -1.517e-8
0.173, -1.519e-8
0.172, -1.529e-8
0.171, -1.506e-8
0.170, -1.491e-8
0.169, -1.506e-8
0.168, -1.492e-8
0.167, -1.465e-8
0.166, -1.475e-8
0.165, -1.478e-8
0.164, -1.443e-8
0.163, -1.443e-8
0.162, -1.454e-8
0.161, -1.425e-8
0.160, -1.411e-8
0.159, -1.422e-8
0.158, -1.407e-8
0.157, -1.379e-8
0.156, -1.385e-8
0.155, -1.384e-8
0.154, -1.348e-8
0.153, -1.345e-8
0.152, -1.353e-8
0.151, -1.322e-8
0.150, -1.303e-8
0.149, -1.315e-8
0.148, -1.294e-8
0.147, -1.264e-8
0.146, -1.268e-8
0.145, -1.262e-8
0.144, -1.224e-8
0.143, -1.217e-8
0.142, -1.220e-8
0.141, -1.186e-8
0.140, -1.161e-8
0.139, -1.170e-8
0.138, -1.145e-8
0.137, -1.110e-8
0.136, -1.109e-8
0.135, -1.098e-8
0.134, -1.055e-8
0.133, -1.045e-8
0.132, -1.039e-8
0.131, -1.003e-8
0.130, -9.717e-9
0.129, -9.725e-9
0.128, -9.426e-9
0.127, -9.005e-9
0.126, -8.943e-9
0.125, -8.789e-9
0.124, -8.259e-9
0.123, -8.101e-9
0.122, -7.991e-9
0.121, -7.526e-9
0.120, -7.168e-9
0.119, -7.092e-9
0.118, -6.714e-9
0.117, -6.243e-9
0.116, -6.048e-9
0.115, -5.841e-9
0.114, -5.238e-9
0.113, -4.956e-9
0.112, -4.803e-9
0.111, -4.232e-9
0.110, -3.797e-9
0.109, -3.642e-9
0.108, -3.136e-9
0.107, -2.601e-9
0.106, -2.347e-9
0.105, -1.974e-9
0.104, -1.325e-9
0.103, -9.365e-10
0.102, -6.577e-10
0.101, -2.026e-11
0.100, 5.422e-10
0.099, 7.753e-10
0.098, 1.365e-9
0.097, 2.048e-9
0.096, 2.359e-9
0.095, 2.836e-9
0.094, 3.584e-9
0.093, 4.036e-9
0.092, 4.452e-9
0.091, 5.143e-9
0.090, 5.785e-9
0.089, 6.167e-9
0.088, 6.800e-9
0.087, 7.574e-9
0.086, 7.960e-9
0.085, 8.487e-9
0.084, 9.365e-9
0.083, 9.836e-9
0.082, 1.031e-8
0.081, 1.112e-8
0.080, 1.176e-8
0.079, 1.221e-8
0.078, 1.289e-8
0.077, 1.369e-8
0.076, 1.417e-8
0.075, 1.468e-8
0.074, 1.557e-8
0.073, 1.608e-8
0.072, 1.657e-8
0.071, 1.739e-8
0.070, 1.800e-8
0.069, 1.841e-8
0.068, 1.914e-8
0.067, 1.983e-8
0.066, 2.028e-8
0.065, 2.081e-8
0.064, 2.163e-8
0.063, 2.208e-8
0.062, 2.250e-8
0.061, 2.318e-8
0.060, 2.380e-8
0.059, 2.410e-8
0.058, 2.471e-8
0.057, 2.535e-8
0.056, 2.564e-8
0.055, 2.608e-8
0.054, 2.673e-8
0.053, 2.707e-8
0.052, 2.741e-8
0.051, 2.795e-8
0.050, 2.837e-8
0.049, 2.854e-8
0.048, 2.897e-8
0.047, 2.950e-8
0.046, 2.961e-8
0.045, 2.983e-8
0.044, 3.040e-8
0.043, 3.051e-8
0.042, 3.063e-8
0.041, 3.105e-8
0.040, 3.130e-8
0.039, 3.131e-8
0.038, 3.157e-8
0.037, 3.186e-8
0.036, 3.187e-8
0.035, 3.190e-8
0.034, 3.227e-8
0.033, 3.226e-8
0.032, 3.217e-8
0.031, 3.244e-8
0.030, 3.252e-8
0.029, 3.233e-8
0.028, 3.250e-8
0.027, 3.260e-8
0.026, 3.245e-8
0.025, 3.237e-8
0.024, 3.256e-8
0.023, 3.241e-8
0.022, 3.219e-8
0.021, 3.230e-8
0.020, 3.231e-8
0.019, 3.195e-8
0.018, 3.195e-8
0.017, 3.202e-8
0.016, 3.170e-8
0.015, 3.154e-8
0.014, 3.165e-8
0.013, 3.139e-8
0.012, 3.112e-8
0.011, 3.112e-8
0.010, 3.102e-8
0.009, 3.064e-8
0.008, 3.055e-8
0.007, 3.057e-8
0.006, 3.019e-8
0.005, 2.996e-8
0.004, 3.003e-8
0.003, 2.971e-8
0.002, 2.938e-8
0.001, 2.937e-8
0.000, 2.936e-8
-0.001, 2.886e-8
-0.002, 2.873e-8
-0.003, 2.868e-8
-0.004, 2.831e-8
-0.005, 2.802e-8
-0.006, 2.807e-8
-0.007, 2.776e-8
-0.008, 2.739e-8
-0.009, 2.740e-8
-0.010, 2.723e-8
-0.011, 2.679e-8
-0.012, 2.671e-8
-0.013, 2.665e-8
-0.014, 2.626e-8
-0.015, 2.602e-8
-0.016, 2.604e-8
-0.017, 2.576e-8
-0.018, 2.539e-8
-0.019, 2.537e-8
-0.020, 2.526e-8
-0.021, 2.482e-8
-0.022, 2.473e-8
-0.023, 2.471e-8
-0.024, 2.432e-8
-0.025, 2.409e-8
-0.026, 2.416e-8
-0.027, 2.384e-8
-0.028, 2.352e-8
-0.029, 2.353e-8
-0.030, 2.340e-8
-0.031, 2.300e-8
-0.032, 2.292e-8
-0.033, 2.291e-8
-0.034, 2.256e-8
-0.035, 2.233e-8
-0.036, 2.244e-8
-0.037, 2.215e-8
-0.038, 2.183e-8
-0.039, 2.189e-8
-0.040, 2.177e-8
-0.041, 2.139e-8
-0.042, 2.134e-8
-0.043, 2.134e-8
-0.044, 2.103e-8
-0.045, 2.080e-8
-0.046, 2.092e-8
-0.047, 2.069e-8
-0.048, 2.035e-8
-0.049, 2.044e-8
-0.050, 2.035e-8
-0.051, 1.999e-8
-0.052, 1.998e-8
-0.053, 1.999e-8
-0.054, 1.968e-8
-0.055, 1.952e-8
-0.056, 1.962e-8
-0.057, 1.939e-8
-0.058, 1.911e-8
-0.059, 1.920e-8
-0.060, 1.916e-8
-0.061, 1.877e-8
-0.062, 1.878e-8
-0.063, 1.885e-8
-0.064, 1.854e-8
-0.065, 1.838e-8
-0.066, 1.852e-8
-0.067, 1.830e-8
-0.068, 1.806e-8
-0.069, 1.815e-8
-0.070, 1.809e-8
-0.071, 1.778e-8
-0.072, 1.779e-8
-0.073, 1.786e-8
-0.074, 1.757e-8
-0.075, 1.743e-8
-0.076, 1.761e-8
-0.077, 1.740e-8
-0.078, 1.714e-8
-0.079, 1.728e-8
-0.080, 1.722e-8
-0.081, 1.693e-8
-0.082, 1.694e-8
-0.083, 1.702e-8
-0.084, 1.676e-8
-0.085, 1.663e-8
-0.086, 1.680e-8
-0.087, 1.663e-8
-0.088, 1.637e-8
-0.089, 1.654e-8
-0.090, 1.649e-8
-0.091, 1.619e-8
-0.092, 1.625e-8
-0.093, 1.632e-8
-0.094, 1.606e-8
-0.095, 1.596e-8
-0.096, 1.613e-8
-0.097, 1.597e-8
-0.098, 1.575e-8
-0.099, 1.589e-8
-0.100, 1.589e-8
-0.101, 1.558e-8
-0.102, 1.565e-8
-0.103, 1.576e-8
-0.104, 1.549e-8
-0.105, 1.541e-8
-0.106, 1.559e-8
-0.107, 1.543e-8
-0.108, 1.522e-8
-0.109, 1.537e-8
-0.110, 1.537e-8
-0.111, 1.510e-8
-0.112, 1.515e-8
-0.113, 1.528e-8
-0.114, 1.502e-8
-0.115, 1.494e-8
-0.116, 1.516e-8
-0.117, 1.498e-8
-0.118, 1.478e-8
-0.119, 1.497e-8
-0.120, 1.494e-8
-0.121, 1.469e-8
-0.122, 1.476e-8
-0.123, 1.488e-8
-0.124, 1.466e-8
-0.125, 1.457e-8
-0.126, 1.478e-8
-0.127, 1.463e-8
-0.128, 1.444e-8
-0.129, 1.463e-8
-0.130, 1.462e-8
-0.131, 1.436e-8
-0.132, 1.446e-8
-0.133, 1.457e-8
-0.134, 1.434e-8
-0.135, 1.429e-8
-0.136, 1.448e-8
-0.137, 1.435e-8
-0.138, 1.417e-8
-0.139, 1.435e-8
-0.140, 1.438e-8
-0.141, 1.410e-8
-0.142, 1.421e-8
-0.143, 1.435e-8
-0.144, 1.410e-8
-0.145, 1.407e-8
-0.146, 1.428e-8
-0.147, 1.413e-8
-0.148, 1.397e-8
-0.149, 1.416e-8
-0.150, 1.417e-8
-0.151, 1.394e-8
-0.152, 1.402e-8
-0.153, 1.418e-8
-0.154, 1.395e-8
-0.155, 1.389e-8
-0.156, 1.414e-8
-0.157, 1.398e-8
-0.158, 1.382e-8
-0.159, 1.404e-8
-0.160, 1.403e-8
-0.161, 1.382e-8
-0.162, 1.391e-8
-0.163, 1.406e-8
-0.164, 1.385e-8
-0.165, 1.380e-8
-0.166, 1.405e-8
-0.167, 1.392e-8
-0.168, 1.374e-8
-0.169, 1.397e-8
-0.170, 1.398e-8
-0.171, 1.374e-8
-0.172, 1.389e-8
-0.173, 1.401e-8
-0.174, 1.381e-8
-0.175, 1.378e-8
-0.176, 1.401e-8
-0.177, 1.390e-8
-0.178, 1.373e-8
-0.179, 1.397e-8
-0.180, 1.399e-8
-0.181, 1.375e-8
-0.182, 1.387e-8
-0.183, 1.405e-8
-0.184, 1.382e-8
-0.185, 1.381e-8
-0.186, 1.406e-8
-0.187, 1.393e-8
-0.188, 1.380e-8
-0.189, 1.402e-8
-0.190, 1.404e-8
-0.191, 1.383e-8
-0.192, 1.396e-8
-0.193, 1.413e-8
-0.194, 1.392e-8
-0.195, 1.391e-8
-0.196, 1.417e-8
-0.197, 1.404e-8
-0.198, 1.389e-8
-0.199, 1.416e-8
