Mar. 16, 2023   09:25:48
Cyclic Voltammetry
File: c:/users/oliverrz/desktop/electrolab/data/2023_03_16\fcmeoh_macros_500_um\electrode7_cv_50mvs_500_um.bin
Data Source:  Experiment
Instrument Model:  CHI760E
Header: CV
Note: 

Init E (V) = -0.2
High E (V) = 0.3
Low E (V) = -0.2
Final E (V) = -0.2
Init P/N = P
Scan Rate (V/s) = 0.05
Segment = 3
Sample Interval (V) = 0.001
Quiet Time (sec) = 2
Sensitivity (A/V) = 1e-7

Results:

Channel 1:
Segment 1:
Ep = 0.102V
ip = -2.425e-8A
Ah = -3.177e-8C

Segment 2:
Ep = 0.029V
ip = 2.292e-8A
Ah = 2.974e-8C

Segment 3:

Potential/V, Current/A

-0.200, 2.238e-9
-0.199, 1.996e-9
-0.198, 1.946e-9
-0.197, 1.918e-9
-0.196, 1.888e-9
-0.195, 1.864e-9
-0.194, 1.844e-9
-0.193, 1.826e-9
-0.192, 1.806e-9
-0.191, 1.784e-9
-0.190, 1.765e-9
-0.189, 1.751e-9
-0.188, 1.734e-9
-0.187, 1.719e-9
-0.186, 1.699e-9
-0.185, 1.681e-9
-0.184, 1.667e-9
-0.183, 1.651e-9
-0.182, 1.638e-9
-0.181, 1.619e-9
-0.180, 1.599e-9
-0.179, 1.586e-9
-0.178, 1.574e-9
-0.177, 1.561e-9
-0.176, 1.545e-9
-0.175, 1.526e-9
-0.174, 1.517e-9
-0.173, 1.506e-9
-0.172, 1.493e-9
-0.171, 1.479e-9
-0.170, 1.462e-9
-0.169, 1.452e-9
-0.168, 1.444e-9
-0.167, 1.429e-9
-0.166, 1.414e-9
-0.165, 1.401e-9
-0.164, 1.391e-9
-0.163, 1.382e-9
-0.162, 1.371e-9
-0.161, 1.356e-9
-0.160, 1.343e-9
-0.159, 1.333e-9
-0.158, 1.326e-9
-0.157, 1.315e-9
-0.156, 1.299e-9
-0.155, 1.289e-9
-0.154, 1.279e-9
-0.153, 1.272e-9
-0.152, 1.262e-9
-0.151, 1.248e-9
-0.150, 1.238e-9
-0.149, 1.232e-9
-0.148, 1.222e-9
-0.147, 1.215e-9
-0.146, 1.201e-9
-0.145, 1.189e-9
-0.144, 1.183e-9
-0.143, 1.175e-9
-0.142, 1.167e-9
-0.141, 1.151e-9
-0.140, 1.139e-9
-0.139, 1.134e-9
-0.138, 1.127e-9
-0.137, 1.117e-9
-0.136, 1.105e-9
-0.135, 1.093e-9
-0.134, 1.088e-9
-0.133, 1.081e-9
-0.132, 1.070e-9
-0.131, 1.060e-9
-0.130, 1.048e-9
-0.129, 1.041e-9
-0.128, 1.034e-9
-0.127, 1.024e-9
-0.126, 1.013e-9
-0.125, 1.003e-9
-0.124, 9.960e-10
-0.123, 9.916e-10
-0.122, 9.820e-10
-0.121, 9.700e-10
-0.120, 9.609e-10
-0.119, 9.527e-10
-0.118, 9.478e-10
-0.117, 9.389e-10
-0.116, 9.247e-10
-0.115, 9.151e-10
-0.114, 9.072e-10
-0.113, 9.003e-10
-0.112, 8.927e-10
-0.111, 8.777e-10
-0.110, 8.677e-10
-0.109, 8.605e-10
-0.108, 8.528e-10
-0.107, 8.459e-10
-0.106, 8.297e-10
-0.105, 8.191e-10
-0.104, 8.136e-10
-0.103, 8.051e-10
-0.102, 7.939e-10
-0.101, 7.810e-10
-0.100, 7.706e-10
-0.099, 7.658e-10
-0.098, 7.560e-10
-0.097, 7.465e-10
-0.096, 7.355e-10
-0.095, 7.228e-10
-0.094, 7.169e-10
-0.093, 7.089e-10
-0.092, 6.987e-10
-0.091, 6.860e-10
-0.090, 6.710e-10
-0.089, 6.627e-10
-0.088, 6.558e-10
-0.087, 6.411e-10
-0.086, 6.285e-10
-0.085, 6.135e-10
-0.084, 6.030e-10
-0.083, 5.936e-10
-0.082, 5.784e-10
-0.081, 5.628e-10
-0.080, 5.483e-10
-0.079, 5.376e-10
-0.078, 5.280e-10
-0.077, 5.125e-10
-0.076, 4.938e-10
-0.075, 4.822e-10
-0.074, 4.697e-10
-0.073, 4.589e-10
-0.072, 4.453e-10
-0.071, 4.247e-10
-0.070, 4.106e-10
-0.069, 3.974e-10
-0.068, 3.821e-10
-0.067, 3.680e-10
-0.066, 3.457e-10
-0.065, 3.272e-10
-0.064, 3.116e-10
-0.063, 2.950e-10
-0.062, 2.763e-10
-0.061, 2.547e-10
-0.060, 2.326e-10
-0.059, 2.199e-10
-0.058, 1.994e-10
-0.057, 1.782e-10
-0.056, 1.536e-10
-0.055, 1.260e-10
-0.054, 1.094e-10
-0.053, 8.744e-11
-0.052, 6.066e-11
-0.051, 3.300e-11
-0.050, 6.025e-12
-0.049, -1.603e-11
-0.048, -3.985e-11
-0.047, -6.988e-11
-0.046, -1.009e-10
-0.045, -1.329e-10
-0.044, -1.608e-10
-0.043, -1.876e-10
-0.042, -2.235e-10
-0.041, -2.622e-10
-0.040, -2.959e-10
-0.039, -3.317e-10
-0.038, -3.649e-10
-0.037, -4.057e-10
-0.036, -4.497e-10
-0.035, -4.887e-10
-0.034, -5.283e-10
-0.033, -5.683e-10
-0.032, -6.144e-10
-0.031, -6.660e-10
-0.030, -7.125e-10
-0.029, -7.605e-10
-0.028, -8.110e-10
-0.027, -8.632e-10
-0.026, -9.255e-10
-0.025, -9.835e-10
-0.024, -1.037e-9
-0.023, -1.096e-9
-0.022, -1.154e-9
-0.021, -1.225e-9
-0.020, -1.293e-9
-0.019, -1.356e-9
-0.018, -1.427e-9
-0.017, -1.502e-9
-0.016, -1.580e-9
-0.015, -1.663e-9
-0.014, -1.740e-9
-0.013, -1.825e-9
-0.012, -1.912e-9
-0.011, -2.003e-9
-0.010, -2.100e-9
-0.009, -2.191e-9
-0.008, -2.288e-9
-0.007, -2.391e-9
-0.006, -2.496e-9
-0.005, -2.606e-9
-0.004, -2.718e-9
-0.003, -2.830e-9
-0.002, -2.955e-9
-0.001, -3.081e-9
-0.000, -3.238e-9
0.001, -3.369e-9
0.002, -3.482e-9
0.003, -3.617e-9
0.004, -3.765e-9
0.005, -3.907e-9
0.006, -4.065e-9
0.007, -4.218e-9
0.008, -4.382e-9
0.009, -4.553e-9
0.010, -4.723e-9
0.011, -4.896e-9
0.012, -5.079e-9
0.013, -5.263e-9
0.014, -5.462e-9
0.015, -5.655e-9
0.016, -5.855e-9
0.017, -6.063e-9
0.018, -6.267e-9
0.019, -6.491e-9
0.020, -6.714e-9
0.021, -6.938e-9
0.022, -7.174e-9
0.023, -7.415e-9
0.024, -7.663e-9
0.025, -7.916e-9
0.026, -8.170e-9
0.027, -8.432e-9
0.028, -8.697e-9
0.029, -8.964e-9
0.030, -9.243e-9
0.031, -9.517e-9
0.032, -9.796e-9
0.033, -1.009e-8
0.034, -1.038e-8
0.035, -1.068e-8
0.036, -1.098e-8
0.037, -1.128e-8
0.038, -1.160e-8
0.039, -1.191e-8
0.040, -1.223e-8
0.041, -1.255e-8
0.042, -1.286e-8
0.043, -1.319e-8
0.044, -1.352e-8
0.045, -1.384e-8
0.046, -1.417e-8
0.047, -1.450e-8
0.048, -1.483e-8
0.049, -1.518e-8
0.050, -1.550e-8
0.051, -1.584e-8
0.052, -1.618e-8
0.053, -1.651e-8
0.054, -1.684e-8
0.055, -1.716e-8
0.056, -1.748e-8
0.057, -1.781e-8
0.058, -1.812e-8
0.059, -1.844e-8
0.060, -1.876e-8
0.061, -1.905e-8
0.062, -1.935e-8
0.063, -1.965e-8
0.064, -1.996e-8
0.065, -2.025e-8
0.066, -2.051e-8
0.067, -2.079e-8
0.068, -2.106e-8
0.069, -2.132e-8
0.070, -2.158e-8
0.071, -2.181e-8
0.072, -2.205e-8
0.073, -2.229e-8
0.074, -2.251e-8
0.075, -2.272e-8
0.076, -2.293e-8
0.077, -2.314e-8
0.078, -2.333e-8
0.079, -2.351e-8
0.080, -2.368e-8
0.081, -2.384e-8
0.082, -2.398e-8
0.083, -2.413e-8
0.084, -2.426e-8
0.085, -2.439e-8
0.086, -2.451e-8
0.087, -2.461e-8
0.088, -2.472e-8
0.089, -2.481e-8
0.090, -2.489e-8
0.091, -2.497e-8
0.092, -2.503e-8
0.093, -2.508e-8
0.094, -2.515e-8
0.095, -2.518e-8
0.096, -2.521e-8
0.097, -2.525e-8
0.098, -2.527e-8
0.099, -2.529e-8
0.100, -2.530e-8
0.101, -2.529e-8
0.102, -2.530e-8
0.103, -2.530e-8
0.104, -2.528e-8
0.105, -2.526e-8
0.106, -2.522e-8
0.107, -2.520e-8
0.108, -2.517e-8
0.109, -2.513e-8
0.110, -2.509e-8
0.111, -2.504e-8
0.112, -2.499e-8
0.113, -2.494e-8
0.114, -2.488e-8
0.115, -2.483e-8
0.116, -2.476e-8
0.117, -2.469e-8
0.118, -2.463e-8
0.119, -2.456e-8
0.120, -2.448e-8
0.121, -2.441e-8
0.122, -2.434e-8
0.123, -2.426e-8
0.124, -2.419e-8
0.125, -2.410e-8
0.126, -2.402e-8
0.127, -2.394e-8
0.128, -2.386e-8
0.129, -2.378e-8
0.130, -2.369e-8
0.131, -2.361e-8
0.132, -2.352e-8
0.133, -2.344e-8
0.134, -2.336e-8
0.135, -2.326e-8
0.136, -2.317e-8
0.137, -2.309e-8
0.138, -2.301e-8
0.139, -2.292e-8
0.140, -2.284e-8
0.141, -2.275e-8
0.142, -2.266e-8
0.143, -2.258e-8
0.144, -2.250e-8
0.145, -2.242e-8
0.146, -2.233e-8
0.147, -2.225e-8
0.148, -2.217e-8
0.149, -2.209e-8
0.150, -2.201e-8
0.151, -2.193e-8
0.152, -2.185e-8
0.153, -2.178e-8
0.154, -2.171e-8
0.155, -2.163e-8
0.156, -2.155e-8
0.157, -2.147e-8
0.158, -2.141e-8
0.159, -2.134e-8
0.160, -2.126e-8
0.161, -2.119e-8
0.162, -2.112e-8
0.163, -2.105e-8
0.164, -2.099e-8
0.165, -2.092e-8
0.166, -2.085e-8
0.167, -2.078e-8
0.168, -2.072e-8
0.169, -2.066e-8
0.170, -2.060e-8
0.171, -2.054e-8
0.172, -2.048e-8
0.173, -2.042e-8
0.174, -2.036e-8
0.175, -2.030e-8
0.176, -2.024e-8
0.177, -2.019e-8
0.178, -2.013e-8
0.179, -2.008e-8
0.180, -2.003e-8
0.181, -1.997e-8
0.182, -1.991e-8
0.183, -1.987e-8
0.184, -1.982e-8
0.185, -1.977e-8
0.186, -1.971e-8
0.187, -1.967e-8
0.188, -1.962e-8
0.189, -1.957e-8
0.190, -1.953e-8
0.191, -1.948e-8
0.192, -1.943e-8
0.193, -1.939e-8
0.194, -1.935e-8
0.195, -1.931e-8
0.196, -1.926e-8
0.197, -1.922e-8
0.198, -1.919e-8
0.199, -1.915e-8
0.200, -1.911e-8
0.201, -1.907e-8
0.202, -1.903e-8
0.203, -1.900e-8
0.204, -1.897e-8
0.205, -1.893e-8
0.206, -1.889e-8
0.207, -1.885e-8
0.208, -1.882e-8
0.209, -1.879e-8
0.210, -1.875e-8
0.211, -1.871e-8
0.212, -1.868e-8
0.213, -1.865e-8
0.214, -1.862e-8
0.215, -1.859e-8
0.216, -1.856e-8
0.217, -1.853e-8
0.218, -1.850e-8
0.219, -1.848e-8
0.220, -1.845e-8
0.221, -1.841e-8
0.222, -1.839e-8
0.223, -1.836e-8
0.224, -1.834e-8
0.225, -1.831e-8
0.226, -1.828e-8
0.227, -1.826e-8
0.228, -1.824e-8
0.229, -1.821e-8
0.230, -1.819e-8
0.231, -1.816e-8
0.232, -1.814e-8
0.233, -1.812e-8
0.234, -1.810e-8
0.235, -1.808e-8
0.236, -1.805e-8
0.237, -1.803e-8
0.238, -1.802e-8
0.239, -1.799e-8
0.240, -1.797e-8
0.241, -1.795e-8
0.242, -1.793e-8
0.243, -1.791e-8
0.244, -1.790e-8
0.245, -1.787e-8
0.246, -1.785e-8
0.247, -1.783e-8
0.248, -1.782e-8
0.249, -1.781e-8
0.250, -1.779e-8
0.251, -1.777e-8
0.252, -1.775e-8
0.253, -1.774e-8
0.254, -1.773e-8
0.255, -1.771e-8
0.256, -1.769e-8
0.257, -1.768e-8
0.258, -1.766e-8
0.259, -1.765e-8
0.260, -1.763e-8
0.261, -1.761e-8
0.262, -1.760e-8
0.263, -1.759e-8
0.264, -1.758e-8
0.265, -1.757e-8
0.266, -1.755e-8
0.267, -1.754e-8
0.268, -1.753e-8
0.269, -1.752e-8
0.270, -1.751e-8
0.271, -1.750e-8
0.272, -1.748e-8
0.273, -1.747e-8
0.274, -1.746e-8
0.275, -1.745e-8
0.276, -1.744e-8
0.277, -1.743e-8
0.278, -1.742e-8
0.279, -1.741e-8
0.280, -1.740e-8
0.281, -1.739e-8
0.282, -1.739e-8
0.283, -1.738e-8
0.284, -1.737e-8
0.285, -1.736e-8
0.286, -1.735e-8
0.287, -1.734e-8
0.288, -1.733e-8
0.289, -1.733e-8
0.290, -1.732e-8
0.291, -1.731e-8
0.292, -1.730e-8
0.293, -1.730e-8
0.294, -1.729e-8
0.295, -1.728e-8
0.296, -1.727e-8
0.297, -1.727e-8
0.298, -1.727e-8
0.299, -1.726e-8
0.300, -1.705e-8
0.299, -1.648e-8
0.298, -1.631e-8
0.297, -1.622e-8
0.296, -1.614e-8
0.295, -1.607e-8
0.294, -1.600e-8
0.293, -1.595e-8
0.292, -1.590e-8
0.291, -1.585e-8
0.290, -1.580e-8
0.289, -1.575e-8
0.288, -1.571e-8
0.287, -1.567e-8
0.286, -1.563e-8
0.285, -1.559e-8
0.284, -1.555e-8
0.283, -1.551e-8
0.282, -1.548e-8
0.281, -1.545e-8
0.280, -1.541e-8
0.279, -1.537e-8
0.278, -1.534e-8
0.277, -1.531e-8
0.276, -1.528e-8
0.275, -1.525e-8
0.274, -1.522e-8
0.273, -1.519e-8
0.272, -1.517e-8
0.271, -1.514e-8
0.270, -1.511e-8
0.269, -1.508e-8
0.268, -1.505e-8
0.267, -1.503e-8
0.266, -1.500e-8
0.265, -1.498e-8
0.264, -1.495e-8
0.263, -1.493e-8
0.262, -1.491e-8
0.261, -1.488e-8
0.260, -1.485e-8
0.259, -1.483e-8
0.258, -1.481e-8
0.257, -1.479e-8
0.256, -1.476e-8
0.255, -1.474e-8
0.254, -1.472e-8
0.253, -1.470e-8
0.252, -1.468e-8
0.251, -1.466e-8
0.250, -1.463e-8
0.249, -1.461e-8
0.248, -1.459e-8
0.247, -1.458e-8
0.246, -1.456e-8
0.245, -1.453e-8
0.244, -1.451e-8
0.243, -1.449e-8
0.242, -1.447e-8
0.241, -1.446e-8
0.240, -1.443e-8
0.239, -1.441e-8
0.238, -1.439e-8
0.237, -1.438e-8
0.236, -1.436e-8
0.235, -1.434e-8
0.234, -1.432e-8
0.233, -1.430e-8
0.232, -1.428e-8
0.231, -1.426e-8
0.230, -1.424e-8
0.229, -1.422e-8
0.228, -1.420e-8
0.227, -1.419e-8
0.226, -1.417e-8
0.225, -1.415e-8
0.224, -1.413e-8
0.223, -1.411e-8
0.222, -1.410e-8
0.221, -1.407e-8
0.220, -1.405e-8
0.219, -1.403e-8
0.218, -1.401e-8
0.217, -1.399e-8
0.216, -1.397e-8
0.215, -1.395e-8
0.214, -1.393e-8
0.213, -1.391e-8
0.212, -1.389e-8
0.211, -1.387e-8
0.210, -1.384e-8
0.209, -1.382e-8
0.208, -1.380e-8
0.207, -1.378e-8
0.206, -1.376e-8
0.205, -1.373e-8
0.204, -1.371e-8
0.203, -1.369e-8
0.202, -1.367e-8
0.201, -1.365e-8
0.200, -1.362e-8
0.199, -1.360e-8
0.198, -1.358e-8
0.197, -1.355e-8
0.196, -1.353e-8
0.195, -1.350e-8
0.194, -1.347e-8
0.193, -1.345e-8
0.192, -1.343e-8
0.191, -1.340e-8
0.190, -1.337e-8
0.189, -1.334e-8
0.188, -1.332e-8
0.187, -1.329e-8
0.186, -1.326e-8
0.185, -1.323e-8
0.184, -1.320e-8
0.183, -1.317e-8
0.182, -1.314e-8
0.181, -1.311e-8
0.180, -1.307e-8
0.179, -1.303e-8
0.178, -1.300e-8
0.177, -1.297e-8
0.176, -1.293e-8
0.175, -1.290e-8
0.174, -1.286e-8
0.173, -1.282e-8
0.172, -1.278e-8
0.171, -1.274e-8
0.170, -1.269e-8
0.169, -1.265e-8
0.168, -1.261e-8
0.167, -1.256e-8
0.166, -1.251e-8
0.165, -1.246e-8
0.164, -1.241e-8
0.163, -1.237e-8
0.162, -1.231e-8
0.161, -1.226e-8
0.160, -1.220e-8
0.159, -1.214e-8
0.158, -1.209e-8
0.157, -1.203e-8
0.156, -1.197e-8
0.155, -1.190e-8
0.154, -1.183e-8
0.153, -1.177e-8
0.152, -1.169e-8
0.151, -1.162e-8
0.150, -1.155e-8
0.149, -1.147e-8
0.148, -1.139e-8
0.147, -1.131e-8
0.146, -1.123e-8
0.145, -1.114e-8
0.144, -1.105e-8
0.143, -1.095e-8
0.142, -1.086e-8
0.141, -1.076e-8
0.140, -1.066e-8
0.139, -1.055e-8
0.138, -1.045e-8
0.137, -1.034e-8
0.136, -1.023e-8
0.135, -1.010e-8
0.134, -9.987e-9
0.133, -9.859e-9
0.132, -9.736e-9
0.131, -9.603e-9
0.130, -9.462e-9
0.129, -9.322e-9
0.128, -9.178e-9
0.127, -9.031e-9
0.126, -8.882e-9
0.125, -8.722e-9
0.124, -8.559e-9
0.123, -8.394e-9
0.122, -8.223e-9
0.121, -8.050e-9
0.120, -7.866e-9
0.119, -7.678e-9
0.118, -7.500e-9
0.117, -7.302e-9
0.116, -7.098e-9
0.115, -6.888e-9
0.114, -6.676e-9
0.113, -6.473e-9
0.112, -6.252e-9
0.111, -6.029e-9
0.110, -5.801e-9
0.109, -5.560e-9
0.108, -5.326e-9
0.107, -5.082e-9
0.106, -4.831e-9
0.105, -4.578e-9
0.104, -4.313e-9
0.103, -4.045e-9
0.102, -3.771e-9
0.101, -3.496e-9
0.100, -3.223e-9
0.099, -2.940e-9
0.098, -2.656e-9
0.097, -2.371e-9
0.096, -2.069e-9
0.095, -1.763e-9
0.094, -1.464e-9
0.093, -1.156e-9
0.092, -8.529e-10
0.091, -5.361e-10
0.090, -2.107e-10
0.089, 1.036e-10
0.088, 4.285e-10
0.087, 7.571e-10
0.086, 1.078e-9
0.085, 1.416e-9
0.084, 1.746e-9
0.083, 2.066e-9
0.082, 2.397e-9
0.081, 2.722e-9
0.080, 3.061e-9
0.079, 3.387e-9
0.078, 3.710e-9
0.077, 4.042e-9
0.076, 4.373e-9
0.075, 4.690e-9
0.074, 5.005e-9
0.073, 5.311e-9
0.072, 5.628e-9
0.071, 5.943e-9
0.070, 6.237e-9
0.069, 6.545e-9
0.068, 6.834e-9
0.067, 7.124e-9
0.066, 7.415e-9
0.065, 7.686e-9
0.064, 7.969e-9
0.063, 8.237e-9
0.062, 8.489e-9
0.061, 8.755e-9
0.060, 8.999e-9
0.059, 9.234e-9
0.058, 9.470e-9
0.057, 9.680e-9
0.056, 9.902e-9
0.055, 1.011e-8
0.054, 1.030e-8
0.053, 1.049e-8
0.052, 1.067e-8
0.051, 1.085e-8
0.050, 1.102e-8
0.049, 1.117e-8
0.048, 1.131e-8
0.047, 1.144e-8
0.046, 1.158e-8
0.045, 1.170e-8
0.044, 1.181e-8
0.043, 1.190e-8
0.042, 1.201e-8
0.041, 1.209e-8
0.040, 1.218e-8
0.039, 1.225e-8
0.038, 1.230e-8
0.037, 1.236e-8
0.036, 1.240e-8
0.035, 1.245e-8
0.034, 1.249e-8
0.033, 1.251e-8
0.032, 1.253e-8
0.031, 1.255e-8
0.030, 1.256e-8
0.029, 1.256e-8
0.028, 1.255e-8
0.027, 1.255e-8
0.026, 1.254e-8
0.025, 1.253e-8
0.024, 1.251e-8
0.023, 1.247e-8
0.022, 1.243e-8
0.021, 1.241e-8
0.020, 1.237e-8
0.019, 1.233e-8
0.018, 1.229e-8
0.017, 1.223e-8
0.016, 1.219e-8
0.015, 1.213e-8
0.014, 1.207e-8
0.013, 1.201e-8
0.012, 1.195e-8
0.011, 1.189e-8
0.010, 1.183e-8
0.009, 1.175e-8
0.008, 1.168e-8
0.007, 1.161e-8
0.006, 1.154e-8
0.005, 1.147e-8
0.004, 1.139e-8
0.003, 1.131e-8
0.002, 1.124e-8
0.001, 1.116e-8
0.000, 1.111e-8
-0.001, 1.104e-8
-0.002, 1.094e-8
-0.003, 1.086e-8
-0.004, 1.078e-8
-0.005, 1.070e-8
-0.006, 1.062e-8
-0.007, 1.054e-8
-0.008, 1.046e-8
-0.009, 1.038e-8
-0.010, 1.030e-8
-0.011, 1.022e-8
-0.012, 1.014e-8
-0.013, 1.006e-8
-0.014, 9.992e-9
-0.015, 9.914e-9
-0.016, 9.837e-9
-0.017, 9.759e-9
-0.018, 9.679e-9
-0.019, 9.612e-9
-0.020, 9.541e-9
-0.021, 9.466e-9
-0.022, 9.392e-9
-0.023, 9.316e-9
-0.024, 9.249e-9
-0.025, 9.181e-9
-0.026, 9.112e-9
-0.027, 9.039e-9
-0.028, 8.970e-9
-0.029, 8.905e-9
-0.030, 8.842e-9
-0.031, 8.772e-9
-0.032, 8.704e-9
-0.033, 8.639e-9
-0.034, 8.575e-9
-0.035, 8.514e-9
-0.036, 8.447e-9
-0.037, 8.378e-9
-0.038, 8.321e-9
-0.039, 8.267e-9
-0.040, 8.211e-9
-0.041, 8.153e-9
-0.042, 8.089e-9
-0.043, 8.033e-9
-0.044, 7.982e-9
-0.045, 7.927e-9
-0.046, 7.873e-9
-0.047, 7.817e-9
-0.048, 7.764e-9
-0.049, 7.719e-9
-0.050, 7.668e-9
-0.051, 7.619e-9
-0.052, 7.566e-9
-0.053, 7.515e-9
-0.054, 7.471e-9
-0.055, 7.425e-9
-0.056, 7.377e-9
-0.057, 7.330e-9
-0.058, 7.283e-9
-0.059, 7.244e-9
-0.060, 7.203e-9
-0.061, 7.158e-9
-0.062, 7.113e-9
-0.063, 7.071e-9
-0.064, 7.034e-9
-0.065, 6.996e-9
-0.066, 6.952e-9
-0.067, 6.909e-9
-0.068, 6.871e-9
-0.069, 6.837e-9
-0.070, 6.803e-9
-0.071, 6.763e-9
-0.072, 6.723e-9
-0.073, 6.690e-9
-0.074, 6.656e-9
-0.075, 6.626e-9
-0.076, 6.589e-9
-0.077, 6.553e-9
-0.078, 6.520e-9
-0.079, 6.490e-9
-0.080, 6.462e-9
-0.081, 6.431e-9
-0.082, 6.396e-9
-0.083, 6.366e-9
-0.084, 6.339e-9
-0.085, 6.309e-9
-0.086, 6.280e-9
-0.087, 6.245e-9
-0.088, 6.218e-9
-0.089, 6.196e-9
-0.090, 6.171e-9
-0.091, 6.140e-9
-0.092, 6.110e-9
-0.093, 6.082e-9
-0.094, 6.063e-9
-0.095, 6.036e-9
-0.096, 6.010e-9
-0.097, 5.983e-9
-0.098, 5.958e-9
-0.099, 5.939e-9
-0.100, 5.919e-9
-0.101, 5.893e-9
-0.102, 5.870e-9
-0.103, 5.851e-9
-0.104, 5.831e-9
-0.105, 5.810e-9
-0.106, 5.785e-9
-0.107, 5.760e-9
-0.108, 5.741e-9
-0.109, 5.722e-9
-0.110, 5.705e-9
-0.111, 5.682e-9
-0.112, 5.659e-9
-0.113, 5.643e-9
-0.114, 5.626e-9
-0.115, 5.610e-9
-0.116, 5.590e-9
-0.117, 5.566e-9
-0.118, 5.549e-9
-0.119, 5.535e-9
-0.120, 5.519e-9
-0.121, 5.500e-9
-0.122, 5.478e-9
-0.123, 5.463e-9
-0.124, 5.451e-9
-0.125, 5.436e-9
-0.126, 5.420e-9
-0.127, 5.400e-9
-0.128, 5.388e-9
-0.129, 5.378e-9
-0.130, 5.362e-9
-0.131, 5.348e-9
-0.132, 5.328e-9
-0.133, 5.315e-9
-0.134, 5.307e-9
-0.135, 5.292e-9
-0.136, 5.277e-9
-0.137, 5.261e-9
-0.138, 5.247e-9
-0.139, 5.241e-9
-0.140, 5.228e-9
-0.141, 5.214e-9
-0.142, 5.199e-9
-0.143, 5.189e-9
-0.144, 5.180e-9
-0.145, 5.170e-9
-0.146, 5.154e-9
-0.147, 5.142e-9
-0.148, 5.133e-9
-0.149, 5.125e-9
-0.150, 5.118e-9
-0.151, 5.103e-9
-0.152, 5.090e-9
-0.153, 5.083e-9
-0.154, 5.077e-9
-0.155, 5.068e-9
-0.156, 5.057e-9
-0.157, 5.043e-9
-0.158, 5.039e-9
-0.159, 5.032e-9
-0.160, 5.024e-9
-0.161, 5.013e-9
-0.162, 5.001e-9
-0.163, 4.996e-9
-0.164, 4.992e-9
-0.165, 4.983e-9
-0.166, 4.975e-9
-0.167, 4.964e-9
-0.168, 4.960e-9
-0.169, 4.956e-9
-0.170, 4.950e-9
-0.171, 4.941e-9
-0.172, 4.931e-9
-0.173, 4.926e-9
-0.174, 4.924e-9
-0.175, 4.919e-9
-0.176, 4.912e-9
-0.177, 4.904e-9
-0.178, 4.899e-9
-0.179, 4.899e-9
-0.180, 4.895e-9
-0.181, 4.886e-9
-0.182, 4.880e-9
-0.183, 4.876e-9
-0.184, 4.877e-9
-0.185, 4.875e-9
-0.186, 4.866e-9
-0.187, 4.861e-9
-0.188, 4.860e-9
-0.189, 4.858e-9
-0.190, 4.856e-9
-0.191, 4.849e-9
-0.192, 4.845e-9
-0.193, 4.845e-9
-0.194, 4.842e-9
-0.195, 4.844e-9
-0.196, 4.838e-9
-0.197, 4.832e-9
-0.198, 4.835e-9
-0.199, 4.835e-9
