Mar. 16, 2023   09:27:36
Cyclic Voltammetry
File: c:/users/oliverrz/desktop/electrolab/data/2023_03_16\fcmeoh_macros_500_um\electrode8_cv_150mvs_500_um.bin
Data Source:  Experiment
Instrument Model:  CHI760E
Header: CV
Note: 

Init E (V) = -0.2
High E (V) = 0.3
Low E (V) = -0.2
Final E (V) = -0.2
Init P/N = P
Scan Rate (V/s) = 0.15
Segment = 3
Sample Interval (V) = 0.001
Quiet Time (sec) = 2
Sensitivity (A/V) = 1e-7

Results:

Channel 1:
Segment 1:
Ep = 0.088V
ip = -3.806e-8A
Ah = -1.549e-8C

Segment 2:
Ep = 0.026V
ip = 3.687e-8A
Ah = 1.528e-8C

Segment 3:

Potential/V, Current/A

-0.200, 3.924e-9
-0.199, 3.483e-9
-0.198, 3.467e-9
-0.197, 3.190e-9
-0.196, 3.369e-9
-0.195, 3.123e-9
-0.194, 3.124e-9
-0.193, 3.159e-9
-0.192, 2.891e-9
-0.191, 3.102e-9
-0.190, 2.863e-9
-0.189, 2.867e-9
-0.188, 2.928e-9
-0.187, 2.668e-9
-0.186, 2.876e-9
-0.185, 2.652e-9
-0.184, 2.656e-9
-0.183, 2.721e-9
-0.182, 2.465e-9
-0.181, 2.678e-9
-0.180, 2.445e-9
-0.179, 2.469e-9
-0.178, 2.537e-9
-0.177, 2.267e-9
-0.176, 2.505e-9
-0.175, 2.287e-9
-0.174, 2.280e-9
-0.173, 2.371e-9
-0.172, 2.108e-9
-0.171, 2.318e-9
-0.170, 2.130e-9
-0.169, 2.116e-9
-0.168, 2.203e-9
-0.167, 1.961e-9
-0.166, 2.158e-9
-0.165, 1.952e-9
-0.164, 1.985e-9
-0.163, 2.041e-9
-0.162, 1.805e-9
-0.161, 2.018e-9
-0.160, 1.810e-9
-0.159, 1.828e-9
-0.158, 1.902e-9
-0.157, 1.659e-9
-0.156, 1.875e-9
-0.155, 1.675e-9
-0.154, 1.692e-9
-0.153, 1.752e-9
-0.152, 1.531e-9
-0.151, 1.750e-9
-0.150, 1.525e-9
-0.149, 1.578e-9
-0.148, 1.627e-9
-0.147, 1.392e-9
-0.146, 1.630e-9
-0.145, 1.401e-9
-0.144, 1.439e-9
-0.143, 1.518e-9
-0.142, 1.265e-9
-0.141, 1.496e-9
-0.140, 1.292e-9
-0.139, 1.320e-9
-0.138, 1.395e-9
-0.137, 1.151e-9
-0.136, 1.387e-9
-0.135, 1.179e-9
-0.134, 1.204e-9
-0.133, 1.280e-9
-0.132, 1.042e-9
-0.131, 1.273e-9
-0.130, 1.065e-9
-0.129, 1.085e-9
-0.128, 1.167e-9
-0.127, 9.272e-10
-0.126, 1.161e-9
-0.125, 9.575e-10
-0.124, 9.789e-10
-0.123, 1.056e-9
-0.122, 8.282e-10
-0.121, 1.044e-9
-0.120, 8.435e-10
-0.119, 8.873e-10
-0.118, 9.369e-10
-0.117, 7.200e-10
-0.116, 9.442e-10
-0.115, 7.328e-10
-0.114, 7.789e-10
-0.113, 8.401e-10
-0.112, 6.113e-10
-0.111, 8.418e-10
-0.110, 6.212e-10
-0.109, 6.668e-10
-0.108, 7.342e-10
-0.107, 5.022e-10
-0.106, 7.329e-10
-0.105, 5.120e-10
-0.104, 5.658e-10
-0.103, 6.195e-10
-0.102, 3.765e-10
-0.101, 6.256e-10
-0.100, 4.037e-10
-0.099, 4.397e-10
-0.098, 5.172e-10
-0.097, 2.765e-10
-0.096, 5.059e-10
-0.095, 2.993e-10
-0.094, 3.187e-10
-0.093, 3.988e-10
-0.092, 1.619e-10
-0.091, 3.853e-10
-0.090, 1.704e-10
-0.089, 2.039e-10
-0.088, 2.797e-10
-0.087, 4.103e-11
-0.086, 2.574e-10
-0.085, 5.175e-11
-0.084, 8.331e-11
-0.083, 1.428e-10
-0.082, -8.439e-11
-0.081, 1.178e-10
-0.080, -7.781e-11
-0.079, -5.298e-11
-0.078, -2.870e-12
-0.077, -2.277e-10
-0.076, -2.275e-11
-0.075, -2.434e-10
-0.074, -1.962e-10
-0.073, -1.673e-10
-0.072, -3.835e-10
-0.071, -1.695e-10
-0.070, -4.191e-10
-0.069, -3.636e-10
-0.068, -3.269e-10
-0.067, -5.740e-10
-0.066, -3.476e-10
-0.065, -6.010e-10
-0.064, -5.619e-10
-0.063, -5.153e-10
-0.062, -7.788e-10
-0.061, -5.622e-10
-0.060, -7.948e-10
-0.059, -7.781e-10
-0.058, -7.457e-10
-0.057, -9.949e-10
-0.056, -7.925e-10
-0.055, -1.041e-9
-0.054, -1.026e-9
-0.053, -9.909e-10
-0.052, -1.265e-9
-0.051, -1.070e-9
-0.050, -1.312e-9
-0.049, -1.324e-9
-0.048, -1.274e-9
-0.047, -1.557e-9
-0.046, -1.386e-9
-0.045, -1.631e-9
-0.044, -1.640e-9
-0.043, -1.647e-9
-0.042, -1.898e-9
-0.041, -1.752e-9
-0.040, -2.012e-9
-0.039, -2.020e-9
-0.038, -2.048e-9
-0.037, -2.327e-9
-0.036, -2.161e-9
-0.035, -2.459e-9
-0.034, -2.479e-9
-0.033, -2.504e-9
-0.032, -2.804e-9
-0.031, -2.670e-9
-0.030, -2.971e-9
-0.029, -3.005e-9
-0.028, -3.068e-9
-0.027, -3.377e-9
-0.026, -3.266e-9
-0.025, -3.596e-9
-0.024, -3.621e-9
-0.023, -3.708e-9
-0.022, -4.054e-9
-0.021, -3.927e-9
-0.020, -4.298e-9
-0.019, -4.380e-9
-0.018, -4.453e-9
-0.017, -4.847e-9
-0.016, -4.750e-9
-0.015, -5.113e-9
-0.014, -5.259e-9
-0.013, -5.356e-9
-0.012, -5.751e-9
-0.011, -5.717e-9
-0.010, -6.107e-9
-0.009, -6.253e-9
-0.008, -6.402e-9
-0.007, -6.827e-9
-0.006, -6.821e-9
-0.005, -7.255e-9
-0.004, -7.434e-9
-0.003, -7.616e-9
-0.002, -8.077e-9
-0.001, -8.129e-9
-0.000, -8.691e-9
0.001, -8.842e-9
0.002, -9.073e-9
0.003, -9.538e-9
0.004, -9.625e-9
0.005, -1.013e-8
0.006, -1.036e-8
0.007, -1.068e-8
0.008, -1.118e-8
0.009, -1.129e-8
0.010, -1.186e-8
0.011, -1.215e-8
0.012, -1.248e-8
0.013, -1.304e-8
0.014, -1.319e-8
0.015, -1.381e-8
0.016, -1.412e-8
0.017, -1.450e-8
0.018, -1.512e-8
0.019, -1.531e-8
0.020, -1.598e-8
0.021, -1.633e-8
0.022, -1.674e-8
0.023, -1.741e-8
0.024, -1.761e-8
0.025, -1.833e-8
0.026, -1.877e-8
0.027, -1.917e-8
0.028, -1.987e-8
0.029, -2.013e-8
0.030, -2.082e-8
0.031, -2.131e-8
0.032, -2.173e-8
0.033, -2.245e-8
0.034, -2.280e-8
0.035, -2.348e-8
0.036, -2.396e-8
0.037, -2.444e-8
0.038, -2.516e-8
0.039, -2.551e-8
0.040, -2.619e-8
0.041, -2.666e-8
0.042, -2.718e-8
0.043, -2.785e-8
0.044, -2.820e-8
0.045, -2.889e-8
0.046, -2.935e-8
0.047, -2.986e-8
0.048, -3.050e-8
0.049, -3.081e-8
0.050, -3.152e-8
0.051, -3.194e-8
0.052, -3.243e-8
0.053, -3.305e-8
0.054, -3.330e-8
0.055, -3.396e-8
0.056, -3.431e-8
0.057, -3.472e-8
0.058, -3.532e-8
0.059, -3.551e-8
0.060, -3.613e-8
0.061, -3.643e-8
0.062, -3.675e-8
0.063, -3.732e-8
0.064, -3.742e-8
0.065, -3.799e-8
0.066, -3.824e-8
0.067, -3.848e-8
0.068, -3.897e-8
0.069, -3.900e-8
0.070, -3.945e-8
0.071, -3.965e-8
0.072, -3.979e-8
0.073, -4.021e-8
0.074, -4.020e-8
0.075, -4.054e-8
0.076, -4.067e-8
0.077, -4.077e-8
0.078, -4.106e-8
0.079, -4.101e-8
0.080, -4.127e-8
0.081, -4.130e-8
0.082, -4.135e-8
0.083, -4.156e-8
0.084, -4.141e-8
0.085, -4.164e-8
0.086, -4.157e-8
0.087, -4.158e-8
0.088, -4.171e-8
0.089, -4.151e-8
0.090, -4.168e-8
0.091, -4.156e-8
0.092, -4.147e-8
0.093, -4.159e-8
0.094, -4.131e-8
0.095, -4.146e-8
0.096, -4.125e-8
0.097, -4.115e-8
0.098, -4.123e-8
0.099, -4.087e-8
0.100, -4.099e-8
0.101, -4.077e-8
0.102, -4.062e-8
0.103, -4.069e-8
0.104, -4.029e-8
0.105, -4.034e-8
0.106, -4.013e-8
0.107, -3.992e-8
0.108, -3.995e-8
0.109, -3.955e-8
0.110, -3.959e-8
0.111, -3.935e-8
0.112, -3.912e-8
0.113, -3.913e-8
0.114, -3.874e-8
0.115, -3.876e-8
0.116, -3.849e-8
0.117, -3.826e-8
0.118, -3.827e-8
0.119, -3.786e-8
0.120, -3.785e-8
0.121, -3.760e-8
0.122, -3.739e-8
0.123, -3.736e-8
0.124, -3.696e-8
0.125, -3.698e-8
0.126, -3.670e-8
0.127, -3.649e-8
0.128, -3.648e-8
0.129, -3.607e-8
0.130, -3.611e-8
0.131, -3.581e-8
0.132, -3.560e-8
0.133, -3.561e-8
0.134, -3.519e-8
0.135, -3.523e-8
0.136, -3.496e-8
0.137, -3.475e-8
0.138, -3.477e-8
0.139, -3.434e-8
0.140, -3.440e-8
0.141, -3.413e-8
0.142, -3.392e-8
0.143, -3.396e-8
0.144, -3.353e-8
0.145, -3.360e-8
0.146, -3.336e-8
0.147, -3.313e-8
0.148, -3.318e-8
0.149, -3.279e-8
0.150, -3.283e-8
0.151, -3.261e-8
0.152, -3.241e-8
0.153, -3.244e-8
0.154, -3.208e-8
0.155, -3.214e-8
0.156, -3.191e-8
0.157, -3.173e-8
0.158, -3.178e-8
0.159, -3.141e-8
0.160, -3.147e-8
0.161, -3.125e-8
0.162, -3.109e-8
0.163, -3.114e-8
0.164, -3.078e-8
0.165, -3.086e-8
0.166, -3.065e-8
0.167, -3.050e-8
0.168, -3.055e-8
0.169, -3.020e-8
0.170, -3.031e-8
0.171, -3.008e-8
0.172, -2.995e-8
0.173, -3.002e-8
0.174, -2.965e-8
0.175, -2.979e-8
0.176, -2.958e-8
0.177, -2.942e-8
0.178, -2.953e-8
0.179, -2.918e-8
0.180, -2.929e-8
0.181, -2.911e-8
0.182, -2.897e-8
0.183, -2.906e-8
0.184, -2.873e-8
0.185, -2.886e-8
0.186, -2.867e-8
0.187, -2.854e-8
0.188, -2.865e-8
0.189, -2.831e-8
0.190, -2.845e-8
0.191, -2.828e-8
0.192, -2.814e-8
0.193, -2.826e-8
0.194, -2.795e-8
0.195, -2.807e-8
0.196, -2.792e-8
0.197, -2.781e-8
0.198, -2.789e-8
0.199, -2.761e-8
0.200, -2.774e-8
0.201, -2.756e-8
0.202, -2.749e-8
0.203, -2.758e-8
0.204, -2.727e-8
0.205, -2.744e-8
0.206, -2.727e-8
0.207, -2.718e-8
0.208, -2.730e-8
0.209, -2.699e-8
0.210, -2.716e-8
0.211, -2.699e-8
0.212, -2.691e-8
0.213, -2.703e-8
0.214, -2.673e-8
0.215, -2.691e-8
0.216, -2.673e-8
0.217, -2.666e-8
0.218, -2.680e-8
0.219, -2.648e-8
0.220, -2.667e-8
0.221, -2.651e-8
0.222, -2.642e-8
0.223, -2.657e-8
0.224, -2.627e-8
0.225, -2.645e-8
0.226, -2.631e-8
0.227, -2.622e-8
0.228, -2.637e-8
0.229, -2.609e-8
0.230, -2.626e-8
0.231, -2.611e-8
0.232, -2.605e-8
0.233, -2.618e-8
0.234, -2.590e-8
0.235, -2.609e-8
0.236, -2.595e-8
0.237, -2.587e-8
0.238, -2.602e-8
0.239, -2.576e-8
0.240, -2.592e-8
0.241, -2.580e-8
0.242, -2.575e-8
0.243, -2.586e-8
0.244, -2.561e-8
0.245, -2.580e-8
0.246, -2.564e-8
0.247, -2.561e-8
0.248, -2.574e-8
0.249, -2.547e-8
0.250, -2.568e-8
0.251, -2.553e-8
0.252, -2.549e-8
0.253, -2.564e-8
0.254, -2.537e-8
0.255, -2.558e-8
0.256, -2.544e-8
0.257, -2.539e-8
0.258, -2.555e-8
0.259, -2.528e-8
0.260, -2.549e-8
0.261, -2.535e-8
0.262, -2.531e-8
0.263, -2.548e-8
0.264, -2.520e-8
0.265, -2.542e-8
0.266, -2.530e-8
0.267, -2.524e-8
0.268, -2.540e-8
0.269, -2.516e-8
0.270, -2.534e-8
0.271, -2.523e-8
0.272, -2.518e-8
0.273, -2.534e-8
0.274, -2.511e-8
0.275, -2.530e-8
0.276, -2.519e-8
0.277, -2.516e-8
0.278, -2.530e-8
0.279, -2.508e-8
0.280, -2.527e-8
0.281, -2.516e-8
0.282, -2.514e-8
0.283, -2.529e-8
0.284, -2.504e-8
0.285, -2.526e-8
0.286, -2.514e-8
0.287, -2.513e-8
0.288, -2.527e-8
0.289, -2.504e-8
0.290, -2.526e-8
0.291, -2.514e-8
0.292, -2.512e-8
0.293, -2.529e-8
0.294, -2.504e-8
0.295, -2.529e-8
0.296, -2.515e-8
0.297, -2.513e-8
0.298, -2.533e-8
0.299, -2.507e-8
0.300, -2.316e-8
0.299, -2.175e-8
0.298, -2.140e-8
0.297, -2.130e-8
0.296, -2.087e-8
0.295, -2.090e-8
0.294, -2.061e-8
0.293, -2.044e-8
0.292, -2.046e-8
0.291, -2.011e-8
0.290, -2.021e-8
0.289, -1.996e-8
0.288, -1.985e-8
0.287, -1.990e-8
0.286, -1.956e-8
0.285, -1.970e-8
0.284, -1.946e-8
0.283, -1.939e-8
0.282, -1.945e-8
0.281, -1.913e-8
0.280, -1.928e-8
0.279, -1.908e-8
0.278, -1.898e-8
0.277, -1.908e-8
0.276, -1.876e-8
0.275, -1.892e-8
0.274, -1.875e-8
0.273, -1.865e-8
0.272, -1.876e-8
0.271, -1.846e-8
0.270, -1.861e-8
0.269, -1.844e-8
0.268, -1.835e-8
0.267, -1.846e-8
0.266, -1.817e-8
0.265, -1.832e-8
0.264, -1.815e-8
0.263, -1.809e-8
0.262, -1.819e-8
0.261, -1.791e-8
0.260, -1.807e-8
0.259, -1.792e-8
0.258, -1.785e-8
0.257, -1.795e-8
0.256, -1.767e-8
0.255, -1.785e-8
0.254, -1.767e-8
0.253, -1.762e-8
0.252, -1.772e-8
0.251, -1.746e-8
0.250, -1.763e-8
0.249, -1.746e-8
0.248, -1.741e-8
0.247, -1.753e-8
0.246, -1.724e-8
0.245, -1.743e-8
0.244, -1.726e-8
0.243, -1.721e-8
0.242, -1.733e-8
0.241, -1.705e-8
0.240, -1.723e-8
0.239, -1.707e-8
0.238, -1.701e-8
0.237, -1.715e-8
0.236, -1.685e-8
0.235, -1.706e-8
0.234, -1.689e-8
0.233, -1.683e-8
0.232, -1.696e-8
0.231, -1.667e-8
0.230, -1.688e-8
0.229, -1.670e-8
0.228, -1.665e-8
0.227, -1.679e-8
0.226, -1.651e-8
0.225, -1.668e-8
0.224, -1.654e-8
0.223, -1.648e-8
0.222, -1.659e-8
0.221, -1.633e-8
0.220, -1.651e-8
0.219, -1.635e-8
0.218, -1.631e-8
0.217, -1.642e-8
0.216, -1.615e-8
0.215, -1.635e-8
0.214, -1.617e-8
0.213, -1.613e-8
0.212, -1.624e-8
0.211, -1.598e-8
0.210, -1.616e-8
0.209, -1.599e-8
0.208, -1.595e-8
0.207, -1.606e-8
0.206, -1.579e-8
0.205, -1.597e-8
0.204, -1.580e-8
0.203, -1.577e-8
0.202, -1.588e-8
0.201, -1.560e-8
0.200, -1.581e-8
0.199, -1.561e-8
0.198, -1.557e-8
0.197, -1.570e-8
0.196, -1.539e-8
0.195, -1.561e-8
0.194, -1.543e-8
0.193, -1.537e-8
0.192, -1.549e-8
0.191, -1.521e-8
0.190, -1.538e-8
0.189, -1.522e-8
0.188, -1.516e-8
0.187, -1.527e-8
0.186, -1.498e-8
0.185, -1.517e-8
0.184, -1.498e-8
0.183, -1.493e-8
0.182, -1.504e-8
0.181, -1.475e-8
0.180, -1.491e-8
0.179, -1.474e-8
0.178, -1.468e-8
0.177, -1.476e-8
0.176, -1.449e-8
0.175, -1.465e-8
0.174, -1.445e-8
0.173, -1.442e-8
0.172, -1.448e-8
0.171, -1.420e-8
0.170, -1.437e-8
0.169, -1.414e-8
0.168, -1.409e-8
0.167, -1.418e-8
0.166, -1.386e-8
0.165, -1.403e-8
0.164, -1.381e-8
0.163, -1.375e-8
0.162, -1.382e-8
0.161, -1.350e-8
0.160, -1.365e-8
0.159, -1.343e-8
0.158, -1.336e-8
0.157, -1.341e-8
0.156, -1.308e-8
0.155, -1.323e-8
0.154, -1.298e-8
0.153, -1.289e-8
0.152, -1.295e-8
0.151, -1.260e-8
0.150, -1.273e-8
0.149, -1.249e-8
0.148, -1.235e-8
0.147, -1.241e-8
0.146, -1.206e-8
0.145, -1.214e-8
0.144, -1.190e-8
0.143, -1.178e-8
0.142, -1.177e-8
0.141, -1.140e-8
0.140, -1.149e-8
0.139, -1.121e-8
0.138, -1.107e-8
0.137, -1.104e-8
0.136, -1.066e-8
0.135, -1.073e-8
0.134, -1.042e-8
0.133, -1.025e-8
0.132, -1.019e-8
0.131, -9.814e-9
0.130, -9.826e-9
0.129, -9.485e-9
0.128, -9.308e-9
0.127, -9.221e-9
0.126, -8.794e-9
0.125, -8.810e-9
0.124, -8.406e-9
0.123, -8.212e-9
0.122, -8.115e-9
0.121, -7.617e-9
0.120, -7.609e-9
0.119, -7.201e-9
0.118, -6.934e-9
0.117, -6.795e-9
0.116, -6.272e-9
0.115, -6.219e-9
0.114, -5.778e-9
0.113, -5.472e-9
0.112, -5.302e-9
0.111, -4.757e-9
0.110, -4.653e-9
0.109, -4.170e-9
0.108, -3.818e-9
0.107, -3.627e-9
0.106, -3.034e-9
0.105, -2.868e-9
0.104, -2.361e-9
0.103, -1.954e-9
0.102, -1.697e-9
0.101, -1.090e-9
0.100, -8.501e-10
0.099, -3.406e-10
0.098, 9.151e-11
0.097, 4.358e-10
0.096, 1.078e-9
0.095, 1.330e-9
0.094, 1.933e-9
0.093, 2.366e-9
0.092, 2.748e-9
0.091, 3.429e-9
0.090, 3.715e-9
0.089, 4.373e-9
0.088, 4.843e-9
0.087, 5.227e-9
0.086, 5.947e-9
0.085, 6.258e-9
0.084, 6.956e-9
0.083, 7.418e-9
0.082, 7.846e-9
0.081, 8.618e-9
0.080, 8.923e-9
0.079, 9.643e-9
0.078, 1.015e-8
0.077, 1.057e-8
0.076, 1.137e-8
0.075, 1.166e-8
0.074, 1.235e-8
0.073, 1.288e-8
0.072, 1.330e-8
0.071, 1.405e-8
0.070, 1.438e-8
0.069, 1.503e-8
0.068, 1.557e-8
0.067, 1.595e-8
0.066, 1.667e-8
0.065, 1.700e-8
0.064, 1.764e-8
0.063, 1.812e-8
0.062, 1.846e-8
0.061, 1.915e-8
0.060, 1.943e-8
0.059, 1.999e-8
0.058, 2.043e-8
0.057, 2.075e-8
0.056, 2.136e-8
0.055, 2.161e-8
0.054, 2.210e-8
0.053, 2.245e-8
0.052, 2.277e-8
0.051, 2.328e-8
0.050, 2.342e-8
0.049, 2.391e-8
0.048, 2.415e-8
0.047, 2.437e-8
0.046, 2.486e-8
0.045, 2.490e-8
0.044, 2.532e-8
0.043, 2.551e-8
0.042, 2.562e-8
0.041, 2.604e-8
0.040, 2.600e-8
0.039, 2.635e-8
0.038, 2.646e-8
0.037, 2.650e-8
0.036, 2.686e-8
0.035, 2.672e-8
0.034, 2.699e-8
0.033, 2.706e-8
0.032, 2.699e-8
0.031, 2.729e-8
0.030, 2.710e-8
0.029, 2.727e-8
0.028, 2.732e-8
0.027, 2.717e-8
0.026, 2.740e-8
0.025, 2.720e-8
0.024, 2.728e-8
0.023, 2.724e-8
0.022, 2.708e-8
0.021, 2.723e-8
0.020, 2.698e-8
0.019, 2.704e-8
0.018, 2.692e-8
0.017, 2.674e-8
0.016, 2.685e-8
0.015, 2.653e-8
0.014, 2.658e-8
0.013, 2.644e-8
0.012, 2.622e-8
0.011, 2.628e-8
0.010, 2.595e-8
0.009, 2.596e-8
0.008, 2.579e-8
0.007, 2.556e-8
0.006, 2.559e-8
0.005, 2.522e-8
0.004, 2.527e-8
0.003, 2.504e-8
0.002, 2.478e-8
0.001, 2.486e-8
0.000, 2.456e-8
-0.001, 2.448e-8
-0.002, 2.428e-8
-0.003, 2.397e-8
-0.004, 2.403e-8
-0.005, 2.363e-8
-0.006, 2.361e-8
-0.007, 2.342e-8
-0.008, 2.313e-8
-0.009, 2.318e-8
-0.010, 2.277e-8
-0.011, 2.278e-8
-0.012, 2.258e-8
-0.013, 2.228e-8
-0.014, 2.234e-8
-0.015, 2.195e-8
-0.016, 2.192e-8
-0.017, 2.175e-8
-0.018, 2.145e-8
-0.019, 2.151e-8
-0.020, 2.113e-8
-0.021, 2.110e-8
-0.022, 2.093e-8
-0.023, 2.066e-8
-0.024, 2.071e-8
-0.025, 2.034e-8
-0.026, 2.035e-8
-0.027, 2.014e-8
-0.028, 1.990e-8
-0.029, 1.996e-8
-0.030, 1.957e-8
-0.031, 1.961e-8
-0.032, 1.943e-8
-0.033, 1.916e-8
-0.034, 1.925e-8
-0.035, 1.887e-8
-0.036, 1.891e-8
-0.037, 1.872e-8
-0.038, 1.849e-8
-0.039, 1.858e-8
-0.040, 1.820e-8
-0.041, 1.826e-8
-0.042, 1.809e-8
-0.043, 1.785e-8
-0.044, 1.797e-8
-0.045, 1.758e-8
-0.046, 1.764e-8
-0.047, 1.750e-8
-0.048, 1.726e-8
-0.049, 1.737e-8
-0.050, 1.702e-8
-0.051, 1.708e-8
-0.052, 1.695e-8
-0.053, 1.671e-8
-0.054, 1.683e-8
-0.055, 1.650e-8
-0.056, 1.656e-8
-0.057, 1.642e-8
-0.058, 1.621e-8
-0.059, 1.633e-8
-0.060, 1.600e-8
-0.061, 1.606e-8
-0.062, 1.594e-8
-0.063, 1.575e-8
-0.064, 1.587e-8
-0.065, 1.555e-8
-0.066, 1.563e-8
-0.067, 1.550e-8
-0.068, 1.532e-8
-0.069, 1.545e-8
-0.070, 1.512e-8
-0.071, 1.524e-8
-0.072, 1.510e-8
-0.073, 1.492e-8
-0.074, 1.506e-8
-0.075, 1.475e-8
-0.076, 1.486e-8
-0.077, 1.474e-8
-0.078, 1.456e-8
-0.079, 1.472e-8
-0.080, 1.441e-8
-0.081, 1.452e-8
-0.082, 1.441e-8
-0.083, 1.423e-8
-0.084, 1.440e-8
-0.085, 1.408e-8
-0.086, 1.420e-8
-0.087, 1.411e-8
-0.088, 1.392e-8
-0.089, 1.409e-8
-0.090, 1.379e-8
-0.091, 1.391e-8
-0.092, 1.383e-8
-0.093, 1.365e-8
-0.094, 1.381e-8
-0.095, 1.354e-8
-0.096, 1.365e-8
-0.097, 1.356e-8
-0.098, 1.341e-8
-0.099, 1.357e-8
-0.100, 1.330e-8
-0.101, 1.341e-8
-0.102, 1.333e-8
-0.103, 1.319e-8
-0.104, 1.335e-8
-0.105, 1.307e-8
-0.106, 1.320e-8
-0.107, 1.312e-8
-0.108, 1.298e-8
-0.109, 1.314e-8
-0.110, 1.287e-8
-0.111, 1.302e-8
-0.112, 1.292e-8
-0.113, 1.279e-8
-0.114, 1.297e-8
-0.115, 1.268e-8
-0.116, 1.285e-8
-0.117, 1.275e-8
-0.118, 1.261e-8
-0.119, 1.281e-8
-0.120, 1.252e-8
-0.121, 1.267e-8
-0.122, 1.261e-8
-0.123, 1.246e-8
-0.124, 1.266e-8
-0.125, 1.238e-8
-0.126, 1.253e-8
-0.127, 1.247e-8
-0.128, 1.234e-8
-0.129, 1.252e-8
-0.130, 1.227e-8
-0.131, 1.242e-8
-0.132, 1.235e-8
-0.133, 1.222e-8
-0.134, 1.241e-8
-0.135, 1.217e-8
-0.136, 1.231e-8
-0.137, 1.225e-8
-0.138, 1.212e-8
-0.139, 1.232e-8
-0.140, 1.208e-8
-0.141, 1.222e-8
-0.142, 1.215e-8
-0.143, 1.206e-8
-0.144, 1.223e-8
-0.145, 1.199e-8
-0.146, 1.216e-8
-0.147, 1.208e-8
-0.148, 1.198e-8
-0.149, 1.217e-8
-0.150, 1.192e-8
-0.151, 1.210e-8
-0.152, 1.203e-8
-0.153, 1.192e-8
-0.154, 1.213e-8
-0.155, 1.187e-8
-0.156, 1.205e-8
-0.157, 1.199e-8
-0.158, 1.189e-8
-0.159, 1.209e-8
-0.160, 1.184e-8
-0.161, 1.203e-8
-0.162, 1.195e-8
-0.163, 1.186e-8
-0.164, 1.208e-8
-0.165, 1.182e-8
-0.166, 1.201e-8
-0.167, 1.196e-8
-0.168, 1.184e-8
-0.169, 1.206e-8
-0.170, 1.182e-8
-0.171, 1.199e-8
-0.172, 1.196e-8
-0.173, 1.185e-8
-0.174, 1.205e-8
-0.175, 1.183e-8
-0.176, 1.201e-8
-0.177, 1.195e-8
-0.178, 1.187e-8
-0.179, 1.209e-8
-0.180, 1.185e-8
-0.181, 1.204e-8
-0.182, 1.199e-8
-0.183, 1.190e-8
-0.184, 1.212e-8
-0.185, 1.189e-8
-0.186, 1.208e-8
-0.187, 1.203e-8
-0.188, 1.196e-8
-0.189, 1.215e-8
-0.190, 1.194e-8
-0.191, 1.215e-8
-0.192, 1.208e-8
-0.193, 1.203e-8
-0.194, 1.223e-8
-0.195, 1.200e-8
-0.196, 1.222e-8
-0.197, 1.216e-8
-0.198, 1.208e-8
-0.199, 1.233e-8
