Mar. 16, 2023   09:18:40
Cyclic Voltammetry
File: c:/users/oliverrz/desktop/electrolab/data/2023_03_16\fcmeoh_macros_500_um\electrode1_cv_250mvs_500_um.bin
Data Source:  Experiment
Instrument Model:  CHI760E
Header: CV
Note: 

Init E (V) = -0.2
High E (V) = 0.3
Low E (V) = -0.2
Final E (V) = -0.2
Init P/N = P
Scan Rate (V/s) = 0.25
Segment = 3
Sample Interval (V) = 0.001
Quiet Time (sec) = 2
Sensitivity (A/V) = 1e-7

Results:

Channel 1:
Segment 1:
Ep = 0.090V
ip = -4.968e-8A
Ah = -1.185e-8C

Segment 2:
Ep = 0.033V
ip = 4.634e-8A
Ah = 1.103e-8C

Segment 3:

Potential/V, Current/A

-0.200, 3.053e-9
-0.199, 1.883e-9
-0.198, 1.576e-9
-0.197, 1.391e-9
-0.196, 1.453e-9
-0.195, 1.545e-9
-0.194, 1.391e-9
-0.193, 1.145e-9
-0.192, 1.237e-9
-0.191, 1.360e-9
-0.190, 1.237e-9
-0.189, 1.053e-9
-0.188, 1.053e-9
-0.187, 1.237e-9
-0.186, 1.145e-9
-0.185, 8.990e-10
-0.184, 9.298e-10
-0.183, 1.084e-9
-0.182, 1.053e-9
-0.181, 8.375e-10
-0.180, 7.452e-10
-0.179, 9.605e-10
-0.178, 9.605e-10
-0.177, 7.452e-10
-0.176, 7.144e-10
-0.175, 8.067e-10
-0.174, 8.990e-10
-0.173, 7.452e-10
-0.172, 5.606e-10
-0.171, 7.144e-10
-0.170, 8.067e-10
-0.169, 6.529e-10
-0.168, 4.991e-10
-0.167, 5.606e-10
-0.166, 7.144e-10
-0.165, 6.221e-10
-0.164, 4.068e-10
-0.163, 4.375e-10
-0.162, 6.529e-10
-0.161, 5.606e-10
-0.160, 3.452e-10
-0.159, 3.452e-10
-0.158, 5.298e-10
-0.157, 5.298e-10
-0.156, 2.837e-10
-0.155, 2.529e-10
-0.154, 4.375e-10
-0.153, 4.375e-10
-0.152, 2.837e-10
-0.151, 1.606e-10
-0.150, 3.145e-10
-0.149, 4.068e-10
-0.148, 1.914e-10
-0.147, 9.911e-11
-0.146, 2.222e-10
-0.145, 3.145e-10
-0.144, 2.222e-10
-0.143, 6.813e-12
-0.142, 1.299e-10
-0.141, 2.837e-10
-0.140, 1.299e-10
-0.139, -2.395e-11
-0.138, 3.758e-11
-0.137, 2.222e-10
-0.136, 1.299e-10
-0.135, -8.548e-11
-0.134, -5.472e-11
-0.133, 1.299e-10
-0.132, 6.834e-11
-0.131, -8.548e-11
-0.130, -1.470e-10
-0.129, 3.758e-11
-0.128, 3.758e-11
-0.127, -1.470e-10
-0.126, -2.393e-10
-0.125, -5.472e-11
-0.124, 6.813e-12
-0.123, -1.470e-10
-0.122, -2.701e-10
-0.121, -1.470e-10
-0.120, -5.472e-11
-0.119, -1.778e-10
-0.118, -3.624e-10
-0.117, -2.393e-10
-0.116, -1.162e-10
-0.115, -2.393e-10
-0.114, -3.931e-10
-0.113, -3.624e-10
-0.112, -1.470e-10
-0.111, -2.393e-10
-0.110, -4.854e-10
-0.109, -4.239e-10
-0.108, -2.393e-10
-0.107, -2.701e-10
-0.106, -4.854e-10
-0.105, -5.470e-10
-0.104, -3.008e-10
-0.103, -3.316e-10
-0.102, -5.162e-10
-0.101, -6.085e-10
-0.100, -4.547e-10
-0.099, -3.624e-10
-0.098, -5.470e-10
-0.097, -7.008e-10
-0.096, -5.162e-10
-0.095, -4.547e-10
-0.094, -5.777e-10
-0.093, -7.623e-10
-0.092, -6.700e-10
-0.091, -4.854e-10
-0.090, -6.393e-10
-0.089, -8.238e-10
-0.088, -7.623e-10
-0.087, -6.085e-10
-0.086, -6.700e-10
-0.085, -9.161e-10
-0.084, -8.854e-10
-0.083, -7.008e-10
-0.082, -7.315e-10
-0.081, -9.777e-10
-0.080, -1.008e-9
-0.079, -8.238e-10
-0.078, -8.238e-10
-0.077, -1.039e-9
-0.076, -1.131e-9
-0.075, -9.469e-10
-0.074, -9.161e-10
-0.073, -1.101e-9
-0.072, -1.224e-9
-0.071, -1.131e-9
-0.070, -1.039e-9
-0.069, -1.162e-9
-0.068, -1.408e-9
-0.067, -1.285e-9
-0.066, -1.162e-9
-0.065, -1.316e-9
-0.064, -1.501e-9
-0.063, -1.470e-9
-0.062, -1.347e-9
-0.061, -1.408e-9
-0.060, -1.655e-9
-0.059, -1.655e-9
-0.058, -1.501e-9
-0.057, -1.593e-9
-0.056, -1.778e-9
-0.055, -1.901e-9
-0.054, -1.716e-9
-0.053, -1.747e-9
-0.052, -2.024e-9
-0.051, -2.116e-9
-0.050, -1.993e-9
-0.049, -1.962e-9
-0.048, -2.178e-9
-0.047, -2.393e-9
-0.046, -2.270e-9
-0.045, -2.208e-9
-0.044, -2.424e-9
-0.043, -2.639e-9
-0.042, -2.608e-9
-0.041, -2.547e-9
-0.040, -2.701e-9
-0.039, -2.977e-9
-0.038, -2.977e-9
-0.037, -2.885e-9
-0.036, -3.070e-9
-0.035, -3.316e-9
-0.034, -3.377e-9
-0.033, -3.285e-9
-0.032, -3.408e-9
-0.031, -3.716e-9
-0.030, -3.839e-9
-0.029, -3.747e-9
-0.028, -3.870e-9
-0.027, -4.177e-9
-0.026, -4.393e-9
-0.025, -4.331e-9
-0.024, -4.362e-9
-0.023, -4.700e-9
-0.022, -4.977e-9
-0.021, -4.946e-9
-0.020, -5.008e-9
-0.019, -5.285e-9
-0.018, -5.592e-9
-0.017, -5.715e-9
-0.016, -5.685e-9
-0.015, -5.992e-9
-0.014, -6.362e-9
-0.013, -6.485e-9
-0.012, -6.515e-9
-0.011, -6.792e-9
-0.010, -7.192e-9
-0.009, -7.408e-9
-0.008, -7.408e-9
-0.007, -7.746e-9
-0.006, -8.177e-9
-0.005, -8.423e-9
-0.004, -8.546e-9
-0.003, -8.761e-9
-0.002, -9.284e-9
-0.001, -9.623e-9
-0.000, -9.900e-9
0.001, -1.005e-8
0.002, -1.051e-8
0.003, -1.091e-8
0.004, -1.116e-8
0.005, -1.138e-8
0.006, -1.187e-8
0.007, -1.239e-8
0.008, -1.267e-8
0.009, -1.291e-8
0.010, -1.344e-8
0.011, -1.396e-8
0.012, -1.436e-8
0.013, -1.461e-8
0.014, -1.513e-8
0.015, -1.581e-8
0.016, -1.621e-8
0.017, -1.651e-8
0.018, -1.707e-8
0.019, -1.768e-8
0.020, -1.827e-8
0.021, -1.854e-8
0.022, -1.910e-8
0.023, -1.984e-8
0.024, -2.042e-8
0.025, -2.088e-8
0.026, -2.137e-8
0.027, -2.205e-8
0.028, -2.285e-8
0.029, -2.322e-8
0.030, -2.381e-8
0.031, -2.457e-8
0.032, -2.525e-8
0.033, -2.587e-8
0.034, -2.633e-8
0.035, -2.710e-8
0.036, -2.793e-8
0.037, -2.845e-8
0.038, -2.900e-8
0.039, -2.977e-8
0.040, -3.060e-8
0.041, -3.128e-8
0.042, -3.171e-8
0.043, -3.248e-8
0.044, -3.334e-8
0.045, -3.396e-8
0.046, -3.451e-8
0.047, -3.522e-8
0.048, -3.599e-8
0.049, -3.676e-8
0.050, -3.725e-8
0.051, -3.787e-8
0.052, -3.873e-8
0.053, -3.943e-8
0.054, -3.993e-8
0.055, -4.051e-8
0.056, -4.122e-8
0.057, -4.196e-8
0.058, -4.248e-8
0.059, -4.288e-8
0.060, -4.362e-8
0.061, -4.429e-8
0.062, -4.476e-8
0.063, -4.519e-8
0.064, -4.574e-8
0.065, -4.645e-8
0.066, -4.691e-8
0.067, -4.713e-8
0.068, -4.771e-8
0.069, -4.820e-8
0.070, -4.866e-8
0.071, -4.888e-8
0.072, -4.922e-8
0.073, -4.980e-8
0.074, -5.011e-8
0.075, -5.029e-8
0.076, -5.060e-8
0.077, -5.094e-8
0.078, -5.137e-8
0.079, -5.143e-8
0.080, -5.149e-8
0.081, -5.189e-8
0.082, -5.214e-8
0.083, -5.220e-8
0.084, -5.226e-8
0.085, -5.242e-8
0.086, -5.269e-8
0.087, -5.272e-8
0.088, -5.257e-8
0.089, -5.276e-8
0.090, -5.291e-8
0.091, -5.288e-8
0.092, -5.272e-8
0.093, -5.276e-8
0.094, -5.285e-8
0.095, -5.288e-8
0.096, -5.254e-8
0.097, -5.257e-8
0.098, -5.260e-8
0.099, -5.254e-8
0.100, -5.229e-8
0.101, -5.208e-8
0.102, -5.214e-8
0.103, -5.214e-8
0.104, -5.174e-8
0.105, -5.156e-8
0.106, -5.152e-8
0.107, -5.143e-8
0.108, -5.122e-8
0.109, -5.079e-8
0.110, -5.079e-8
0.111, -5.072e-8
0.112, -5.039e-8
0.113, -5.008e-8
0.114, -4.989e-8
0.115, -4.986e-8
0.116, -4.962e-8
0.117, -4.916e-8
0.118, -4.903e-8
0.119, -4.894e-8
0.120, -4.869e-8
0.121, -4.829e-8
0.122, -4.802e-8
0.123, -4.799e-8
0.124, -4.780e-8
0.125, -4.734e-8
0.126, -4.706e-8
0.127, -4.700e-8
0.128, -4.688e-8
0.129, -4.645e-8
0.130, -4.611e-8
0.131, -4.599e-8
0.132, -4.589e-8
0.133, -4.553e-8
0.134, -4.509e-8
0.135, -4.506e-8
0.136, -4.494e-8
0.137, -4.463e-8
0.138, -4.423e-8
0.139, -4.405e-8
0.140, -4.405e-8
0.141, -4.374e-8
0.142, -4.331e-8
0.143, -4.319e-8
0.144, -4.306e-8
0.145, -4.291e-8
0.146, -4.248e-8
0.147, -4.223e-8
0.148, -4.226e-8
0.149, -4.205e-8
0.150, -4.168e-8
0.151, -4.143e-8
0.152, -4.134e-8
0.153, -4.131e-8
0.154, -4.091e-8
0.155, -4.063e-8
0.156, -4.057e-8
0.157, -4.051e-8
0.158, -4.020e-8
0.159, -3.990e-8
0.160, -3.980e-8
0.161, -3.980e-8
0.162, -3.953e-8
0.163, -3.919e-8
0.164, -3.910e-8
0.165, -3.910e-8
0.166, -3.888e-8
0.167, -3.854e-8
0.168, -3.842e-8
0.169, -3.842e-8
0.170, -3.830e-8
0.171, -3.793e-8
0.172, -3.777e-8
0.173, -3.780e-8
0.174, -3.768e-8
0.175, -3.737e-8
0.176, -3.716e-8
0.177, -3.722e-8
0.178, -3.719e-8
0.179, -3.682e-8
0.180, -3.667e-8
0.181, -3.663e-8
0.182, -3.663e-8
0.183, -3.642e-8
0.184, -3.608e-8
0.185, -3.611e-8
0.186, -3.614e-8
0.187, -3.593e-8
0.188, -3.568e-8
0.189, -3.559e-8
0.190, -3.568e-8
0.191, -3.553e-8
0.192, -3.519e-8
0.193, -3.519e-8
0.194, -3.522e-8
0.195, -3.513e-8
0.196, -3.485e-8
0.197, -3.473e-8
0.198, -3.482e-8
0.199, -3.476e-8
0.200, -3.445e-8
0.201, -3.433e-8
0.202, -3.442e-8
0.203, -3.442e-8
0.204, -3.414e-8
0.205, -3.396e-8
0.206, -3.402e-8
0.207, -3.408e-8
0.208, -3.387e-8
0.209, -3.362e-8
0.210, -3.368e-8
0.211, -3.374e-8
0.212, -3.359e-8
0.213, -3.334e-8
0.214, -3.331e-8
0.215, -3.347e-8
0.216, -3.331e-8
0.217, -3.307e-8
0.218, -3.307e-8
0.219, -3.313e-8
0.220, -3.310e-8
0.221, -3.279e-8
0.222, -3.273e-8
0.223, -3.288e-8
0.224, -3.282e-8
0.225, -3.260e-8
0.226, -3.248e-8
0.227, -3.257e-8
0.228, -3.267e-8
0.229, -3.236e-8
0.230, -3.227e-8
0.231, -3.236e-8
0.232, -3.239e-8
0.233, -3.224e-8
0.234, -3.202e-8
0.235, -3.211e-8
0.236, -3.224e-8
0.237, -3.205e-8
0.238, -3.187e-8
0.239, -3.190e-8
0.240, -3.202e-8
0.241, -3.193e-8
0.242, -3.168e-8
0.243, -3.168e-8
0.244, -3.184e-8
0.245, -3.177e-8
0.246, -3.153e-8
0.247, -3.153e-8
0.248, -3.165e-8
0.249, -3.165e-8
0.250, -3.144e-8
0.251, -3.134e-8
0.252, -3.150e-8
0.253, -3.153e-8
0.254, -3.131e-8
0.255, -3.122e-8
0.256, -3.128e-8
0.257, -3.144e-8
0.258, -3.128e-8
0.259, -3.104e-8
0.260, -3.122e-8
0.261, -3.128e-8
0.262, -3.116e-8
0.263, -3.100e-8
0.264, -3.100e-8
0.265, -3.122e-8
0.266, -3.113e-8
0.267, -3.085e-8
0.268, -3.097e-8
0.269, -3.107e-8
0.270, -3.107e-8
0.271, -3.085e-8
0.272, -3.079e-8
0.273, -3.100e-8
0.274, -3.100e-8
0.275, -3.076e-8
0.276, -3.076e-8
0.277, -3.088e-8
0.278, -3.097e-8
0.279, -3.076e-8
0.280, -3.067e-8
0.281, -3.079e-8
0.282, -3.094e-8
0.283, -3.076e-8
0.284, -3.060e-8
0.285, -3.073e-8
0.286, -3.085e-8
0.287, -3.079e-8
0.288, -3.057e-8
0.289, -3.067e-8
0.290, -3.088e-8
0.291, -3.076e-8
0.292, -3.057e-8
0.293, -3.067e-8
0.294, -3.082e-8
0.295, -3.082e-8
0.296, -3.057e-8
0.297, -3.064e-8
0.298, -3.079e-8
0.299, -3.079e-8
0.300, -2.808e-8
0.299, -2.476e-8
0.298, -2.433e-8
0.297, -2.399e-8
0.296, -2.347e-8
0.295, -2.310e-8
0.294, -2.301e-8
0.293, -2.291e-8
0.292, -2.254e-8
0.291, -2.224e-8
0.290, -2.217e-8
0.289, -2.214e-8
0.288, -2.190e-8
0.287, -2.156e-8
0.286, -2.153e-8
0.285, -2.159e-8
0.284, -2.137e-8
0.283, -2.107e-8
0.282, -2.101e-8
0.281, -2.107e-8
0.280, -2.097e-8
0.279, -2.064e-8
0.278, -2.058e-8
0.277, -2.067e-8
0.276, -2.058e-8
0.275, -2.033e-8
0.274, -2.018e-8
0.273, -2.024e-8
0.272, -2.030e-8
0.271, -1.996e-8
0.270, -1.984e-8
0.269, -1.990e-8
0.268, -1.993e-8
0.267, -1.974e-8
0.266, -1.950e-8
0.265, -1.959e-8
0.264, -1.968e-8
0.263, -1.947e-8
0.262, -1.928e-8
0.261, -1.928e-8
0.260, -1.941e-8
0.259, -1.928e-8
0.258, -1.901e-8
0.257, -1.904e-8
0.256, -1.913e-8
0.255, -1.907e-8
0.254, -1.882e-8
0.253, -1.876e-8
0.252, -1.888e-8
0.251, -1.888e-8
0.250, -1.861e-8
0.249, -1.851e-8
0.248, -1.867e-8
0.247, -1.867e-8
0.246, -1.842e-8
0.245, -1.833e-8
0.244, -1.839e-8
0.243, -1.848e-8
0.242, -1.827e-8
0.241, -1.808e-8
0.240, -1.821e-8
0.239, -1.827e-8
0.238, -1.811e-8
0.237, -1.793e-8
0.236, -1.796e-8
0.235, -1.811e-8
0.234, -1.796e-8
0.233, -1.771e-8
0.232, -1.778e-8
0.231, -1.787e-8
0.230, -1.784e-8
0.229, -1.756e-8
0.228, -1.753e-8
0.227, -1.771e-8
0.226, -1.765e-8
0.225, -1.741e-8
0.224, -1.738e-8
0.223, -1.747e-8
0.222, -1.753e-8
0.221, -1.725e-8
0.220, -1.716e-8
0.219, -1.728e-8
0.218, -1.734e-8
0.217, -1.716e-8
0.216, -1.698e-8
0.215, -1.707e-8
0.214, -1.716e-8
0.213, -1.701e-8
0.212, -1.682e-8
0.211, -1.688e-8
0.210, -1.698e-8
0.209, -1.685e-8
0.208, -1.667e-8
0.207, -1.664e-8
0.206, -1.679e-8
0.205, -1.670e-8
0.204, -1.645e-8
0.203, -1.645e-8
0.202, -1.658e-8
0.201, -1.654e-8
0.200, -1.630e-8
0.199, -1.621e-8
0.198, -1.636e-8
0.197, -1.639e-8
0.196, -1.611e-8
0.195, -1.602e-8
0.194, -1.611e-8
0.193, -1.618e-8
0.192, -1.599e-8
0.191, -1.574e-8
0.190, -1.587e-8
0.189, -1.596e-8
0.188, -1.578e-8
0.187, -1.559e-8
0.186, -1.559e-8
0.185, -1.571e-8
0.184, -1.559e-8
0.183, -1.531e-8
0.182, -1.534e-8
0.181, -1.544e-8
0.180, -1.534e-8
0.179, -1.507e-8
0.178, -1.501e-8
0.177, -1.516e-8
0.176, -1.510e-8
0.175, -1.479e-8
0.174, -1.473e-8
0.173, -1.482e-8
0.172, -1.482e-8
0.171, -1.455e-8
0.170, -1.436e-8
0.169, -1.445e-8
0.168, -1.448e-8
0.167, -1.421e-8
0.166, -1.399e-8
0.165, -1.405e-8
0.164, -1.408e-8
0.163, -1.390e-8
0.162, -1.362e-8
0.161, -1.359e-8
0.160, -1.368e-8
0.159, -1.347e-8
0.158, -1.319e-8
0.157, -1.316e-8
0.156, -1.316e-8
0.155, -1.304e-8
0.154, -1.267e-8
0.153, -1.258e-8
0.152, -1.267e-8
0.151, -1.248e-8
0.150, -1.218e-8
0.149, -1.199e-8
0.148, -1.199e-8
0.147, -1.193e-8
0.146, -1.153e-8
0.145, -1.131e-8
0.144, -1.131e-8
0.143, -1.122e-8
0.142, -1.091e-8
0.141, -1.058e-8
0.140, -1.048e-8
0.139, -1.045e-8
0.138, -1.011e-8
0.137, -9.746e-9
0.136, -9.623e-9
0.135, -9.530e-9
0.134, -9.253e-9
0.133, -8.823e-9
0.132, -8.607e-9
0.131, -8.577e-9
0.130, -8.238e-9
0.129, -7.746e-9
0.128, -7.500e-9
0.127, -7.408e-9
0.126, -7.100e-9
0.125, -6.608e-9
0.124, -6.239e-9
0.123, -6.115e-9
0.122, -5.808e-9
0.121, -5.285e-9
0.120, -4.885e-9
0.119, -4.639e-9
0.118, -4.393e-9
0.117, -3.870e-9
0.116, -3.316e-9
0.115, -3.100e-9
0.114, -2.762e-9
0.113, -2.208e-9
0.112, -1.655e-9
0.111, -1.285e-9
0.110, -1.039e-9
0.109, -4.547e-10
0.108, 2.222e-10
0.107, 5.913e-10
0.106, 9.913e-10
0.105, 1.514e-9
0.104, 2.253e-9
0.103, 2.745e-9
0.102, 3.145e-9
0.101, 3.668e-9
0.100, 4.468e-9
0.099, 4.960e-9
0.098, 5.452e-9
0.097, 5.944e-9
0.096, 6.775e-9
0.095, 7.452e-9
0.094, 7.883e-9
0.093, 8.436e-9
0.092, 9.236e-9
0.091, 9.975e-9
0.090, 1.053e-8
0.089, 1.105e-8
0.088, 1.182e-8
0.087, 1.265e-8
0.086, 1.317e-8
0.085, 1.376e-8
0.084, 1.450e-8
0.083, 1.533e-8
0.082, 1.597e-8
0.081, 1.650e-8
0.080, 1.724e-8
0.079, 1.813e-8
0.078, 1.874e-8
0.077, 1.927e-8
0.076, 2.000e-8
0.075, 2.080e-8
0.074, 2.151e-8
0.073, 2.203e-8
0.072, 2.262e-8
0.071, 2.351e-8
0.070, 2.416e-8
0.069, 2.465e-8
0.068, 2.523e-8
0.067, 2.594e-8
0.066, 2.668e-8
0.065, 2.717e-8
0.064, 2.760e-8
0.063, 2.831e-8
0.062, 2.899e-8
0.061, 2.942e-8
0.060, 2.982e-8
0.059, 3.037e-8
0.058, 3.108e-8
0.057, 3.145e-8
0.056, 3.173e-8
0.055, 3.228e-8
0.054, 3.283e-8
0.053, 3.320e-8
0.052, 3.348e-8
0.051, 3.379e-8
0.050, 3.437e-8
0.049, 3.465e-8
0.048, 3.480e-8
0.047, 3.508e-8
0.046, 3.551e-8
0.045, 3.576e-8
0.044, 3.588e-8
0.043, 3.591e-8
0.042, 3.634e-8
0.041, 3.659e-8
0.040, 3.659e-8
0.039, 3.662e-8
0.038, 3.683e-8
0.037, 3.708e-8
0.036, 3.708e-8
0.035, 3.689e-8
0.034, 3.708e-8
0.033, 3.726e-8
0.032, 3.717e-8
0.031, 3.705e-8
0.030, 3.702e-8
0.029, 3.720e-8
0.028, 3.714e-8
0.027, 3.686e-8
0.026, 3.686e-8
0.025, 3.696e-8
0.024, 3.677e-8
0.023, 3.659e-8
0.022, 3.637e-8
0.021, 3.646e-8
0.020, 3.637e-8
0.019, 3.600e-8
0.018, 3.582e-8
0.017, 3.579e-8
0.016, 3.573e-8
0.015, 3.545e-8
0.014, 3.508e-8
0.013, 3.508e-8
0.012, 3.499e-8
0.011, 3.465e-8
0.010, 3.437e-8
0.009, 3.419e-8
0.008, 3.419e-8
0.007, 3.388e-8
0.006, 3.345e-8
0.005, 3.329e-8
0.004, 3.329e-8
0.003, 3.299e-8
0.002, 3.259e-8
0.001, 3.237e-8
0.000, 3.253e-8
-0.001, 3.216e-8
-0.002, 3.173e-8
-0.003, 3.145e-8
-0.004, 3.139e-8
-0.005, 3.117e-8
-0.006, 3.080e-8
-0.007, 3.050e-8
-0.008, 3.040e-8
-0.009, 3.028e-8
-0.010, 2.994e-8
-0.011, 2.951e-8
-0.012, 2.948e-8
-0.013, 2.936e-8
-0.014, 2.905e-8
-0.015, 2.865e-8
-0.016, 2.850e-8
-0.017, 2.850e-8
-0.018, 2.816e-8
-0.019, 2.779e-8
-0.020, 2.763e-8
-0.021, 2.757e-8
-0.022, 2.736e-8
-0.023, 2.696e-8
-0.024, 2.674e-8
-0.025, 2.677e-8
-0.026, 2.656e-8
-0.027, 2.619e-8
-0.028, 2.594e-8
-0.029, 2.591e-8
-0.030, 2.582e-8
-0.031, 2.542e-8
-0.032, 2.514e-8
-0.033, 2.514e-8
-0.034, 2.505e-8
-0.035, 2.471e-8
-0.036, 2.443e-8
-0.037, 2.440e-8
-0.038, 2.434e-8
-0.039, 2.407e-8
-0.040, 2.373e-8
-0.041, 2.367e-8
-0.042, 2.367e-8
-0.043, 2.342e-8
-0.044, 2.311e-8
-0.045, 2.299e-8
-0.046, 2.302e-8
-0.047, 2.287e-8
-0.048, 2.250e-8
-0.049, 2.240e-8
-0.050, 2.243e-8
-0.051, 2.228e-8
-0.052, 2.197e-8
-0.053, 2.176e-8
-0.054, 2.185e-8
-0.055, 2.176e-8
-0.056, 2.142e-8
-0.057, 2.127e-8
-0.058, 2.127e-8
-0.059, 2.127e-8
-0.060, 2.099e-8
-0.061, 2.068e-8
-0.062, 2.077e-8
-0.063, 2.077e-8
-0.064, 2.053e-8
-0.065, 2.028e-8
-0.066, 2.025e-8
-0.067, 2.031e-8
-0.068, 2.013e-8
-0.069, 1.982e-8
-0.070, 1.982e-8
-0.071, 1.985e-8
-0.072, 1.973e-8
-0.073, 1.945e-8
-0.074, 1.933e-8
-0.075, 1.945e-8
-0.076, 1.933e-8
-0.077, 1.908e-8
-0.078, 1.896e-8
-0.079, 1.908e-8
-0.080, 1.899e-8
-0.081, 1.874e-8
-0.082, 1.856e-8
-0.083, 1.865e-8
-0.084, 1.868e-8
-0.085, 1.840e-8
-0.086, 1.822e-8
-0.087, 1.831e-8
-0.088, 1.831e-8
-0.089, 1.816e-8
-0.090, 1.791e-8
-0.091, 1.791e-8
-0.092, 1.807e-8
-0.093, 1.785e-8
-0.094, 1.760e-8
-0.095, 1.760e-8
-0.096, 1.770e-8
-0.097, 1.764e-8
-0.098, 1.733e-8
-0.099, 1.730e-8
-0.100, 1.745e-8
-0.101, 1.733e-8
-0.102, 1.714e-8
-0.103, 1.702e-8
-0.104, 1.714e-8
-0.105, 1.714e-8
-0.106, 1.687e-8
-0.107, 1.677e-8
-0.108, 1.687e-8
-0.109, 1.690e-8
-0.110, 1.671e-8
-0.111, 1.650e-8
-0.112, 1.662e-8
-0.113, 1.668e-8
-0.114, 1.650e-8
-0.115, 1.628e-8
-0.116, 1.634e-8
-0.117, 1.650e-8
-0.118, 1.634e-8
-0.119, 1.613e-8
-0.120, 1.610e-8
-0.121, 1.625e-8
-0.122, 1.616e-8
-0.123, 1.591e-8
-0.124, 1.591e-8
-0.125, 1.604e-8
-0.126, 1.600e-8
-0.127, 1.579e-8
-0.128, 1.570e-8
-0.129, 1.588e-8
-0.130, 1.585e-8
-0.131, 1.560e-8
-0.132, 1.554e-8
-0.133, 1.564e-8
-0.134, 1.573e-8
-0.135, 1.551e-8
-0.136, 1.533e-8
-0.137, 1.548e-8
-0.138, 1.554e-8
-0.139, 1.539e-8
-0.140, 1.520e-8
-0.141, 1.524e-8
-0.142, 1.542e-8
-0.143, 1.530e-8
-0.144, 1.505e-8
-0.145, 1.511e-8
-0.146, 1.527e-8
-0.147, 1.520e-8
-0.148, 1.496e-8
-0.149, 1.493e-8
-0.150, 1.514e-8
-0.151, 1.508e-8
-0.152, 1.487e-8
-0.153, 1.484e-8
-0.154, 1.499e-8
-0.155, 1.499e-8
-0.156, 1.480e-8
-0.157, 1.468e-8
-0.158, 1.484e-8
-0.159, 1.490e-8
-0.160, 1.471e-8
-0.161, 1.459e-8
-0.162, 1.471e-8
-0.163, 1.480e-8
-0.164, 1.468e-8
-0.165, 1.447e-8
-0.166, 1.459e-8
-0.167, 1.474e-8
-0.168, 1.459e-8
-0.169, 1.440e-8
-0.170, 1.447e-8
-0.171, 1.462e-8
-0.172, 1.456e-8
-0.173, 1.434e-8
-0.174, 1.434e-8
-0.175, 1.456e-8
-0.176, 1.450e-8
-0.177, 1.431e-8
-0.178, 1.425e-8
-0.179, 1.444e-8
-0.180, 1.450e-8
-0.181, 1.425e-8
-0.182, 1.419e-8
-0.183, 1.437e-8
-0.184, 1.440e-8
-0.185, 1.428e-8
-0.186, 1.413e-8
-0.187, 1.428e-8
-0.188, 1.440e-8
-0.189, 1.422e-8
-0.190, 1.410e-8
-0.191, 1.419e-8
-0.192, 1.434e-8
-0.193, 1.425e-8
-0.194, 1.404e-8
-0.195, 1.410e-8
-0.196, 1.431e-8
-0.197, 1.422e-8
-0.198, 1.404e-8
-0.199, 1.404e-8
