Mar. 16, 2023   09:27:57
Cyclic Voltammetry
File: c:/users/oliverrz/desktop/electrolab/data/2023_03_16\fcmeoh_macros_500_um\electrode8_cv_250mvs_500_um.bin
Data Source:  Experiment
Instrument Model:  CHI760E
Header: CV
Note: 

Init E (V) = -0.2
High E (V) = 0.3
Low E (V) = -0.2
Final E (V) = -0.2
Init P/N = P
Scan Rate (V/s) = 0.25
Segment = 3
Sample Interval (V) = 0.001
Quiet Time (sec) = 2
Sensitivity (A/V) = 1e-7

Results:

Channel 1:
Segment 1:
Ep = 0.087V
ip = -4.925e-8A
Ah = -1.198e-8C

Segment 2:
Ep = 0.028V
ip = 4.690e-8A
Ah = 1.127e-8C

Segment 3:

Potential/V, Current/A

-0.200, 3.883e-9
-0.199, 2.899e-9
-0.198, 2.683e-9
-0.197, 2.406e-9
-0.196, 2.314e-9
-0.195, 2.468e-9
-0.194, 2.406e-9
-0.193, 2.099e-9
-0.192, 2.068e-9
-0.191, 2.191e-9
-0.190, 2.160e-9
-0.189, 1.945e-9
-0.188, 1.791e-9
-0.187, 1.976e-9
-0.186, 2.037e-9
-0.185, 1.760e-9
-0.184, 1.637e-9
-0.183, 1.730e-9
-0.182, 1.853e-9
-0.181, 1.668e-9
-0.180, 1.422e-9
-0.179, 1.545e-9
-0.178, 1.668e-9
-0.177, 1.514e-9
-0.176, 1.330e-9
-0.175, 1.330e-9
-0.174, 1.514e-9
-0.173, 1.422e-9
-0.172, 1.176e-9
-0.171, 1.176e-9
-0.170, 1.330e-9
-0.169, 1.299e-9
-0.168, 1.053e-9
-0.167, 9.913e-10
-0.166, 1.207e-9
-0.165, 1.207e-9
-0.164, 9.605e-10
-0.163, 8.375e-10
-0.162, 1.053e-9
-0.161, 1.084e-9
-0.160, 8.682e-10
-0.159, 7.144e-10
-0.158, 8.375e-10
-0.157, 9.913e-10
-0.156, 7.759e-10
-0.155, 5.913e-10
-0.154, 7.144e-10
-0.153, 8.375e-10
-0.152, 7.144e-10
-0.151, 4.991e-10
-0.150, 5.298e-10
-0.149, 7.452e-10
-0.148, 6.221e-10
-0.147, 4.068e-10
-0.146, 4.068e-10
-0.145, 5.913e-10
-0.144, 5.913e-10
-0.143, 3.145e-10
-0.142, 2.837e-10
-0.141, 4.683e-10
-0.140, 4.683e-10
-0.139, 2.837e-10
-0.138, 1.606e-10
-0.137, 3.145e-10
-0.136, 4.375e-10
-0.135, 1.606e-10
-0.134, 3.758e-11
-0.133, 1.914e-10
-0.132, 2.837e-10
-0.131, 1.606e-10
-0.130, -8.548e-11
-0.129, 3.758e-11
-0.128, 2.222e-10
-0.127, 6.834e-11
-0.126, -1.470e-10
-0.125, -8.548e-11
-0.124, 9.911e-11
-0.123, 6.813e-12
-0.122, -2.085e-10
-0.121, -2.085e-10
-0.120, 6.813e-12
-0.119, -5.472e-11
-0.118, -3.008e-10
-0.117, -3.316e-10
-0.116, -1.470e-10
-0.115, -1.470e-10
-0.114, -3.316e-10
-0.113, -4.547e-10
-0.112, -2.393e-10
-0.111, -2.085e-10
-0.110, -4.239e-10
-0.109, -5.470e-10
-0.108, -3.931e-10
-0.107, -2.701e-10
-0.106, -4.854e-10
-0.105, -6.700e-10
-0.104, -5.162e-10
-0.103, -3.931e-10
-0.102, -5.470e-10
-0.101, -7.315e-10
-0.100, -7.008e-10
-0.099, -4.854e-10
-0.098, -5.777e-10
-0.097, -8.546e-10
-0.096, -7.931e-10
-0.095, -6.393e-10
-0.094, -6.700e-10
-0.093, -9.161e-10
-0.092, -9.777e-10
-0.091, -7.315e-10
-0.090, -7.623e-10
-0.089, -9.777e-10
-0.088, -1.070e-9
-0.087, -9.161e-10
-0.086, -8.546e-10
-0.085, -1.070e-9
-0.084, -1.224e-9
-0.083, -1.070e-9
-0.082, -9.469e-10
-0.081, -1.162e-9
-0.080, -1.347e-9
-0.079, -1.255e-9
-0.078, -1.101e-9
-0.077, -1.255e-9
-0.076, -1.501e-9
-0.075, -1.439e-9
-0.074, -1.255e-9
-0.073, -1.378e-9
-0.072, -1.624e-9
-0.071, -1.624e-9
-0.070, -1.439e-9
-0.069, -1.501e-9
-0.068, -1.778e-9
-0.067, -1.808e-9
-0.066, -1.624e-9
-0.065, -1.685e-9
-0.064, -1.901e-9
-0.063, -2.054e-9
-0.062, -1.901e-9
-0.061, -1.839e-9
-0.060, -2.116e-9
-0.059, -2.239e-9
-0.058, -2.116e-9
-0.057, -2.116e-9
-0.056, -2.270e-9
-0.055, -2.516e-9
-0.054, -2.424e-9
-0.053, -2.301e-9
-0.052, -2.547e-9
-0.051, -2.762e-9
-0.050, -2.762e-9
-0.049, -2.639e-9
-0.048, -2.762e-9
-0.047, -3.100e-9
-0.046, -3.100e-9
-0.045, -2.947e-9
-0.044, -3.100e-9
-0.043, -3.377e-9
-0.042, -3.500e-9
-0.041, -3.377e-9
-0.040, -3.439e-9
-0.039, -3.777e-9
-0.038, -3.931e-9
-0.037, -3.808e-9
-0.036, -3.870e-9
-0.035, -4.177e-9
-0.034, -4.393e-9
-0.033, -4.331e-9
-0.032, -4.331e-9
-0.031, -4.639e-9
-0.030, -4.946e-9
-0.029, -4.916e-9
-0.028, -4.916e-9
-0.027, -5.223e-9
-0.026, -5.531e-9
-0.025, -5.623e-9
-0.024, -5.562e-9
-0.023, -5.839e-9
-0.022, -6.239e-9
-0.021, -6.331e-9
-0.020, -6.331e-9
-0.019, -6.546e-9
-0.018, -6.977e-9
-0.017, -7.254e-9
-0.016, -7.161e-9
-0.015, -7.438e-9
-0.014, -7.838e-9
-0.013, -8.146e-9
-0.012, -8.238e-9
-0.011, -8.361e-9
-0.010, -8.854e-9
-0.009, -9.223e-9
-0.008, -9.284e-9
-0.007, -9.500e-9
-0.006, -9.930e-9
-0.005, -1.039e-8
-0.004, -1.058e-8
-0.003, -1.070e-8
-0.002, -1.122e-8
-0.001, -1.171e-8
-0.000, -1.218e-8
0.001, -1.221e-8
0.002, -1.267e-8
0.003, -1.322e-8
0.004, -1.359e-8
0.005, -1.375e-8
0.006, -1.421e-8
0.007, -1.485e-8
0.008, -1.528e-8
0.009, -1.553e-8
0.010, -1.602e-8
0.011, -1.664e-8
0.012, -1.722e-8
0.013, -1.750e-8
0.014, -1.793e-8
0.015, -1.867e-8
0.016, -1.922e-8
0.017, -1.965e-8
0.018, -2.008e-8
0.019, -2.076e-8
0.020, -2.150e-8
0.021, -2.190e-8
0.022, -2.236e-8
0.023, -2.313e-8
0.024, -2.384e-8
0.025, -2.445e-8
0.026, -2.488e-8
0.027, -2.559e-8
0.028, -2.645e-8
0.029, -2.697e-8
0.030, -2.750e-8
0.031, -2.820e-8
0.032, -2.900e-8
0.033, -2.974e-8
0.034, -3.014e-8
0.035, -3.085e-8
0.036, -3.177e-8
0.037, -3.248e-8
0.038, -3.300e-8
0.039, -3.362e-8
0.040, -3.445e-8
0.041, -3.531e-8
0.042, -3.577e-8
0.043, -3.636e-8
0.044, -3.725e-8
0.045, -3.799e-8
0.046, -3.857e-8
0.047, -3.913e-8
0.048, -3.986e-8
0.049, -4.076e-8
0.050, -4.128e-8
0.051, -4.174e-8
0.052, -4.251e-8
0.053, -4.325e-8
0.054, -4.380e-8
0.055, -4.420e-8
0.056, -4.482e-8
0.057, -4.562e-8
0.058, -4.614e-8
0.059, -4.645e-8
0.060, -4.703e-8
0.061, -4.765e-8
0.062, -4.820e-8
0.063, -4.851e-8
0.064, -4.888e-8
0.065, -4.952e-8
0.066, -5.002e-8
0.067, -5.020e-8
0.068, -5.051e-8
0.069, -5.100e-8
0.070, -5.146e-8
0.071, -5.168e-8
0.072, -5.177e-8
0.073, -5.223e-8
0.074, -5.263e-8
0.075, -5.272e-8
0.076, -5.282e-8
0.077, -5.309e-8
0.078, -5.343e-8
0.079, -5.356e-8
0.080, -5.340e-8
0.081, -5.371e-8
0.082, -5.389e-8
0.083, -5.402e-8
0.084, -5.386e-8
0.085, -5.389e-8
0.086, -5.411e-8
0.087, -5.417e-8
0.088, -5.392e-8
0.089, -5.392e-8
0.090, -5.402e-8
0.091, -5.411e-8
0.092, -5.386e-8
0.093, -5.365e-8
0.094, -5.374e-8
0.095, -5.377e-8
0.096, -5.349e-8
0.097, -5.322e-8
0.098, -5.325e-8
0.099, -5.322e-8
0.100, -5.303e-8
0.101, -5.263e-8
0.102, -5.257e-8
0.103, -5.263e-8
0.104, -5.236e-8
0.105, -5.196e-8
0.106, -5.183e-8
0.107, -5.177e-8
0.108, -5.162e-8
0.109, -5.109e-8
0.110, -5.091e-8
0.111, -5.091e-8
0.112, -5.069e-8
0.113, -5.032e-8
0.114, -4.999e-8
0.115, -4.992e-8
0.116, -4.983e-8
0.117, -4.934e-8
0.118, -4.903e-8
0.119, -4.894e-8
0.120, -4.882e-8
0.121, -4.845e-8
0.122, -4.805e-8
0.123, -4.793e-8
0.124, -4.786e-8
0.125, -4.749e-8
0.126, -4.706e-8
0.127, -4.694e-8
0.128, -4.688e-8
0.129, -4.657e-8
0.130, -4.611e-8
0.131, -4.589e-8
0.132, -4.589e-8
0.133, -4.562e-8
0.134, -4.516e-8
0.135, -4.497e-8
0.136, -4.491e-8
0.137, -4.473e-8
0.138, -4.426e-8
0.139, -4.399e-8
0.140, -4.399e-8
0.141, -4.383e-8
0.142, -4.340e-8
0.143, -4.313e-8
0.144, -4.303e-8
0.145, -4.297e-8
0.146, -4.260e-8
0.147, -4.223e-8
0.148, -4.220e-8
0.149, -4.214e-8
0.150, -4.183e-8
0.151, -4.146e-8
0.152, -4.134e-8
0.153, -4.137e-8
0.154, -4.110e-8
0.155, -4.070e-8
0.156, -4.057e-8
0.157, -4.057e-8
0.158, -4.039e-8
0.159, -3.999e-8
0.160, -3.980e-8
0.161, -3.986e-8
0.162, -3.971e-8
0.163, -3.931e-8
0.164, -3.913e-8
0.165, -3.913e-8
0.166, -3.906e-8
0.167, -3.870e-8
0.168, -3.842e-8
0.169, -3.848e-8
0.170, -3.845e-8
0.171, -3.811e-8
0.172, -3.783e-8
0.173, -3.783e-8
0.174, -3.787e-8
0.175, -3.759e-8
0.176, -3.725e-8
0.177, -3.725e-8
0.178, -3.731e-8
0.179, -3.713e-8
0.180, -3.676e-8
0.181, -3.670e-8
0.182, -3.676e-8
0.183, -3.663e-8
0.184, -3.627e-8
0.185, -3.617e-8
0.186, -3.627e-8
0.187, -3.614e-8
0.188, -3.583e-8
0.189, -3.568e-8
0.190, -3.577e-8
0.191, -3.574e-8
0.192, -3.543e-8
0.193, -3.525e-8
0.194, -3.534e-8
0.195, -3.531e-8
0.196, -3.510e-8
0.197, -3.482e-8
0.198, -3.485e-8
0.199, -3.497e-8
0.200, -3.470e-8
0.201, -3.448e-8
0.202, -3.448e-8
0.203, -3.454e-8
0.204, -3.445e-8
0.205, -3.411e-8
0.206, -3.411e-8
0.207, -3.423e-8
0.208, -3.408e-8
0.209, -3.383e-8
0.210, -3.374e-8
0.211, -3.387e-8
0.212, -3.383e-8
0.213, -3.353e-8
0.214, -3.343e-8
0.215, -3.356e-8
0.216, -3.356e-8
0.217, -3.328e-8
0.218, -3.310e-8
0.219, -3.322e-8
0.220, -3.328e-8
0.221, -3.303e-8
0.222, -3.285e-8
0.223, -3.294e-8
0.224, -3.303e-8
0.225, -3.282e-8
0.226, -3.260e-8
0.227, -3.263e-8
0.228, -3.282e-8
0.229, -3.267e-8
0.230, -3.236e-8
0.231, -3.245e-8
0.232, -3.254e-8
0.233, -3.248e-8
0.234, -3.224e-8
0.235, -3.214e-8
0.236, -3.236e-8
0.237, -3.230e-8
0.238, -3.205e-8
0.239, -3.199e-8
0.240, -3.211e-8
0.241, -3.217e-8
0.242, -3.190e-8
0.243, -3.174e-8
0.244, -3.193e-8
0.245, -3.199e-8
0.246, -3.177e-8
0.247, -3.162e-8
0.248, -3.171e-8
0.249, -3.190e-8
0.250, -3.168e-8
0.251, -3.147e-8
0.252, -3.156e-8
0.253, -3.171e-8
0.254, -3.162e-8
0.255, -3.137e-8
0.256, -3.140e-8
0.257, -3.159e-8
0.258, -3.153e-8
0.259, -3.125e-8
0.260, -3.128e-8
0.261, -3.144e-8
0.262, -3.147e-8
0.263, -3.122e-8
0.264, -3.113e-8
0.265, -3.134e-8
0.266, -3.137e-8
0.267, -3.116e-8
0.268, -3.107e-8
0.269, -3.122e-8
0.270, -3.131e-8
0.271, -3.113e-8
0.272, -3.097e-8
0.273, -3.113e-8
0.274, -3.128e-8
0.275, -3.110e-8
0.276, -3.091e-8
0.277, -3.104e-8
0.278, -3.119e-8
0.279, -3.113e-8
0.280, -3.085e-8
0.281, -3.094e-8
0.282, -3.116e-8
0.283, -3.110e-8
0.284, -3.088e-8
0.285, -3.088e-8
0.286, -3.110e-8
0.287, -3.113e-8
0.288, -3.085e-8
0.289, -3.088e-8
0.290, -3.107e-8
0.291, -3.110e-8
0.292, -3.094e-8
0.293, -3.082e-8
0.294, -3.104e-8
0.295, -3.116e-8
0.296, -3.094e-8
0.297, -3.085e-8
0.298, -3.097e-8
0.299, -3.116e-8
0.300, -2.870e-8
0.299, -2.559e-8
0.298, -2.522e-8
0.297, -2.504e-8
0.296, -2.470e-8
0.295, -2.421e-8
0.294, -2.405e-8
0.293, -2.411e-8
0.292, -2.381e-8
0.291, -2.347e-8
0.290, -2.331e-8
0.289, -2.334e-8
0.288, -2.328e-8
0.287, -2.282e-8
0.286, -2.270e-8
0.285, -2.276e-8
0.284, -2.270e-8
0.283, -2.242e-8
0.282, -2.217e-8
0.281, -2.230e-8
0.280, -2.230e-8
0.279, -2.199e-8
0.278, -2.181e-8
0.277, -2.184e-8
0.276, -2.190e-8
0.275, -2.168e-8
0.274, -2.141e-8
0.273, -2.144e-8
0.272, -2.156e-8
0.271, -2.137e-8
0.270, -2.107e-8
0.269, -2.110e-8
0.268, -2.122e-8
0.267, -2.110e-8
0.266, -2.079e-8
0.265, -2.076e-8
0.264, -2.091e-8
0.263, -2.082e-8
0.262, -2.054e-8
0.261, -2.045e-8
0.260, -2.058e-8
0.259, -2.061e-8
0.258, -2.030e-8
0.257, -2.018e-8
0.256, -2.030e-8
0.255, -2.036e-8
0.254, -2.011e-8
0.253, -1.993e-8
0.252, -2.002e-8
0.251, -2.011e-8
0.250, -1.993e-8
0.249, -1.968e-8
0.248, -1.978e-8
0.247, -1.987e-8
0.246, -1.974e-8
0.245, -1.950e-8
0.244, -1.953e-8
0.243, -1.965e-8
0.242, -1.956e-8
0.241, -1.928e-8
0.240, -1.931e-8
0.239, -1.944e-8
0.238, -1.941e-8
0.237, -1.913e-8
0.236, -1.904e-8
0.235, -1.925e-8
0.234, -1.922e-8
0.233, -1.898e-8
0.232, -1.885e-8
0.231, -1.898e-8
0.230, -1.907e-8
0.229, -1.882e-8
0.228, -1.864e-8
0.227, -1.876e-8
0.226, -1.885e-8
0.225, -1.867e-8
0.224, -1.848e-8
0.223, -1.854e-8
0.222, -1.870e-8
0.221, -1.854e-8
0.220, -1.827e-8
0.219, -1.833e-8
0.218, -1.848e-8
0.217, -1.836e-8
0.216, -1.811e-8
0.215, -1.811e-8
0.214, -1.827e-8
0.213, -1.824e-8
0.212, -1.793e-8
0.211, -1.790e-8
0.210, -1.808e-8
0.209, -1.805e-8
0.208, -1.784e-8
0.207, -1.768e-8
0.206, -1.784e-8
0.205, -1.793e-8
0.204, -1.762e-8
0.203, -1.753e-8
0.202, -1.762e-8
0.201, -1.771e-8
0.200, -1.756e-8
0.199, -1.728e-8
0.198, -1.741e-8
0.197, -1.753e-8
0.196, -1.734e-8
0.195, -1.713e-8
0.194, -1.713e-8
0.193, -1.731e-8
0.192, -1.719e-8
0.191, -1.691e-8
0.190, -1.694e-8
0.189, -1.707e-8
0.188, -1.701e-8
0.187, -1.673e-8
0.186, -1.667e-8
0.185, -1.682e-8
0.184, -1.679e-8
0.183, -1.651e-8
0.182, -1.642e-8
0.181, -1.654e-8
0.180, -1.658e-8
0.179, -1.633e-8
0.178, -1.614e-8
0.177, -1.624e-8
0.176, -1.633e-8
0.175, -1.608e-8
0.174, -1.584e-8
0.173, -1.593e-8
0.172, -1.599e-8
0.171, -1.584e-8
0.170, -1.556e-8
0.169, -1.556e-8
0.168, -1.571e-8
0.167, -1.553e-8
0.166, -1.522e-8
0.165, -1.519e-8
0.164, -1.528e-8
0.163, -1.522e-8
0.162, -1.488e-8
0.161, -1.479e-8
0.160, -1.491e-8
0.159, -1.482e-8
0.158, -1.451e-8
0.157, -1.436e-8
0.156, -1.442e-8
0.155, -1.442e-8
0.154, -1.408e-8
0.153, -1.384e-8
0.152, -1.393e-8
0.151, -1.390e-8
0.150, -1.362e-8
0.149, -1.335e-8
0.148, -1.328e-8
0.147, -1.341e-8
0.146, -1.307e-8
0.145, -1.276e-8
0.144, -1.273e-8
0.143, -1.270e-8
0.142, -1.251e-8
0.141, -1.208e-8
0.140, -1.199e-8
0.139, -1.199e-8
0.138, -1.178e-8
0.137, -1.138e-8
0.136, -1.119e-8
0.135, -1.116e-8
0.134, -1.101e-8
0.133, -1.055e-8
0.132, -1.030e-8
0.131, -1.027e-8
0.130, -1.008e-8
0.129, -9.623e-9
0.128, -9.284e-9
0.127, -9.192e-9
0.126, -9.069e-9
0.125, -8.638e-9
0.124, -8.177e-9
0.123, -8.054e-9
0.122, -7.900e-9
0.121, -7.438e-9
0.120, -6.977e-9
0.119, -6.700e-9
0.118, -6.577e-9
0.117, -6.177e-9
0.116, -5.531e-9
0.115, -5.285e-9
0.114, -5.069e-9
0.113, -4.669e-9
0.112, -4.085e-9
0.111, -3.623e-9
0.110, -3.439e-9
0.109, -3.039e-9
0.108, -2.362e-9
0.107, -1.931e-9
0.106, -1.593e-9
0.105, -1.224e-9
0.104, -5.470e-10
0.103, 6.834e-11
0.102, 4.068e-10
0.101, 8.375e-10
0.100, 1.514e-9
0.099, 2.160e-9
0.098, 2.591e-9
0.097, 2.960e-9
0.096, 3.668e-9
0.095, 4.468e-9
0.094, 4.898e-9
0.093, 5.329e-9
0.092, 6.037e-9
0.091, 6.837e-9
0.090, 7.421e-9
0.089, 7.883e-9
0.088, 8.498e-9
0.087, 9.452e-9
0.086, 1.004e-8
0.085, 1.050e-8
0.084, 1.121e-8
0.083, 1.201e-8
0.082, 1.277e-8
0.081, 1.327e-8
0.080, 1.385e-8
0.079, 1.477e-8
0.078, 1.551e-8
0.077, 1.610e-8
0.076, 1.671e-8
0.075, 1.751e-8
0.074, 1.837e-8
0.073, 1.893e-8
0.072, 1.945e-8
0.071, 2.031e-8
0.070, 2.108e-8
0.069, 2.167e-8
0.068, 2.222e-8
0.067, 2.290e-8
0.066, 2.385e-8
0.065, 2.440e-8
0.064, 2.483e-8
0.063, 2.554e-8
0.062, 2.631e-8
0.061, 2.690e-8
0.060, 2.739e-8
0.059, 2.782e-8
0.058, 2.871e-8
0.057, 2.920e-8
0.056, 2.957e-8
0.055, 3.010e-8
0.054, 3.071e-8
0.053, 3.133e-8
0.052, 3.163e-8
0.051, 3.197e-8
0.050, 3.259e-8
0.049, 3.308e-8
0.048, 3.333e-8
0.047, 3.360e-8
0.046, 3.403e-8
0.045, 3.456e-8
0.044, 3.474e-8
0.043, 3.486e-8
0.042, 3.523e-8
0.041, 3.569e-8
0.040, 3.585e-8
0.039, 3.591e-8
0.038, 3.613e-8
0.037, 3.649e-8
0.036, 3.662e-8
0.035, 3.656e-8
0.034, 3.668e-8
0.033, 3.699e-8
0.032, 3.705e-8
0.031, 3.699e-8
0.030, 3.696e-8
0.029, 3.717e-8
0.028, 3.732e-8
0.027, 3.708e-8
0.026, 3.705e-8
0.025, 3.714e-8
0.024, 3.720e-8
0.023, 3.705e-8
0.022, 3.677e-8
0.021, 3.683e-8
0.020, 3.692e-8
0.019, 3.665e-8
0.018, 3.643e-8
0.017, 3.637e-8
0.016, 3.643e-8
0.015, 3.625e-8
0.014, 3.585e-8
0.013, 3.576e-8
0.012, 3.582e-8
0.011, 3.557e-8
0.010, 3.526e-8
0.009, 3.499e-8
0.008, 3.502e-8
0.007, 3.489e-8
0.006, 3.446e-8
0.005, 3.419e-8
0.004, 3.419e-8
0.003, 3.406e-8
0.002, 3.369e-8
0.001, 3.336e-8
0.000, 3.342e-8
-0.001, 3.323e-8
-0.002, 3.283e-8
-0.003, 3.243e-8
-0.004, 3.234e-8
-0.005, 3.225e-8
-0.006, 3.191e-8
-0.007, 3.151e-8
-0.008, 3.133e-8
-0.009, 3.136e-8
-0.010, 3.102e-8
-0.011, 3.056e-8
-0.012, 3.040e-8
-0.013, 3.037e-8
-0.014, 3.013e-8
-0.015, 2.970e-8
-0.016, 2.942e-8
-0.017, 2.945e-8
-0.018, 2.923e-8
-0.019, 2.883e-8
-0.020, 2.853e-8
-0.021, 2.850e-8
-0.022, 2.837e-8
-0.023, 2.800e-8
-0.024, 2.763e-8
-0.025, 2.763e-8
-0.026, 2.754e-8
-0.027, 2.717e-8
-0.028, 2.683e-8
-0.029, 2.671e-8
-0.030, 2.674e-8
-0.031, 2.640e-8
-0.032, 2.600e-8
-0.033, 2.594e-8
-0.034, 2.594e-8
-0.035, 2.566e-8
-0.036, 2.530e-8
-0.037, 2.514e-8
-0.038, 2.517e-8
-0.039, 2.499e-8
-0.040, 2.459e-8
-0.041, 2.440e-8
-0.042, 2.447e-8
-0.043, 2.431e-8
-0.044, 2.394e-8
-0.045, 2.367e-8
-0.046, 2.376e-8
-0.047, 2.367e-8
-0.048, 2.333e-8
-0.049, 2.305e-8
-0.050, 2.308e-8
-0.051, 2.305e-8
-0.052, 2.277e-8
-0.053, 2.243e-8
-0.054, 2.247e-8
-0.055, 2.250e-8
-0.056, 2.222e-8
-0.057, 2.191e-8
-0.058, 2.185e-8
-0.059, 2.191e-8
-0.060, 2.176e-8
-0.061, 2.136e-8
-0.062, 2.133e-8
-0.063, 2.145e-8
-0.064, 2.123e-8
-0.065, 2.096e-8
-0.066, 2.077e-8
-0.067, 2.093e-8
-0.068, 2.083e-8
-0.069, 2.047e-8
-0.070, 2.034e-8
-0.071, 2.043e-8
-0.072, 2.040e-8
-0.073, 2.013e-8
-0.074, 1.988e-8
-0.075, 2.000e-8
-0.076, 2.003e-8
-0.077, 1.976e-8
-0.078, 1.951e-8
-0.079, 1.954e-8
-0.080, 1.963e-8
-0.081, 1.942e-8
-0.082, 1.914e-8
-0.083, 1.914e-8
-0.084, 1.927e-8
-0.085, 1.911e-8
-0.086, 1.884e-8
-0.087, 1.880e-8
-0.088, 1.893e-8
-0.089, 1.880e-8
-0.090, 1.853e-8
-0.091, 1.844e-8
-0.092, 1.859e-8
-0.093, 1.853e-8
-0.094, 1.825e-8
-0.095, 1.813e-8
-0.096, 1.825e-8
-0.097, 1.828e-8
-0.098, 1.800e-8
-0.099, 1.782e-8
-0.100, 1.797e-8
-0.101, 1.800e-8
-0.102, 1.782e-8
-0.103, 1.757e-8
-0.104, 1.764e-8
-0.105, 1.782e-8
-0.106, 1.757e-8
-0.107, 1.733e-8
-0.108, 1.739e-8
-0.109, 1.751e-8
-0.110, 1.742e-8
-0.111, 1.714e-8
-0.112, 1.714e-8
-0.113, 1.733e-8
-0.114, 1.720e-8
-0.115, 1.696e-8
-0.116, 1.693e-8
-0.117, 1.708e-8
-0.118, 1.708e-8
-0.119, 1.680e-8
-0.120, 1.671e-8
-0.121, 1.690e-8
-0.122, 1.690e-8
-0.123, 1.668e-8
-0.124, 1.653e-8
-0.125, 1.668e-8
-0.126, 1.674e-8
-0.127, 1.656e-8
-0.128, 1.637e-8
-0.129, 1.650e-8
-0.130, 1.662e-8
-0.131, 1.644e-8
-0.132, 1.625e-8
-0.133, 1.628e-8
-0.134, 1.647e-8
-0.135, 1.637e-8
-0.136, 1.610e-8
-0.137, 1.613e-8
-0.138, 1.634e-8
-0.139, 1.625e-8
-0.140, 1.604e-8
-0.141, 1.600e-8
-0.142, 1.619e-8
-0.143, 1.619e-8
-0.144, 1.591e-8
-0.145, 1.588e-8
-0.146, 1.607e-8
-0.147, 1.610e-8
-0.148, 1.591e-8
-0.149, 1.576e-8
-0.150, 1.594e-8
-0.151, 1.604e-8
-0.152, 1.582e-8
-0.153, 1.570e-8
-0.154, 1.579e-8
-0.155, 1.597e-8
-0.156, 1.585e-8
-0.157, 1.560e-8
-0.158, 1.573e-8
-0.159, 1.591e-8
-0.160, 1.579e-8
-0.161, 1.560e-8
-0.162, 1.560e-8
-0.163, 1.582e-8
-0.164, 1.579e-8
-0.165, 1.554e-8
-0.166, 1.557e-8
-0.167, 1.576e-8
-0.168, 1.576e-8
-0.169, 1.557e-8
-0.170, 1.551e-8
-0.171, 1.570e-8
-0.172, 1.576e-8
-0.173, 1.557e-8
-0.174, 1.545e-8
-0.175, 1.567e-8
-0.176, 1.576e-8
-0.177, 1.560e-8
-0.178, 1.545e-8
-0.179, 1.560e-8
-0.180, 1.576e-8
-0.181, 1.564e-8
-0.182, 1.542e-8
-0.183, 1.560e-8
-0.184, 1.576e-8
-0.185, 1.570e-8
-0.186, 1.548e-8
-0.187, 1.551e-8
-0.188, 1.579e-8
-0.189, 1.573e-8
-0.190, 1.554e-8
-0.191, 1.554e-8
-0.192, 1.576e-8
-0.193, 1.582e-8
-0.194, 1.557e-8
-0.195, 1.554e-8
-0.196, 1.582e-8
-0.197, 1.582e-8
-0.198, 1.570e-8
-0.199, 1.557e-8
