Mar. 16, 2023   09:26:04
Cyclic Voltammetry
File: c:/users/oliverrz/desktop/electrolab/data/2023_03_16\fcmeoh_macros_500_um\electrode7_cv_100mvs_500_um.bin
Data Source:  Experiment
Instrument Model:  CHI760E
Header: CV
Note: 

Init E (V) = -0.2
High E (V) = 0.3
Low E (V) = -0.2
Final E (V) = -0.2
Init P/N = P
Scan Rate (V/s) = 0.1
Segment = 3
Sample Interval (V) = 0.001
Quiet Time (sec) = 2
Sensitivity (A/V) = 1e-7

Results:

Channel 1:
Segment 1:
Ep = 0.096V
ip = -3.293e-8A
Ah = -2.079e-8C

Segment 2:
Ep = 0.030V
ip = 3.064e-8A
Ah = 1.945e-8C

Segment 3:

Potential/V, Current/A

-0.200, 2.656e-9
-0.199, 2.234e-9
-0.198, 2.218e-9
-0.197, 2.098e-9
-0.196, 2.120e-9
-0.195, 2.086e-9
-0.194, 2.020e-9
-0.193, 2.069e-9
-0.192, 1.971e-9
-0.191, 2.004e-9
-0.190, 1.975e-9
-0.189, 1.915e-9
-0.188, 1.968e-9
-0.187, 1.872e-9
-0.186, 1.909e-9
-0.185, 1.879e-9
-0.184, 1.825e-9
-0.183, 1.881e-9
-0.182, 1.786e-9
-0.181, 1.825e-9
-0.180, 1.797e-9
-0.179, 1.742e-9
-0.178, 1.800e-9
-0.177, 1.709e-9
-0.176, 1.749e-9
-0.175, 1.723e-9
-0.174, 1.669e-9
-0.173, 1.733e-9
-0.172, 1.635e-9
-0.171, 1.677e-9
-0.170, 1.658e-9
-0.169, 1.598e-9
-0.168, 1.666e-9
-0.167, 1.570e-9
-0.166, 1.609e-9
-0.165, 1.593e-9
-0.164, 1.532e-9
-0.163, 1.602e-9
-0.162, 1.510e-9
-0.161, 1.547e-9
-0.160, 1.532e-9
-0.159, 1.474e-9
-0.158, 1.538e-9
-0.157, 1.451e-9
-0.156, 1.485e-9
-0.155, 1.474e-9
-0.154, 1.414e-9
-0.153, 1.479e-9
-0.152, 1.392e-9
-0.151, 1.432e-9
-0.150, 1.418e-9
-0.149, 1.362e-9
-0.148, 1.426e-9
-0.147, 1.340e-9
-0.146, 1.376e-9
-0.145, 1.364e-9
-0.144, 1.310e-9
-0.143, 1.375e-9
-0.142, 1.287e-9
-0.141, 1.328e-9
-0.140, 1.312e-9
-0.139, 1.258e-9
-0.138, 1.326e-9
-0.137, 1.239e-9
-0.136, 1.279e-9
-0.135, 1.266e-9
-0.134, 1.209e-9
-0.133, 1.277e-9
-0.132, 1.192e-9
-0.131, 1.230e-9
-0.130, 1.220e-9
-0.129, 1.160e-9
-0.128, 1.227e-9
-0.127, 1.140e-9
-0.126, 1.178e-9
-0.125, 1.174e-9
-0.124, 1.111e-9
-0.123, 1.181e-9
-0.122, 1.097e-9
-0.121, 1.130e-9
-0.120, 1.124e-9
-0.119, 1.063e-9
-0.118, 1.131e-9
-0.117, 1.049e-9
-0.116, 1.081e-9
-0.115, 1.073e-9
-0.114, 1.011e-9
-0.113, 1.081e-9
-0.112, 9.976e-10
-0.111, 1.031e-9
-0.110, 1.025e-9
-0.109, 9.627e-10
-0.108, 1.029e-9
-0.107, 9.476e-10
-0.106, 9.792e-10
-0.105, 9.676e-10
-0.104, 9.104e-10
-0.103, 9.746e-10
-0.102, 8.859e-10
-0.101, 9.201e-10
-0.100, 9.137e-10
-0.099, 8.520e-10
-0.098, 9.205e-10
-0.097, 8.308e-10
-0.096, 8.658e-10
-0.095, 8.571e-10
-0.094, 7.896e-10
-0.093, 8.609e-10
-0.092, 7.682e-10
-0.091, 8.011e-10
-0.090, 7.936e-10
-0.089, 7.256e-10
-0.088, 7.959e-10
-0.087, 7.040e-10
-0.086, 7.313e-10
-0.085, 7.274e-10
-0.084, 6.513e-10
-0.083, 7.215e-10
-0.082, 6.296e-10
-0.081, 6.544e-10
-0.080, 6.480e-10
-0.079, 5.719e-10
-0.078, 6.392e-10
-0.077, 5.416e-10
-0.076, 5.659e-10
-0.075, 5.598e-10
-0.074, 4.853e-10
-0.073, 5.425e-10
-0.072, 4.523e-10
-0.071, 4.714e-10
-0.070, 4.603e-10
-0.069, 3.855e-10
-0.068, 4.415e-10
-0.067, 3.502e-10
-0.066, 3.648e-10
-0.065, 3.499e-10
-0.064, 2.710e-10
-0.063, 3.218e-10
-0.062, 2.266e-10
-0.061, 2.405e-10
-0.060, 2.224e-10
-0.059, 1.377e-10
-0.058, 1.909e-10
-0.057, 8.734e-11
-0.056, 9.640e-11
-0.055, 7.533e-11
-0.054, -1.120e-11
-0.053, 3.546e-11
-0.052, -7.342e-11
-0.051, -7.116e-11
-0.050, -9.331e-11
-0.049, -1.939e-10
-0.048, -1.463e-10
-0.047, -2.620e-10
-0.046, -2.673e-10
-0.045, -2.936e-10
-0.044, -4.018e-10
-0.043, -3.615e-10
-0.042, -4.832e-10
-0.041, -4.991e-10
-0.040, -5.323e-10
-0.039, -6.466e-10
-0.038, -6.183e-10
-0.037, -7.437e-10
-0.036, -7.735e-10
-0.035, -8.133e-10
-0.034, -9.327e-10
-0.033, -9.184e-10
-0.032, -1.052e-9
-0.031, -1.090e-9
-0.030, -1.142e-9
-0.029, -1.274e-9
-0.028, -1.272e-9
-0.027, -1.415e-9
-0.026, -1.467e-9
-0.025, -1.539e-9
-0.024, -1.680e-9
-0.023, -1.692e-9
-0.022, -1.851e-9
-0.021, -1.918e-9
-0.020, -2.000e-9
-0.019, -2.160e-9
-0.018, -2.191e-9
-0.017, -2.370e-9
-0.016, -2.446e-9
-0.015, -2.545e-9
-0.014, -2.727e-9
-0.013, -2.774e-9
-0.012, -2.974e-9
-0.011, -3.071e-9
-0.010, -3.194e-9
-0.009, -3.399e-9
-0.008, -3.461e-9
-0.007, -3.678e-9
-0.006, -3.801e-9
-0.005, -3.940e-9
-0.004, -4.177e-9
-0.003, -4.265e-9
-0.002, -4.509e-9
-0.001, -4.668e-9
-0.000, -4.879e-9
0.001, -5.130e-9
0.002, -5.236e-9
0.003, -5.502e-9
0.004, -5.687e-9
0.005, -5.882e-9
0.006, -6.166e-9
0.007, -6.321e-9
0.008, -6.622e-9
0.009, -6.843e-9
0.010, -7.072e-9
0.011, -7.394e-9
0.012, -7.591e-9
0.013, -7.922e-9
0.014, -8.183e-9
0.015, -8.448e-9
0.016, -8.800e-9
0.017, -9.026e-9
0.018, -9.391e-9
0.019, -9.681e-9
0.020, -9.987e-9
0.021, -1.037e-8
0.022, -1.064e-8
0.023, -1.104e-8
0.024, -1.136e-8
0.025, -1.170e-8
0.026, -1.214e-8
0.027, -1.243e-8
0.028, -1.288e-8
0.029, -1.322e-8
0.030, -1.360e-8
0.031, -1.406e-8
0.032, -1.437e-8
0.033, -1.485e-8
0.034, -1.525e-8
0.035, -1.565e-8
0.036, -1.614e-8
0.037, -1.648e-8
0.038, -1.697e-8
0.039, -1.741e-8
0.040, -1.781e-8
0.041, -1.831e-8
0.042, -1.868e-8
0.043, -1.918e-8
0.044, -1.962e-8
0.045, -2.002e-8
0.046, -2.054e-8
0.047, -2.093e-8
0.048, -2.142e-8
0.049, -2.186e-8
0.050, -2.227e-8
0.051, -2.279e-8
0.052, -2.318e-8
0.053, -2.366e-8
0.054, -2.409e-8
0.055, -2.450e-8
0.056, -2.497e-8
0.057, -2.534e-8
0.058, -2.579e-8
0.059, -2.619e-8
0.060, -2.657e-8
0.061, -2.702e-8
0.062, -2.734e-8
0.063, -2.777e-8
0.064, -2.812e-8
0.065, -2.846e-8
0.066, -2.887e-8
0.067, -2.914e-8
0.068, -2.953e-8
0.069, -2.981e-8
0.070, -3.011e-8
0.071, -3.046e-8
0.072, -3.067e-8
0.073, -3.101e-8
0.074, -3.124e-8
0.075, -3.146e-8
0.076, -3.177e-8
0.077, -3.192e-8
0.078, -3.219e-8
0.079, -3.238e-8
0.080, -3.252e-8
0.081, -3.276e-8
0.082, -3.284e-8
0.083, -3.303e-8
0.084, -3.316e-8
0.085, -3.325e-8
0.086, -3.343e-8
0.087, -3.346e-8
0.088, -3.359e-8
0.089, -3.366e-8
0.090, -3.369e-8
0.091, -3.381e-8
0.092, -3.378e-8
0.093, -3.385e-8
0.094, -3.387e-8
0.095, -3.385e-8
0.096, -3.391e-8
0.097, -3.384e-8
0.098, -3.387e-8
0.099, -3.384e-8
0.100, -3.378e-8
0.101, -3.380e-8
0.102, -3.369e-8
0.103, -3.369e-8
0.104, -3.361e-8
0.105, -3.351e-8
0.106, -3.350e-8
0.107, -3.334e-8
0.108, -3.331e-8
0.109, -3.320e-8
0.110, -3.308e-8
0.111, -3.305e-8
0.112, -3.287e-8
0.113, -3.282e-8
0.114, -3.269e-8
0.115, -3.255e-8
0.116, -3.250e-8
0.117, -3.230e-8
0.118, -3.223e-8
0.119, -3.209e-8
0.120, -3.192e-8
0.121, -3.187e-8
0.122, -3.166e-8
0.123, -3.158e-8
0.124, -3.144e-8
0.125, -3.126e-8
0.126, -3.120e-8
0.127, -3.098e-8
0.128, -3.090e-8
0.129, -3.075e-8
0.130, -3.057e-8
0.131, -3.051e-8
0.132, -3.029e-8
0.133, -3.020e-8
0.134, -3.006e-8
0.135, -2.988e-8
0.136, -2.982e-8
0.137, -2.961e-8
0.138, -2.952e-8
0.139, -2.938e-8
0.140, -2.920e-8
0.141, -2.914e-8
0.142, -2.894e-8
0.143, -2.886e-8
0.144, -2.872e-8
0.145, -2.855e-8
0.146, -2.849e-8
0.147, -2.829e-8
0.148, -2.822e-8
0.149, -2.808e-8
0.150, -2.792e-8
0.151, -2.787e-8
0.152, -2.767e-8
0.153, -2.761e-8
0.154, -2.748e-8
0.155, -2.732e-8
0.156, -2.729e-8
0.157, -2.709e-8
0.158, -2.703e-8
0.159, -2.692e-8
0.160, -2.676e-8
0.161, -2.674e-8
0.162, -2.655e-8
0.163, -2.650e-8
0.164, -2.639e-8
0.165, -2.624e-8
0.166, -2.622e-8
0.167, -2.604e-8
0.168, -2.599e-8
0.169, -2.589e-8
0.170, -2.575e-8
0.171, -2.573e-8
0.172, -2.556e-8
0.173, -2.551e-8
0.174, -2.543e-8
0.175, -2.530e-8
0.176, -2.528e-8
0.177, -2.512e-8
0.178, -2.508e-8
0.179, -2.500e-8
0.180, -2.488e-8
0.181, -2.487e-8
0.182, -2.471e-8
0.183, -2.468e-8
0.184, -2.460e-8
0.185, -2.448e-8
0.186, -2.448e-8
0.187, -2.433e-8
0.188, -2.430e-8
0.189, -2.423e-8
0.190, -2.411e-8
0.191, -2.412e-8
0.192, -2.398e-8
0.193, -2.395e-8
0.194, -2.389e-8
0.195, -2.377e-8
0.196, -2.379e-8
0.197, -2.365e-8
0.198, -2.363e-8
0.199, -2.357e-8
0.200, -2.346e-8
0.201, -2.348e-8
0.202, -2.334e-8
0.203, -2.333e-8
0.204, -2.328e-8
0.205, -2.318e-8
0.206, -2.320e-8
0.207, -2.307e-8
0.208, -2.305e-8
0.209, -2.301e-8
0.210, -2.290e-8
0.211, -2.292e-8
0.212, -2.280e-8
0.213, -2.279e-8
0.214, -2.275e-8
0.215, -2.265e-8
0.216, -2.268e-8
0.217, -2.256e-8
0.218, -2.256e-8
0.219, -2.252e-8
0.220, -2.242e-8
0.221, -2.246e-8
0.222, -2.234e-8
0.223, -2.234e-8
0.224, -2.230e-8
0.225, -2.221e-8
0.226, -2.225e-8
0.227, -2.213e-8
0.228, -2.213e-8
0.229, -2.210e-8
0.230, -2.201e-8
0.231, -2.206e-8
0.232, -2.194e-8
0.233, -2.195e-8
0.234, -2.192e-8
0.235, -2.183e-8
0.236, -2.187e-8
0.237, -2.177e-8
0.238, -2.177e-8
0.239, -2.175e-8
0.240, -2.166e-8
0.241, -2.171e-8
0.242, -2.161e-8
0.243, -2.161e-8
0.244, -2.159e-8
0.245, -2.150e-8
0.246, -2.155e-8
0.247, -2.146e-8
0.248, -2.146e-8
0.249, -2.145e-8
0.250, -2.136e-8
0.251, -2.141e-8
0.252, -2.132e-8
0.253, -2.132e-8
0.254, -2.132e-8
0.255, -2.123e-8
0.256, -2.129e-8
0.257, -2.119e-8
0.258, -2.120e-8
0.259, -2.119e-8
0.260, -2.112e-8
0.261, -2.117e-8
0.262, -2.107e-8
0.263, -2.109e-8
0.264, -2.108e-8
0.265, -2.100e-8
0.266, -2.106e-8
0.267, -2.097e-8
0.268, -2.098e-8
0.269, -2.098e-8
0.270, -2.090e-8
0.271, -2.096e-8
0.272, -2.087e-8
0.273, -2.088e-8
0.274, -2.088e-8
0.275, -2.080e-8
0.276, -2.087e-8
0.277, -2.078e-8
0.278, -2.079e-8
0.279, -2.080e-8
0.280, -2.072e-8
0.281, -2.079e-8
0.282, -2.071e-8
0.283, -2.072e-8
0.284, -2.072e-8
0.285, -2.064e-8
0.286, -2.071e-8
0.287, -2.063e-8
0.288, -2.065e-8
0.289, -2.066e-8
0.290, -2.058e-8
0.291, -2.065e-8
0.292, -2.057e-8
0.293, -2.059e-8
0.294, -2.060e-8
0.295, -2.053e-8
0.296, -2.059e-8
0.297, -2.052e-8
0.298, -2.053e-8
0.299, -2.055e-8
0.300, -1.996e-8
0.299, -1.915e-8
0.298, -1.880e-8
0.297, -1.868e-8
0.296, -1.859e-8
0.295, -1.842e-8
0.294, -1.841e-8
0.293, -1.827e-8
0.292, -1.821e-8
0.291, -1.817e-8
0.290, -1.804e-8
0.289, -1.806e-8
0.288, -1.793e-8
0.287, -1.790e-8
0.286, -1.787e-8
0.285, -1.775e-8
0.284, -1.777e-8
0.283, -1.765e-8
0.282, -1.763e-8
0.281, -1.760e-8
0.280, -1.750e-8
0.279, -1.753e-8
0.278, -1.742e-8
0.277, -1.740e-8
0.276, -1.738e-8
0.275, -1.728e-8
0.274, -1.732e-8
0.273, -1.721e-8
0.272, -1.720e-8
0.271, -1.718e-8
0.270, -1.708e-8
0.269, -1.712e-8
0.268, -1.702e-8
0.267, -1.701e-8
0.266, -1.700e-8
0.265, -1.690e-8
0.264, -1.695e-8
0.263, -1.685e-8
0.262, -1.684e-8
0.261, -1.684e-8
0.260, -1.674e-8
0.259, -1.679e-8
0.258, -1.669e-8
0.257, -1.668e-8
0.256, -1.668e-8
0.255, -1.658e-8
0.254, -1.663e-8
0.253, -1.654e-8
0.252, -1.652e-8
0.251, -1.653e-8
0.250, -1.643e-8
0.249, -1.648e-8
0.248, -1.639e-8
0.247, -1.638e-8
0.246, -1.639e-8
0.245, -1.629e-8
0.244, -1.634e-8
0.243, -1.625e-8
0.242, -1.624e-8
0.241, -1.624e-8
0.240, -1.615e-8
0.239, -1.620e-8
0.238, -1.611e-8
0.237, -1.610e-8
0.236, -1.611e-8
0.235, -1.601e-8
0.234, -1.606e-8
0.233, -1.597e-8
0.232, -1.596e-8
0.231, -1.597e-8
0.230, -1.587e-8
0.229, -1.593e-8
0.228, -1.583e-8
0.227, -1.583e-8
0.226, -1.583e-8
0.225, -1.574e-8
0.224, -1.579e-8
0.223, -1.570e-8
0.222, -1.570e-8
0.221, -1.570e-8
0.220, -1.560e-8
0.219, -1.566e-8
0.218, -1.557e-8
0.217, -1.555e-8
0.216, -1.557e-8
0.215, -1.546e-8
0.214, -1.552e-8
0.213, -1.543e-8
0.212, -1.542e-8
0.211, -1.543e-8
0.210, -1.532e-8
0.209, -1.538e-8
0.208, -1.529e-8
0.207, -1.527e-8
0.206, -1.528e-8
0.205, -1.517e-8
0.204, -1.522e-8
0.203, -1.514e-8
0.202, -1.511e-8
0.201, -1.512e-8
0.200, -1.502e-8
0.199, -1.506e-8
0.198, -1.497e-8
0.197, -1.495e-8
0.196, -1.495e-8
0.195, -1.485e-8
0.194, -1.489e-8
0.193, -1.480e-8
0.192, -1.478e-8
0.191, -1.478e-8
0.190, -1.467e-8
0.189, -1.472e-8
0.188, -1.462e-8
0.187, -1.459e-8
0.186, -1.459e-8
0.185, -1.448e-8
0.184, -1.451e-8
0.183, -1.441e-8
0.182, -1.439e-8
0.181, -1.438e-8
0.180, -1.426e-8
0.179, -1.430e-8
0.178, -1.420e-8
0.177, -1.416e-8
0.176, -1.415e-8
0.175, -1.402e-8
0.174, -1.405e-8
0.173, -1.395e-8
0.172, -1.390e-8
0.171, -1.389e-8
0.170, -1.376e-8
0.169, -1.378e-8
0.168, -1.366e-8
0.167, -1.360e-8
0.166, -1.359e-8
0.165, -1.344e-8
0.164, -1.346e-8
0.163, -1.334e-8
0.162, -1.327e-8
0.161, -1.325e-8
0.160, -1.310e-8
0.159, -1.310e-8
0.158, -1.297e-8
0.157, -1.289e-8
0.156, -1.285e-8
0.155, -1.269e-8
0.154, -1.268e-8
0.153, -1.253e-8
0.152, -1.245e-8
0.151, -1.239e-8
0.150, -1.222e-8
0.149, -1.219e-8
0.148, -1.204e-8
0.147, -1.194e-8
0.146, -1.187e-8
0.145, -1.167e-8
0.144, -1.163e-8
0.143, -1.146e-8
0.142, -1.134e-8
0.141, -1.126e-8
0.140, -1.104e-8
0.139, -1.098e-8
0.138, -1.079e-8
0.137, -1.065e-8
0.136, -1.055e-8
0.135, -1.031e-8
0.134, -1.022e-8
0.133, -1.001e-8
0.132, -9.840e-9
0.131, -9.717e-9
0.130, -9.454e-9
0.129, -9.344e-9
0.128, -9.107e-9
0.127, -8.905e-9
0.126, -8.760e-9
0.125, -8.476e-9
0.124, -8.330e-9
0.123, -8.069e-9
0.122, -7.835e-9
0.121, -7.659e-9
0.120, -7.343e-9
0.119, -7.161e-9
0.118, -6.867e-9
0.117, -6.602e-9
0.116, -6.380e-9
0.115, -6.036e-9
0.114, -5.819e-9
0.113, -5.496e-9
0.112, -5.202e-9
0.111, -4.947e-9
0.110, -4.576e-9
0.109, -4.327e-9
0.108, -3.962e-9
0.107, -3.639e-9
0.106, -3.355e-9
0.105, -2.940e-9
0.104, -2.657e-9
0.103, -2.255e-9
0.102, -1.881e-9
0.101, -1.565e-9
0.100, -1.118e-9
0.099, -8.140e-10
0.098, -3.832e-10
0.097, 1.587e-11
0.096, 3.655e-10
0.095, 8.611e-10
0.094, 1.197e-9
0.093, 1.653e-9
0.092, 2.090e-9
0.091, 2.455e-9
0.090, 2.970e-9
0.089, 3.340e-9
0.088, 3.802e-9
0.087, 4.255e-9
0.086, 4.631e-9
0.085, 5.153e-9
0.084, 5.543e-9
0.083, 6.016e-9
0.082, 6.481e-9
0.081, 6.869e-9
0.080, 7.394e-9
0.079, 7.792e-9
0.078, 8.256e-9
0.077, 8.733e-9
0.076, 9.135e-9
0.075, 9.633e-9
0.074, 1.002e-8
0.073, 1.047e-8
0.072, 1.090e-8
0.071, 1.128e-8
0.070, 1.176e-8
0.069, 1.212e-8
0.068, 1.256e-8
0.067, 1.295e-8
0.066, 1.330e-8
0.065, 1.376e-8
0.064, 1.407e-8
0.063, 1.447e-8
0.062, 1.483e-8
0.061, 1.512e-8
0.060, 1.553e-8
0.059, 1.579e-8
0.058, 1.615e-8
0.057, 1.646e-8
0.056, 1.669e-8
0.055, 1.706e-8
0.054, 1.725e-8
0.053, 1.755e-8
0.052, 1.782e-8
0.051, 1.799e-8
0.050, 1.830e-8
0.049, 1.843e-8
0.048, 1.865e-8
0.047, 1.886e-8
0.046, 1.896e-8
0.045, 1.920e-8
0.044, 1.929e-8
0.043, 1.944e-8
0.042, 1.958e-8
0.041, 1.963e-8
0.040, 1.981e-8
0.039, 1.985e-8
0.038, 1.995e-8
0.037, 2.002e-8
0.036, 2.003e-8
0.035, 2.014e-8
0.034, 2.012e-8
0.033, 2.016e-8
0.032, 2.020e-8
0.031, 2.015e-8
0.030, 2.021e-8
0.029, 2.014e-8
0.028, 2.015e-8
0.027, 2.014e-8
0.026, 2.006e-8
0.025, 2.009e-8
0.024, 1.997e-8
0.023, 1.994e-8
0.022, 1.989e-8
0.021, 1.977e-8
0.020, 1.978e-8
0.019, 1.962e-8
0.018, 1.958e-8
0.017, 1.950e-8
0.016, 1.935e-8
0.015, 1.933e-8
0.014, 1.916e-8
0.013, 1.909e-8
0.012, 1.901e-8
0.011, 1.883e-8
0.010, 1.879e-8
0.009, 1.861e-8
0.008, 1.852e-8
0.007, 1.842e-8
0.006, 1.823e-8
0.005, 1.820e-8
0.004, 1.801e-8
0.003, 1.790e-8
0.002, 1.780e-8
0.001, 1.761e-8
0.000, 1.760e-8
-0.001, 1.740e-8
-0.002, 1.727e-8
-0.003, 1.716e-8
-0.004, 1.697e-8
-0.005, 1.691e-8
-0.006, 1.672e-8
-0.007, 1.661e-8
-0.008, 1.650e-8
-0.009, 1.631e-8
-0.010, 1.625e-8
-0.011, 1.605e-8
-0.012, 1.596e-8
-0.013, 1.585e-8
-0.014, 1.566e-8
-0.015, 1.561e-8
-0.016, 1.542e-8
-0.017, 1.533e-8
-0.018, 1.522e-8
-0.019, 1.503e-8
-0.020, 1.500e-8
-0.021, 1.481e-8
-0.022, 1.472e-8
-0.023, 1.463e-8
-0.024, 1.445e-8
-0.025, 1.442e-8
-0.026, 1.424e-8
-0.027, 1.415e-8
-0.028, 1.407e-8
-0.029, 1.388e-8
-0.030, 1.386e-8
-0.031, 1.369e-8
-0.032, 1.360e-8
-0.033, 1.353e-8
-0.034, 1.335e-8
-0.035, 1.334e-8
-0.036, 1.318e-8
-0.037, 1.309e-8
-0.038, 1.303e-8
-0.039, 1.287e-8
-0.040, 1.285e-8
-0.041, 1.270e-8
-0.042, 1.262e-8
-0.043, 1.256e-8
-0.044, 1.240e-8
-0.045, 1.239e-8
-0.046, 1.225e-8
-0.047, 1.219e-8
-0.048, 1.213e-8
-0.049, 1.198e-8
-0.050, 1.198e-8
-0.051, 1.184e-8
-0.052, 1.178e-8
-0.053, 1.173e-8
-0.054, 1.159e-8
-0.055, 1.159e-8
-0.056, 1.145e-8
-0.057, 1.140e-8
-0.058, 1.136e-8
-0.059, 1.121e-8
-0.060, 1.123e-8
-0.061, 1.109e-8
-0.062, 1.104e-8
-0.063, 1.101e-8
-0.064, 1.087e-8
-0.065, 1.089e-8
-0.066, 1.077e-8
-0.067, 1.072e-8
-0.068, 1.069e-8
-0.069, 1.056e-8
-0.070, 1.058e-8
-0.071, 1.046e-8
-0.072, 1.042e-8
-0.073, 1.040e-8
-0.074, 1.026e-8
-0.075, 1.029e-8
-0.076, 1.018e-8
-0.077, 1.014e-8
-0.078, 1.012e-8
-0.079, 9.996e-9
-0.080, 1.002e-8
-0.081, 9.917e-9
-0.082, 9.878e-9
-0.083, 9.864e-9
-0.084, 9.745e-9
-0.085, 9.774e-9
-0.086, 9.671e-9
-0.087, 9.640e-9
-0.088, 9.627e-9
-0.089, 9.516e-9
-0.090, 9.552e-9
-0.091, 9.452e-9
-0.092, 9.422e-9
-0.093, 9.411e-9
-0.094, 9.300e-9
-0.095, 9.337e-9
-0.096, 9.239e-9
-0.097, 9.211e-9
-0.098, 9.210e-9
-0.099, 9.096e-9
-0.100, 9.139e-9
-0.101, 9.044e-9
-0.102, 9.022e-9
-0.103, 9.026e-9
-0.104, 8.910e-9
-0.105, 8.959e-9
-0.106, 8.867e-9
-0.107, 8.842e-9
-0.108, 8.849e-9
-0.109, 8.738e-9
-0.110, 8.785e-9
-0.111, 8.699e-9
-0.112, 8.673e-9
-0.113, 8.686e-9
-0.114, 8.577e-9
-0.115, 8.627e-9
-0.116, 8.543e-9
-0.117, 8.516e-9
-0.118, 8.529e-9
-0.119, 8.421e-9
-0.120, 8.472e-9
-0.121, 8.392e-9
-0.122, 8.369e-9
-0.123, 8.384e-9
-0.124, 8.285e-9
-0.125, 8.332e-9
-0.126, 8.257e-9
-0.127, 8.238e-9
-0.128, 8.256e-9
-0.129, 8.160e-9
-0.130, 8.209e-9
-0.131, 8.134e-9
-0.132, 8.117e-9
-0.133, 8.134e-9
-0.134, 8.037e-9
-0.135, 8.094e-9
-0.136, 8.017e-9
-0.137, 8.001e-9
-0.138, 8.020e-9
-0.139, 7.925e-9
-0.140, 7.983e-9
-0.141, 7.912e-9
-0.142, 7.894e-9
-0.143, 7.920e-9
-0.144, 7.820e-9
-0.145, 7.883e-9
-0.146, 7.811e-9
-0.147, 7.793e-9
-0.148, 7.824e-9
-0.149, 7.724e-9
-0.150, 7.785e-9
-0.151, 7.720e-9
-0.152, 7.704e-9
-0.153, 7.737e-9
-0.154, 7.643e-9
-0.155, 7.699e-9
-0.156, 7.638e-9
-0.157, 7.621e-9
-0.158, 7.653e-9
-0.159, 7.559e-9
-0.160, 7.621e-9
-0.161, 7.559e-9
-0.162, 7.542e-9
-0.163, 7.575e-9
-0.164, 7.486e-9
-0.165, 7.544e-9
-0.166, 7.487e-9
-0.167, 7.473e-9
-0.168, 7.506e-9
-0.169, 7.417e-9
-0.170, 7.478e-9
-0.171, 7.420e-9
-0.172, 7.409e-9
-0.173, 7.440e-9
-0.174, 7.354e-9
-0.175, 7.419e-9
-0.176, 7.360e-9
-0.177, 7.349e-9
-0.178, 7.385e-9
-0.179, 7.301e-9
-0.180, 7.369e-9
-0.181, 7.309e-9
-0.182, 7.295e-9
-0.183, 7.339e-9
-0.184, 7.249e-9
-0.185, 7.318e-9
-0.186, 7.262e-9
-0.187, 7.251e-9
-0.188, 7.295e-9
-0.189, 7.207e-9
-0.190, 7.276e-9
-0.191, 7.227e-9
-0.192, 7.212e-9
-0.193, 7.258e-9
-0.194, 7.171e-9
-0.195, 7.235e-9
-0.196, 7.191e-9
-0.197, 7.176e-9
-0.198, 7.222e-9
-0.199, 7.141e-9
