Mar. 16, 2023   09:27:24
Cyclic Voltammetry
File: c:/users/oliverrz/desktop/electrolab/data/2023_03_16\fcmeoh_macros_500_um\electrode8_cv_100mvs_500_um.bin
Data Source:  Experiment
Instrument Model:  CHI760E
Header: CV
Note: 

Init E (V) = -0.2
High E (V) = 0.3
Low E (V) = -0.2
Final E (V) = -0.2
Init P/N = P
Scan Rate (V/s) = 0.1
Segment = 3
Sample Interval (V) = 0.001
Quiet Time (sec) = 2
Sensitivity (A/V) = 1e-7

Results:

Channel 1:
Segment 1:
Ep = 0.090V
ip = -3.144e-8A
Ah = -1.948e-8C

Segment 2:
Ep = 0.026V
ip = 3.062e-8A
Ah = 1.891e-8C

Segment 3:

Potential/V, Current/A

-0.200, 4.249e-9
-0.199, 3.767e-9
-0.198, 3.535e-9
-0.197, 3.523e-9
-0.196, 3.432e-9
-0.195, 3.351e-9
-0.194, 3.370e-9
-0.193, 3.234e-9
-0.192, 3.253e-9
-0.191, 3.184e-9
-0.190, 3.110e-9
-0.189, 3.141e-9
-0.188, 3.014e-9
-0.187, 3.042e-9
-0.186, 2.978e-9
-0.185, 2.905e-9
-0.184, 2.944e-9
-0.183, 2.822e-9
-0.182, 2.848e-9
-0.181, 2.792e-9
-0.180, 2.721e-9
-0.179, 2.752e-9
-0.178, 2.639e-9
-0.177, 2.666e-9
-0.176, 2.619e-9
-0.175, 2.553e-9
-0.174, 2.591e-9
-0.173, 2.480e-9
-0.172, 2.508e-9
-0.171, 2.461e-9
-0.170, 2.396e-9
-0.169, 2.432e-9
-0.168, 2.327e-9
-0.167, 2.355e-9
-0.166, 2.307e-9
-0.165, 2.248e-9
-0.164, 2.289e-9
-0.163, 2.186e-9
-0.162, 2.216e-9
-0.161, 2.168e-9
-0.160, 2.112e-9
-0.159, 2.154e-9
-0.158, 2.046e-9
-0.157, 2.083e-9
-0.156, 2.034e-9
-0.155, 1.980e-9
-0.154, 2.022e-9
-0.153, 1.914e-9
-0.152, 1.955e-9
-0.151, 1.908e-9
-0.150, 1.853e-9
-0.149, 1.900e-9
-0.148, 1.794e-9
-0.147, 1.835e-9
-0.146, 1.791e-9
-0.145, 1.732e-9
-0.144, 1.786e-9
-0.143, 1.679e-9
-0.142, 1.717e-9
-0.141, 1.680e-9
-0.140, 1.616e-9
-0.139, 1.671e-9
-0.138, 1.569e-9
-0.137, 1.604e-9
-0.136, 1.571e-9
-0.135, 1.510e-9
-0.134, 1.562e-9
-0.133, 1.464e-9
-0.132, 1.499e-9
-0.131, 1.470e-9
-0.130, 1.410e-9
-0.129, 1.460e-9
-0.128, 1.357e-9
-0.127, 1.395e-9
-0.126, 1.363e-9
-0.125, 1.310e-9
-0.124, 1.358e-9
-0.123, 1.262e-9
-0.122, 1.301e-9
-0.121, 1.263e-9
-0.120, 1.212e-9
-0.119, 1.263e-9
-0.118, 1.166e-9
-0.117, 1.204e-9
-0.116, 1.169e-9
-0.115, 1.117e-9
-0.114, 1.170e-9
-0.113, 1.068e-9
-0.112, 1.110e-9
-0.111, 1.078e-9
-0.110, 1.020e-9
-0.109, 1.078e-9
-0.108, 9.713e-10
-0.107, 1.016e-9
-0.106, 9.818e-10
-0.105, 9.186e-10
-0.104, 9.807e-10
-0.103, 8.752e-10
-0.102, 9.112e-10
-0.101, 8.859e-10
-0.100, 8.180e-10
-0.099, 8.817e-10
-0.098, 7.771e-10
-0.097, 8.118e-10
-0.096, 7.867e-10
-0.095, 7.226e-10
-0.094, 7.757e-10
-0.093, 6.806e-10
-0.092, 7.101e-10
-0.091, 6.836e-10
-0.090, 6.174e-10
-0.089, 6.702e-10
-0.088, 5.714e-10
-0.087, 6.025e-10
-0.086, 5.727e-10
-0.085, 5.084e-10
-0.084, 5.583e-10
-0.083, 4.582e-10
-0.082, 4.868e-10
-0.081, 4.544e-10
-0.080, 3.923e-10
-0.079, 4.432e-10
-0.078, 3.366e-10
-0.077, 3.656e-10
-0.076, 3.261e-10
-0.075, 2.646e-10
-0.074, 3.123e-10
-0.073, 2.036e-10
-0.072, 2.331e-10
-0.071, 1.967e-10
-0.070, 1.263e-10
-0.069, 1.709e-10
-0.068, 6.096e-11
-0.067, 8.715e-11
-0.066, 4.826e-11
-0.065, -2.912e-11
-0.064, 1.636e-11
-0.063, -9.735e-11
-0.062, -7.815e-11
-0.061, -1.197e-10
-0.060, -2.022e-10
-0.059, -1.546e-10
-0.058, -2.751e-10
-0.057, -2.650e-10
-0.056, -3.078e-10
-0.055, -3.978e-10
-0.054, -3.625e-10
-0.053, -4.833e-10
-0.052, -4.791e-10
-0.051, -5.291e-10
-0.050, -6.209e-10
-0.049, -5.958e-10
-0.048, -7.223e-10
-0.047, -7.217e-10
-0.046, -7.806e-10
-0.045, -8.783e-10
-0.044, -8.658e-10
-0.043, -9.960e-10
-0.042, -1.008e-9
-0.041, -1.076e-9
-0.040, -1.180e-9
-0.039, -1.174e-9
-0.038, -1.322e-9
-0.037, -1.337e-9
-0.036, -1.416e-9
-0.035, -1.535e-9
-0.034, -1.537e-9
-0.033, -1.701e-9
-0.032, -1.727e-9
-0.031, -1.818e-9
-0.030, -1.955e-9
-0.029, -1.964e-9
-0.028, -2.146e-9
-0.027, -2.184e-9
-0.026, -2.294e-9
-0.025, -2.447e-9
-0.024, -2.469e-9
-0.023, -2.659e-9
-0.022, -2.726e-9
-0.021, -2.845e-9
-0.020, -3.015e-9
-0.019, -3.059e-9
-0.018, -3.273e-9
-0.017, -3.357e-9
-0.016, -3.487e-9
-0.015, -3.682e-9
-0.014, -3.751e-9
-0.013, -3.977e-9
-0.012, -4.091e-9
-0.011, -4.249e-9
-0.010, -4.462e-9
-0.009, -4.563e-9
-0.008, -4.812e-9
-0.007, -4.953e-9
-0.006, -5.137e-9
-0.005, -5.381e-9
-0.004, -5.510e-9
-0.003, -5.779e-9
-0.002, -5.950e-9
-0.001, -6.167e-9
-0.000, -6.504e-9
0.001, -6.643e-9
0.002, -6.941e-9
0.003, -7.135e-9
0.004, -7.390e-9
0.005, -7.689e-9
0.006, -7.878e-9
0.007, -8.225e-9
0.008, -8.457e-9
0.009, -8.747e-9
0.010, -9.079e-9
0.011, -9.306e-9
0.012, -9.691e-9
0.013, -9.959e-9
0.014, -1.028e-8
0.015, -1.066e-8
0.016, -1.091e-8
0.017, -1.133e-8
0.018, -1.163e-8
0.019, -1.199e-8
0.020, -1.241e-8
0.021, -1.269e-8
0.022, -1.314e-8
0.023, -1.348e-8
0.024, -1.386e-8
0.025, -1.432e-8
0.026, -1.465e-8
0.027, -1.513e-8
0.028, -1.552e-8
0.029, -1.591e-8
0.030, -1.639e-8
0.031, -1.675e-8
0.032, -1.723e-8
0.033, -1.764e-8
0.034, -1.807e-8
0.035, -1.856e-8
0.036, -1.894e-8
0.037, -1.943e-8
0.038, -1.985e-8
0.039, -2.030e-8
0.040, -2.079e-8
0.041, -2.117e-8
0.042, -2.168e-8
0.043, -2.209e-8
0.044, -2.254e-8
0.045, -2.303e-8
0.046, -2.341e-8
0.047, -2.392e-8
0.048, -2.431e-8
0.049, -2.474e-8
0.050, -2.521e-8
0.051, -2.558e-8
0.052, -2.607e-8
0.053, -2.643e-8
0.054, -2.683e-8
0.055, -2.728e-8
0.056, -2.758e-8
0.057, -2.804e-8
0.058, -2.837e-8
0.059, -2.872e-8
0.060, -2.913e-8
0.061, -2.938e-8
0.062, -2.979e-8
0.063, -3.008e-8
0.064, -3.038e-8
0.065, -3.073e-8
0.066, -3.095e-8
0.067, -3.129e-8
0.068, -3.153e-8
0.069, -3.175e-8
0.070, -3.205e-8
0.071, -3.221e-8
0.072, -3.248e-8
0.073, -3.265e-8
0.074, -3.282e-8
0.075, -3.304e-8
0.076, -3.314e-8
0.077, -3.336e-8
0.078, -3.347e-8
0.079, -3.358e-8
0.080, -3.373e-8
0.081, -3.377e-8
0.082, -3.392e-8
0.083, -3.396e-8
0.084, -3.402e-8
0.085, -3.412e-8
0.086, -3.410e-8
0.087, -3.420e-8
0.088, -3.418e-8
0.089, -3.419e-8
0.090, -3.425e-8
0.091, -3.417e-8
0.092, -3.424e-8
0.093, -3.416e-8
0.094, -3.413e-8
0.095, -3.415e-8
0.096, -3.401e-8
0.097, -3.404e-8
0.098, -3.394e-8
0.099, -3.386e-8
0.100, -3.385e-8
0.101, -3.369e-8
0.102, -3.368e-8
0.103, -3.357e-8
0.104, -3.345e-8
0.105, -3.341e-8
0.106, -3.323e-8
0.107, -3.319e-8
0.108, -3.305e-8
0.109, -3.291e-8
0.110, -3.286e-8
0.111, -3.266e-8
0.112, -3.260e-8
0.113, -3.245e-8
0.114, -3.231e-8
0.115, -3.224e-8
0.116, -3.203e-8
0.117, -3.196e-8
0.118, -3.180e-8
0.119, -3.165e-8
0.120, -3.156e-8
0.121, -3.136e-8
0.122, -3.129e-8
0.123, -3.111e-8
0.124, -3.096e-8
0.125, -3.087e-8
0.126, -3.066e-8
0.127, -3.059e-8
0.128, -3.042e-8
0.129, -3.027e-8
0.130, -3.019e-8
0.131, -2.997e-8
0.132, -2.991e-8
0.133, -2.974e-8
0.134, -2.959e-8
0.135, -2.952e-8
0.136, -2.930e-8
0.137, -2.924e-8
0.138, -2.908e-8
0.139, -2.894e-8
0.140, -2.888e-8
0.141, -2.867e-8
0.142, -2.862e-8
0.143, -2.846e-8
0.144, -2.832e-8
0.145, -2.826e-8
0.146, -2.806e-8
0.147, -2.801e-8
0.148, -2.786e-8
0.149, -2.772e-8
0.150, -2.767e-8
0.151, -2.748e-8
0.152, -2.744e-8
0.153, -2.730e-8
0.154, -2.717e-8
0.155, -2.713e-8
0.156, -2.695e-8
0.157, -2.691e-8
0.158, -2.677e-8
0.159, -2.666e-8
0.160, -2.661e-8
0.161, -2.644e-8
0.162, -2.641e-8
0.163, -2.628e-8
0.164, -2.618e-8
0.165, -2.614e-8
0.166, -2.598e-8
0.167, -2.596e-8
0.168, -2.583e-8
0.169, -2.574e-8
0.170, -2.572e-8
0.171, -2.555e-8
0.172, -2.553e-8
0.173, -2.542e-8
0.174, -2.532e-8
0.175, -2.531e-8
0.176, -2.515e-8
0.177, -2.515e-8
0.178, -2.504e-8
0.179, -2.495e-8
0.180, -2.495e-8
0.181, -2.479e-8
0.182, -2.479e-8
0.183, -2.470e-8
0.184, -2.461e-8
0.185, -2.461e-8
0.186, -2.446e-8
0.187, -2.446e-8
0.188, -2.437e-8
0.189, -2.428e-8
0.190, -2.429e-8
0.191, -2.415e-8
0.192, -2.416e-8
0.193, -2.408e-8
0.194, -2.400e-8
0.195, -2.401e-8
0.196, -2.388e-8
0.197, -2.389e-8
0.198, -2.381e-8
0.199, -2.374e-8
0.200, -2.375e-8
0.201, -2.362e-8
0.202, -2.364e-8
0.203, -2.356e-8
0.204, -2.350e-8
0.205, -2.352e-8
0.206, -2.339e-8
0.207, -2.342e-8
0.208, -2.334e-8
0.209, -2.328e-8
0.210, -2.330e-8
0.211, -2.318e-8
0.212, -2.322e-8
0.213, -2.315e-8
0.214, -2.308e-8
0.215, -2.312e-8
0.216, -2.299e-8
0.217, -2.303e-8
0.218, -2.296e-8
0.219, -2.290e-8
0.220, -2.294e-8
0.221, -2.282e-8
0.222, -2.285e-8
0.223, -2.280e-8
0.224, -2.273e-8
0.225, -2.277e-8
0.226, -2.266e-8
0.227, -2.269e-8
0.228, -2.265e-8
0.229, -2.259e-8
0.230, -2.263e-8
0.231, -2.253e-8
0.232, -2.257e-8
0.233, -2.252e-8
0.234, -2.247e-8
0.235, -2.251e-8
0.236, -2.241e-8
0.237, -2.245e-8
0.238, -2.240e-8
0.239, -2.236e-8
0.240, -2.240e-8
0.241, -2.230e-8
0.242, -2.234e-8
0.243, -2.229e-8
0.244, -2.226e-8
0.245, -2.230e-8
0.246, -2.220e-8
0.247, -2.225e-8
0.248, -2.221e-8
0.249, -2.217e-8
0.250, -2.223e-8
0.251, -2.213e-8
0.252, -2.218e-8
0.253, -2.213e-8
0.254, -2.209e-8
0.255, -2.215e-8
0.256, -2.206e-8
0.257, -2.211e-8
0.258, -2.208e-8
0.259, -2.204e-8
0.260, -2.210e-8
0.261, -2.200e-8
0.262, -2.206e-8
0.263, -2.203e-8
0.264, -2.198e-8
0.265, -2.204e-8
0.266, -2.195e-8
0.267, -2.200e-8
0.268, -2.198e-8
0.269, -2.194e-8
0.270, -2.201e-8
0.271, -2.192e-8
0.272, -2.197e-8
0.273, -2.195e-8
0.274, -2.191e-8
0.275, -2.198e-8
0.276, -2.190e-8
0.277, -2.196e-8
0.278, -2.194e-8
0.279, -2.191e-8
0.280, -2.198e-8
0.281, -2.190e-8
0.282, -2.197e-8
0.283, -2.194e-8
0.284, -2.191e-8
0.285, -2.198e-8
0.286, -2.190e-8
0.287, -2.196e-8
0.288, -2.195e-8
0.289, -2.192e-8
0.290, -2.200e-8
0.291, -2.191e-8
0.292, -2.199e-8
0.293, -2.197e-8
0.294, -2.195e-8
0.295, -2.203e-8
0.296, -2.193e-8
0.297, -2.200e-8
0.298, -2.199e-8
0.299, -2.197e-8
0.300, -2.129e-8
0.299, -1.987e-8
0.298, -1.948e-8
0.297, -1.922e-8
0.296, -1.901e-8
0.295, -1.892e-8
0.294, -1.870e-8
0.293, -1.864e-8
0.292, -1.851e-8
0.291, -1.838e-8
0.290, -1.835e-8
0.289, -1.818e-8
0.288, -1.815e-8
0.287, -1.805e-8
0.286, -1.794e-8
0.285, -1.794e-8
0.284, -1.778e-8
0.283, -1.778e-8
0.282, -1.768e-8
0.281, -1.758e-8
0.280, -1.759e-8
0.279, -1.744e-8
0.278, -1.744e-8
0.277, -1.737e-8
0.276, -1.728e-8
0.275, -1.731e-8
0.274, -1.717e-8
0.273, -1.717e-8
0.272, -1.711e-8
0.271, -1.702e-8
0.270, -1.705e-8
0.269, -1.692e-8
0.268, -1.692e-8
0.267, -1.687e-8
0.266, -1.679e-8
0.265, -1.681e-8
0.264, -1.670e-8
0.263, -1.670e-8
0.262, -1.666e-8
0.261, -1.658e-8
0.260, -1.660e-8
0.259, -1.649e-8
0.258, -1.650e-8
0.257, -1.645e-8
0.256, -1.638e-8
0.255, -1.641e-8
0.254, -1.629e-8
0.253, -1.631e-8
0.252, -1.626e-8
0.251, -1.620e-8
0.250, -1.623e-8
0.249, -1.612e-8
0.248, -1.614e-8
0.247, -1.610e-8
0.246, -1.603e-8
0.245, -1.607e-8
0.244, -1.595e-8
0.243, -1.598e-8
0.242, -1.593e-8
0.241, -1.586e-8
0.240, -1.590e-8
0.239, -1.579e-8
0.238, -1.581e-8
0.237, -1.577e-8
0.236, -1.570e-8
0.235, -1.575e-8
0.234, -1.563e-8
0.233, -1.566e-8
0.232, -1.562e-8
0.231, -1.554e-8
0.230, -1.559e-8
0.229, -1.548e-8
0.228, -1.550e-8
0.227, -1.547e-8
0.226, -1.539e-8
0.225, -1.544e-8
0.224, -1.533e-8
0.223, -1.535e-8
0.222, -1.532e-8
0.221, -1.525e-8
0.220, -1.529e-8
0.219, -1.519e-8
0.218, -1.520e-8
0.217, -1.517e-8
0.216, -1.510e-8
0.215, -1.514e-8
0.214, -1.503e-8
0.213, -1.505e-8
0.212, -1.501e-8
0.211, -1.495e-8
0.210, -1.499e-8
0.209, -1.488e-8
0.208, -1.491e-8
0.207, -1.487e-8
0.206, -1.479e-8
0.205, -1.484e-8
0.204, -1.473e-8
0.203, -1.475e-8
0.202, -1.471e-8
0.201, -1.464e-8
0.200, -1.468e-8
0.199, -1.457e-8
0.198, -1.459e-8
0.197, -1.455e-8
0.196, -1.447e-8
0.195, -1.452e-8
0.194, -1.440e-8
0.193, -1.442e-8
0.192, -1.438e-8
0.191, -1.430e-8
0.190, -1.434e-8
0.189, -1.423e-8
0.188, -1.424e-8
0.187, -1.421e-8
0.186, -1.412e-8
0.185, -1.416e-8
0.184, -1.404e-8
0.183, -1.405e-8
0.182, -1.401e-8
0.181, -1.392e-8
0.180, -1.395e-8
0.179, -1.383e-8
0.178, -1.383e-8
0.177, -1.379e-8
0.176, -1.370e-8
0.175, -1.373e-8
0.174, -1.361e-8
0.173, -1.361e-8
0.172, -1.355e-8
0.171, -1.346e-8
0.170, -1.348e-8
0.169, -1.336e-8
0.168, -1.335e-8
0.167, -1.329e-8
0.166, -1.319e-8
0.165, -1.321e-8
0.164, -1.307e-8
0.163, -1.306e-8
0.162, -1.300e-8
0.161, -1.288e-8
0.160, -1.290e-8
0.159, -1.275e-8
0.158, -1.273e-8
0.157, -1.266e-8
0.156, -1.254e-8
0.155, -1.254e-8
0.154, -1.238e-8
0.153, -1.235e-8
0.152, -1.227e-8
0.151, -1.213e-8
0.150, -1.213e-8
0.149, -1.197e-8
0.148, -1.192e-8
0.147, -1.184e-8
0.146, -1.168e-8
0.145, -1.166e-8
0.144, -1.148e-8
0.143, -1.142e-8
0.142, -1.132e-8
0.141, -1.115e-8
0.140, -1.111e-8
0.139, -1.092e-8
0.138, -1.084e-8
0.137, -1.072e-8
0.136, -1.054e-8
0.135, -1.048e-8
0.134, -1.027e-8
0.133, -1.017e-8
0.132, -1.003e-8
0.131, -9.833e-9
0.130, -9.749e-9
0.129, -9.514e-9
0.128, -9.387e-9
0.127, -9.218e-9
0.126, -9.005e-9
0.125, -8.900e-9
0.124, -8.638e-9
0.123, -8.492e-9
0.122, -8.302e-9
0.121, -8.053e-9
0.120, -7.919e-9
0.119, -7.627e-9
0.118, -7.457e-9
0.117, -7.230e-9
0.116, -6.945e-9
0.115, -6.781e-9
0.114, -6.462e-9
0.113, -6.253e-9
0.112, -6.004e-9
0.111, -5.681e-9
0.110, -5.495e-9
0.109, -5.148e-9
0.108, -4.894e-9
0.107, -4.622e-9
0.106, -4.266e-9
0.105, -4.038e-9
0.104, -3.655e-9
0.103, -3.366e-9
0.102, -3.049e-9
0.101, -2.670e-9
0.100, -2.401e-9
0.099, -1.994e-9
0.098, -1.668e-9
0.097, -1.328e-9
0.096, -9.145e-10
0.095, -6.053e-10
0.094, -1.681e-10
0.093, 1.905e-10
0.092, 5.798e-10
0.091, 1.034e-9
0.090, 1.374e-9
0.089, 1.852e-9
0.088, 2.229e-9
0.087, 2.644e-9
0.086, 3.109e-9
0.085, 3.466e-9
0.084, 3.977e-9
0.083, 4.364e-9
0.082, 4.805e-9
0.081, 5.298e-9
0.080, 5.664e-9
0.079, 6.193e-9
0.078, 6.600e-9
0.077, 7.045e-9
0.076, 7.560e-9
0.075, 7.924e-9
0.074, 8.454e-9
0.073, 8.869e-9
0.072, 9.294e-9
0.071, 9.813e-9
0.070, 1.017e-8
0.069, 1.068e-8
0.068, 1.110e-8
0.067, 1.150e-8
0.066, 1.199e-8
0.065, 1.234e-8
0.064, 1.282e-8
0.063, 1.323e-8
0.062, 1.358e-8
0.061, 1.405e-8
0.060, 1.437e-8
0.059, 1.480e-8
0.058, 1.516e-8
0.057, 1.550e-8
0.056, 1.590e-8
0.055, 1.620e-8
0.054, 1.658e-8
0.053, 1.688e-8
0.052, 1.718e-8
0.051, 1.754e-8
0.050, 1.776e-8
0.049, 1.810e-8
0.048, 1.834e-8
0.047, 1.858e-8
0.046, 1.886e-8
0.045, 1.902e-8
0.044, 1.931e-8
0.043, 1.947e-8
0.042, 1.966e-8
0.041, 1.988e-8
0.040, 1.998e-8
0.039, 2.021e-8
0.038, 2.031e-8
0.037, 2.044e-8
0.036, 2.061e-8
0.035, 2.063e-8
0.034, 2.080e-8
0.033, 2.086e-8
0.032, 2.090e-8
0.031, 2.103e-8
0.030, 2.100e-8
0.029, 2.111e-8
0.028, 2.113e-8
0.027, 2.112e-8
0.026, 2.121e-8
0.025, 2.114e-8
0.024, 2.119e-8
0.023, 2.115e-8
0.022, 2.109e-8
0.021, 2.113e-8
0.020, 2.102e-8
0.019, 2.103e-8
0.018, 2.096e-8
0.017, 2.088e-8
0.016, 2.087e-8
0.015, 2.073e-8
0.014, 2.071e-8
0.013, 2.061e-8
0.012, 2.051e-8
0.011, 2.047e-8
0.010, 2.030e-8
0.009, 2.027e-8
0.008, 2.015e-8
0.007, 2.003e-8
0.006, 1.997e-8
0.005, 1.978e-8
0.004, 1.974e-8
0.003, 1.959e-8
0.002, 1.945e-8
0.001, 1.940e-8
0.000, 1.926e-8
-0.001, 1.919e-8
-0.002, 1.901e-8
-0.003, 1.886e-8
-0.004, 1.879e-8
-0.005, 1.858e-8
-0.006, 1.852e-8
-0.007, 1.836e-8
-0.008, 1.821e-8
-0.009, 1.814e-8
-0.010, 1.793e-8
-0.011, 1.787e-8
-0.012, 1.772e-8
-0.013, 1.756e-8
-0.014, 1.750e-8
-0.015, 1.729e-8
-0.016, 1.722e-8
-0.017, 1.707e-8
-0.018, 1.692e-8
-0.019, 1.686e-8
-0.020, 1.666e-8
-0.021, 1.659e-8
-0.022, 1.645e-8
-0.023, 1.629e-8
-0.024, 1.623e-8
-0.025, 1.604e-8
-0.026, 1.599e-8
-0.027, 1.584e-8
-0.028, 1.570e-8
-0.029, 1.565e-8
-0.030, 1.546e-8
-0.031, 1.541e-8
-0.032, 1.527e-8
-0.033, 1.514e-8
-0.034, 1.509e-8
-0.035, 1.490e-8
-0.036, 1.487e-8
-0.037, 1.474e-8
-0.038, 1.461e-8
-0.039, 1.457e-8
-0.040, 1.439e-8
-0.041, 1.436e-8
-0.042, 1.423e-8
-0.043, 1.412e-8
-0.044, 1.409e-8
-0.045, 1.391e-8
-0.046, 1.388e-8
-0.047, 1.377e-8
-0.048, 1.365e-8
-0.049, 1.364e-8
-0.050, 1.347e-8
-0.051, 1.345e-8
-0.052, 1.334e-8
-0.053, 1.323e-8
-0.054, 1.322e-8
-0.055, 1.306e-8
-0.056, 1.304e-8
-0.057, 1.294e-8
-0.058, 1.283e-8
-0.059, 1.283e-8
-0.060, 1.268e-8
-0.061, 1.266e-8
-0.062, 1.257e-8
-0.063, 1.247e-8
-0.064, 1.247e-8
-0.065, 1.233e-8
-0.066, 1.232e-8
-0.067, 1.224e-8
-0.068, 1.215e-8
-0.069, 1.215e-8
-0.070, 1.201e-8
-0.071, 1.201e-8
-0.072, 1.193e-8
-0.073, 1.185e-8
-0.074, 1.185e-8
-0.075, 1.171e-8
-0.076, 1.172e-8
-0.077, 1.165e-8
-0.078, 1.156e-8
-0.079, 1.158e-8
-0.080, 1.144e-8
-0.081, 1.145e-8
-0.082, 1.138e-8
-0.083, 1.130e-8
-0.084, 1.132e-8
-0.085, 1.119e-8
-0.086, 1.121e-8
-0.087, 1.114e-8
-0.088, 1.106e-8
-0.089, 1.110e-8
-0.090, 1.097e-8
-0.091, 1.098e-8
-0.092, 1.093e-8
-0.093, 1.085e-8
-0.094, 1.089e-8
-0.095, 1.077e-8
-0.096, 1.078e-8
-0.097, 1.073e-8
-0.098, 1.066e-8
-0.099, 1.070e-8
-0.100, 1.058e-8
-0.101, 1.060e-8
-0.102, 1.056e-8
-0.103, 1.049e-8
-0.104, 1.053e-8
-0.105, 1.042e-8
-0.106, 1.044e-8
-0.107, 1.040e-8
-0.108, 1.033e-8
-0.109, 1.037e-8
-0.110, 1.027e-8
-0.111, 1.030e-8
-0.112, 1.025e-8
-0.113, 1.019e-8
-0.114, 1.024e-8
-0.115, 1.013e-8
-0.116, 1.017e-8
-0.117, 1.012e-8
-0.118, 1.007e-8
-0.119, 1.011e-8
-0.120, 1.001e-8
-0.121, 1.005e-8
-0.122, 1.001e-8
-0.123, 9.954e-9
-0.124, 1.001e-8
-0.125, 9.905e-9
-0.126, 9.949e-9
-0.127, 9.917e-9
-0.128, 9.863e-9
-0.129, 9.919e-9
-0.130, 9.818e-9
-0.131, 9.862e-9
-0.132, 9.835e-9
-0.133, 9.777e-9
-0.134, 9.837e-9
-0.135, 9.743e-9
-0.136, 9.786e-9
-0.137, 9.763e-9
-0.138, 9.709e-9
-0.139, 9.771e-9
-0.140, 9.683e-9
-0.141, 9.728e-9
-0.142, 9.706e-9
-0.143, 9.657e-9
-0.144, 9.716e-9
-0.145, 9.634e-9
-0.146, 9.682e-9
-0.147, 9.659e-9
-0.148, 9.614e-9
-0.149, 9.674e-9
-0.150, 9.595e-9
-0.151, 9.641e-9
-0.152, 9.627e-9
-0.153, 9.588e-9
-0.154, 9.655e-9
-0.155, 9.573e-9
-0.156, 9.626e-9
-0.157, 9.608e-9
-0.158, 9.571e-9
-0.159, 9.642e-9
-0.160, 9.562e-9
-0.161, 9.619e-9
-0.162, 9.605e-9
-0.163, 9.565e-9
-0.164, 9.642e-9
-0.165, 9.560e-9
-0.166, 9.616e-9
-0.167, 9.613e-9
-0.168, 9.570e-9
-0.169, 9.652e-9
-0.170, 9.571e-9
-0.171, 9.628e-9
-0.172, 9.629e-9
-0.173, 9.589e-9
-0.174, 9.671e-9
-0.175, 9.600e-9
-0.176, 9.660e-9
-0.177, 9.663e-9
-0.178, 9.622e-9
-0.179, 9.710e-9
-0.180, 9.647e-9
-0.181, 9.699e-9
-0.182, 9.707e-9
-0.183, 9.671e-9
-0.184, 9.758e-9
-0.185, 9.691e-9
-0.186, 9.754e-9
-0.187, 9.762e-9
-0.188, 9.737e-9
-0.189, 9.821e-9
-0.190, 9.762e-9
-0.191, 9.826e-9
-0.192, 9.835e-9
-0.193, 9.809e-9
-0.194, 9.898e-9
-0.195, 9.834e-9
-0.196, 9.908e-9
-0.197, 9.917e-9
-0.198, 9.892e-9
-0.199, 9.992e-9
