Mar. 16, 2023   09:19:59
Cyclic Voltammetry
File: c:/users/oliverrz/desktop/electrolab/data/2023_03_16\fcmeoh_macros_500_um\electrode2_cv_250mvs_500_um.bin
Data Source:  Experiment
Instrument Model:  CHI760E
Header: CV
Note: 

Init E (V) = -0.2
High E (V) = 0.3
Low E (V) = -0.2
Final E (V) = -0.2
Init P/N = P
Scan Rate (V/s) = 0.25
Segment = 3
Sample Interval (V) = 0.001
Quiet Time (sec) = 2
Sensitivity (A/V) = 1e-7

Results:

Channel 1:
Segment 1:
Ep = 0.089V
ip = -4.761e-8A
Ah = -1.183e-8C

Segment 2:
Ep = 0.026V
ip = 4.577e-8A
Ah = 1.138e-8C

Segment 3:

Potential/V, Current/A

-0.200, 5.022e-9
-0.199, 3.237e-9
-0.198, 2.991e-9
-0.197, 3.053e-9
-0.196, 2.837e-9
-0.195, 2.591e-9
-0.194, 2.406e-9
-0.193, 2.499e-9
-0.192, 2.437e-9
-0.191, 2.222e-9
-0.190, 2.037e-9
-0.189, 2.130e-9
-0.188, 2.160e-9
-0.187, 1.945e-9
-0.186, 1.760e-9
-0.185, 1.853e-9
-0.184, 1.883e-9
-0.183, 1.699e-9
-0.182, 1.484e-9
-0.181, 1.576e-9
-0.180, 1.668e-9
-0.179, 1.514e-9
-0.178, 1.299e-9
-0.177, 1.268e-9
-0.176, 1.453e-9
-0.175, 1.330e-9
-0.174, 1.084e-9
-0.173, 1.084e-9
-0.172, 1.207e-9
-0.171, 1.176e-9
-0.170, 9.298e-10
-0.169, 8.375e-10
-0.168, 1.022e-9
-0.167, 9.605e-10
-0.166, 7.759e-10
-0.165, 6.836e-10
-0.164, 7.452e-10
-0.163, 8.682e-10
-0.162, 6.221e-10
-0.161, 4.683e-10
-0.160, 5.913e-10
-0.159, 6.529e-10
-0.158, 4.991e-10
-0.157, 3.145e-10
-0.156, 3.760e-10
-0.155, 5.298e-10
-0.154, 3.760e-10
-0.153, 1.606e-10
-0.152, 1.914e-10
-0.151, 3.452e-10
-0.150, 2.529e-10
-0.149, 3.758e-11
-0.148, 6.813e-12
-0.147, 1.914e-10
-0.146, 1.299e-10
-0.145, -8.548e-11
-0.144, -1.470e-10
-0.143, 6.813e-12
-0.142, 6.813e-12
-0.141, -1.778e-10
-0.140, -3.008e-10
-0.139, -1.778e-10
-0.138, -8.548e-11
-0.137, -3.008e-10
-0.136, -4.239e-10
-0.135, -3.316e-10
-0.134, -2.393e-10
-0.133, -3.316e-10
-0.132, -5.777e-10
-0.131, -4.854e-10
-0.130, -3.316e-10
-0.129, -4.854e-10
-0.128, -6.700e-10
-0.127, -6.700e-10
-0.126, -4.854e-10
-0.125, -5.470e-10
-0.124, -8.238e-10
-0.123, -7.623e-10
-0.122, -6.393e-10
-0.121, -6.700e-10
-0.120, -8.546e-10
-0.119, -9.469e-10
-0.118, -7.623e-10
-0.117, -7.623e-10
-0.116, -9.777e-10
-0.115, -1.070e-9
-0.114, -9.469e-10
-0.113, -8.546e-10
-0.112, -1.039e-9
-0.111, -1.193e-9
-0.110, -1.070e-9
-0.109, -9.777e-10
-0.108, -1.131e-9
-0.107, -1.316e-9
-0.106, -1.224e-9
-0.105, -1.101e-9
-0.104, -1.224e-9
-0.103, -1.408e-9
-0.102, -1.408e-9
-0.101, -1.193e-9
-0.100, -1.316e-9
-0.099, -1.531e-9
-0.098, -1.501e-9
-0.097, -1.378e-9
-0.096, -1.378e-9
-0.095, -1.624e-9
-0.094, -1.685e-9
-0.093, -1.470e-9
-0.092, -1.531e-9
-0.091, -1.716e-9
-0.090, -1.808e-9
-0.089, -1.685e-9
-0.088, -1.593e-9
-0.087, -1.808e-9
-0.086, -1.962e-9
-0.085, -1.808e-9
-0.084, -1.778e-9
-0.083, -1.901e-9
-0.082, -2.085e-9
-0.081, -2.024e-9
-0.080, -1.870e-9
-0.079, -2.054e-9
-0.078, -2.239e-9
-0.077, -2.208e-9
-0.076, -2.054e-9
-0.075, -2.147e-9
-0.074, -2.393e-9
-0.073, -2.393e-9
-0.072, -2.208e-9
-0.071, -2.301e-9
-0.070, -2.485e-9
-0.069, -2.608e-9
-0.068, -2.424e-9
-0.067, -2.454e-9
-0.066, -2.670e-9
-0.065, -2.793e-9
-0.064, -2.670e-9
-0.063, -2.608e-9
-0.062, -2.854e-9
-0.061, -3.008e-9
-0.060, -2.916e-9
-0.059, -2.854e-9
-0.058, -3.008e-9
-0.057, -3.254e-9
-0.056, -3.162e-9
-0.055, -3.100e-9
-0.054, -3.285e-9
-0.053, -3.470e-9
-0.052, -3.531e-9
-0.051, -3.347e-9
-0.050, -3.500e-9
-0.049, -3.808e-9
-0.048, -3.777e-9
-0.047, -3.685e-9
-0.046, -3.777e-9
-0.045, -4.054e-9
-0.044, -4.208e-9
-0.043, -4.054e-9
-0.042, -4.146e-9
-0.041, -4.423e-9
-0.040, -4.546e-9
-0.039, -4.516e-9
-0.038, -4.546e-9
-0.037, -4.762e-9
-0.036, -5.039e-9
-0.035, -4.946e-9
-0.034, -5.008e-9
-0.033, -5.223e-9
-0.032, -5.500e-9
-0.031, -5.531e-9
-0.030, -5.500e-9
-0.029, -5.746e-9
-0.028, -6.085e-9
-0.027, -6.146e-9
-0.026, -6.115e-9
-0.025, -6.392e-9
-0.024, -6.669e-9
-0.023, -6.854e-9
-0.022, -6.823e-9
-0.021, -7.008e-9
-0.020, -7.408e-9
-0.019, -7.623e-9
-0.018, -7.623e-9
-0.017, -7.838e-9
-0.016, -8.177e-9
-0.015, -8.515e-9
-0.014, -8.546e-9
-0.013, -8.669e-9
-0.012, -9.130e-9
-0.011, -9.438e-9
-0.010, -9.561e-9
-0.009, -9.746e-9
-0.008, -1.011e-8
-0.007, -1.058e-8
-0.006, -1.076e-8
-0.005, -1.088e-8
-0.004, -1.131e-8
-0.003, -1.175e-8
-0.002, -1.205e-8
-0.001, -1.221e-8
-0.000, -1.282e-8
0.001, -1.325e-8
0.002, -1.353e-8
0.003, -1.368e-8
0.004, -1.418e-8
0.005, -1.470e-8
0.006, -1.516e-8
0.007, -1.538e-8
0.008, -1.578e-8
0.009, -1.639e-8
0.010, -1.691e-8
0.011, -1.722e-8
0.012, -1.762e-8
0.013, -1.824e-8
0.014, -1.885e-8
0.015, -1.922e-8
0.016, -1.962e-8
0.017, -2.030e-8
0.018, -2.094e-8
0.019, -2.141e-8
0.020, -2.184e-8
0.021, -2.251e-8
0.022, -2.322e-8
0.023, -2.377e-8
0.024, -2.414e-8
0.025, -2.488e-8
0.026, -2.568e-8
0.027, -2.624e-8
0.028, -2.673e-8
0.029, -2.734e-8
0.030, -2.820e-8
0.031, -2.888e-8
0.032, -2.928e-8
0.033, -3.002e-8
0.034, -3.082e-8
0.035, -3.153e-8
0.036, -3.211e-8
0.037, -3.267e-8
0.038, -3.356e-8
0.039, -3.433e-8
0.040, -3.482e-8
0.041, -3.550e-8
0.042, -3.620e-8
0.043, -3.703e-8
0.044, -3.765e-8
0.045, -3.814e-8
0.046, -3.894e-8
0.047, -3.977e-8
0.048, -4.030e-8
0.049, -4.085e-8
0.050, -4.153e-8
0.051, -4.233e-8
0.052, -4.294e-8
0.053, -4.331e-8
0.054, -4.402e-8
0.055, -4.476e-8
0.056, -4.528e-8
0.057, -4.577e-8
0.058, -4.626e-8
0.059, -4.694e-8
0.060, -4.753e-8
0.061, -4.783e-8
0.062, -4.833e-8
0.063, -4.888e-8
0.064, -4.946e-8
0.065, -4.977e-8
0.066, -5.005e-8
0.067, -5.054e-8
0.068, -5.106e-8
0.069, -5.131e-8
0.070, -5.146e-8
0.071, -5.192e-8
0.072, -5.229e-8
0.073, -5.260e-8
0.074, -5.263e-8
0.075, -5.294e-8
0.076, -5.334e-8
0.077, -5.346e-8
0.078, -5.346e-8
0.079, -5.371e-8
0.080, -5.392e-8
0.081, -5.411e-8
0.082, -5.399e-8
0.083, -5.411e-8
0.084, -5.432e-8
0.085, -5.442e-8
0.086, -5.426e-8
0.087, -5.423e-8
0.088, -5.432e-8
0.089, -5.448e-8
0.090, -5.426e-8
0.091, -5.411e-8
0.092, -5.420e-8
0.093, -5.423e-8
0.094, -5.408e-8
0.095, -5.383e-8
0.096, -5.377e-8
0.097, -5.386e-8
0.098, -5.362e-8
0.099, -5.331e-8
0.100, -5.328e-8
0.101, -5.325e-8
0.102, -5.309e-8
0.103, -5.269e-8
0.104, -5.254e-8
0.105, -5.254e-8
0.106, -5.236e-8
0.107, -5.189e-8
0.108, -5.174e-8
0.109, -5.168e-8
0.110, -5.149e-8
0.111, -5.112e-8
0.112, -5.082e-8
0.113, -5.076e-8
0.114, -5.066e-8
0.115, -5.023e-8
0.116, -4.992e-8
0.117, -4.977e-8
0.118, -4.968e-8
0.119, -4.937e-8
0.120, -4.891e-8
0.121, -4.885e-8
0.122, -4.873e-8
0.123, -4.836e-8
0.124, -4.802e-8
0.125, -4.777e-8
0.126, -4.774e-8
0.127, -4.749e-8
0.128, -4.700e-8
0.129, -4.688e-8
0.130, -4.676e-8
0.131, -4.651e-8
0.132, -4.611e-8
0.133, -4.583e-8
0.134, -4.580e-8
0.135, -4.562e-8
0.136, -4.516e-8
0.137, -4.494e-8
0.138, -4.482e-8
0.139, -4.469e-8
0.140, -4.436e-8
0.141, -4.399e-8
0.142, -4.393e-8
0.143, -4.383e-8
0.144, -4.350e-8
0.145, -4.313e-8
0.146, -4.306e-8
0.147, -4.297e-8
0.148, -4.273e-8
0.149, -4.236e-8
0.150, -4.217e-8
0.151, -4.217e-8
0.152, -4.196e-8
0.153, -4.156e-8
0.154, -4.143e-8
0.155, -4.137e-8
0.156, -4.125e-8
0.157, -4.082e-8
0.158, -4.066e-8
0.159, -4.070e-8
0.160, -4.051e-8
0.161, -4.020e-8
0.162, -3.996e-8
0.163, -3.993e-8
0.164, -3.993e-8
0.165, -3.953e-8
0.166, -3.928e-8
0.167, -3.928e-8
0.168, -3.925e-8
0.169, -3.900e-8
0.170, -3.866e-8
0.171, -3.863e-8
0.172, -3.866e-8
0.173, -3.842e-8
0.174, -3.811e-8
0.175, -3.805e-8
0.176, -3.808e-8
0.177, -3.793e-8
0.178, -3.756e-8
0.179, -3.753e-8
0.180, -3.756e-8
0.181, -3.743e-8
0.182, -3.710e-8
0.183, -3.700e-8
0.184, -3.703e-8
0.185, -3.697e-8
0.186, -3.667e-8
0.187, -3.648e-8
0.188, -3.657e-8
0.189, -3.654e-8
0.190, -3.627e-8
0.191, -3.608e-8
0.192, -3.608e-8
0.193, -3.614e-8
0.194, -3.593e-8
0.195, -3.562e-8
0.196, -3.571e-8
0.197, -3.574e-8
0.198, -3.559e-8
0.199, -3.531e-8
0.200, -3.528e-8
0.201, -3.540e-8
0.202, -3.525e-8
0.203, -3.497e-8
0.204, -3.497e-8
0.205, -3.503e-8
0.206, -3.497e-8
0.207, -3.470e-8
0.208, -3.460e-8
0.209, -3.473e-8
0.210, -3.470e-8
0.211, -3.442e-8
0.212, -3.433e-8
0.213, -3.442e-8
0.214, -3.442e-8
0.215, -3.420e-8
0.216, -3.402e-8
0.217, -3.411e-8
0.218, -3.420e-8
0.219, -3.399e-8
0.220, -3.380e-8
0.221, -3.387e-8
0.222, -3.396e-8
0.223, -3.383e-8
0.224, -3.359e-8
0.225, -3.362e-8
0.226, -3.377e-8
0.227, -3.365e-8
0.228, -3.343e-8
0.229, -3.343e-8
0.230, -3.356e-8
0.231, -3.353e-8
0.232, -3.328e-8
0.233, -3.322e-8
0.234, -3.340e-8
0.235, -3.337e-8
0.236, -3.319e-8
0.237, -3.307e-8
0.238, -3.319e-8
0.239, -3.328e-8
0.240, -3.307e-8
0.241, -3.294e-8
0.242, -3.307e-8
0.243, -3.316e-8
0.244, -3.300e-8
0.245, -3.282e-8
0.246, -3.291e-8
0.247, -3.307e-8
0.248, -3.294e-8
0.249, -3.276e-8
0.250, -3.282e-8
0.251, -3.291e-8
0.252, -3.294e-8
0.253, -3.267e-8
0.254, -3.270e-8
0.255, -3.291e-8
0.256, -3.285e-8
0.257, -3.270e-8
0.258, -3.263e-8
0.259, -3.279e-8
0.260, -3.285e-8
0.261, -3.263e-8
0.262, -3.260e-8
0.263, -3.276e-8
0.264, -3.282e-8
0.265, -3.267e-8
0.266, -3.257e-8
0.267, -3.270e-8
0.268, -3.285e-8
0.269, -3.273e-8
0.270, -3.254e-8
0.271, -3.267e-8
0.272, -3.282e-8
0.273, -3.276e-8
0.274, -3.260e-8
0.275, -3.267e-8
0.276, -3.285e-8
0.277, -3.282e-8
0.278, -3.260e-8
0.279, -3.270e-8
0.280, -3.285e-8
0.281, -3.288e-8
0.282, -3.270e-8
0.283, -3.270e-8
0.284, -3.291e-8
0.285, -3.294e-8
0.286, -3.276e-8
0.287, -3.279e-8
0.288, -3.288e-8
0.289, -3.307e-8
0.290, -3.291e-8
0.291, -3.279e-8
0.292, -3.303e-8
0.293, -3.310e-8
0.294, -3.303e-8
0.295, -3.291e-8
0.296, -3.300e-8
0.297, -3.325e-8
0.298, -3.316e-8
0.299, -3.300e-8
0.300, -3.051e-8
0.299, -2.725e-8
0.298, -2.651e-8
0.297, -2.581e-8
0.296, -2.550e-8
0.295, -2.531e-8
0.294, -2.501e-8
0.293, -2.454e-8
0.292, -2.424e-8
0.291, -2.424e-8
0.290, -2.402e-8
0.289, -2.362e-8
0.288, -2.344e-8
0.287, -2.334e-8
0.286, -2.328e-8
0.285, -2.294e-8
0.284, -2.267e-8
0.283, -2.267e-8
0.282, -2.261e-8
0.281, -2.233e-8
0.280, -2.208e-8
0.279, -2.202e-8
0.278, -2.211e-8
0.277, -2.184e-8
0.276, -2.153e-8
0.275, -2.153e-8
0.274, -2.159e-8
0.273, -2.141e-8
0.272, -2.110e-8
0.271, -2.104e-8
0.270, -2.113e-8
0.269, -2.101e-8
0.268, -2.070e-8
0.267, -2.061e-8
0.266, -2.070e-8
0.265, -2.064e-8
0.264, -2.039e-8
0.263, -2.021e-8
0.262, -2.030e-8
0.261, -2.033e-8
0.260, -2.002e-8
0.259, -1.990e-8
0.258, -1.996e-8
0.257, -1.996e-8
0.256, -1.978e-8
0.255, -1.953e-8
0.254, -1.959e-8
0.253, -1.971e-8
0.252, -1.950e-8
0.251, -1.928e-8
0.250, -1.928e-8
0.249, -1.938e-8
0.248, -1.931e-8
0.247, -1.898e-8
0.246, -1.901e-8
0.245, -1.913e-8
0.244, -1.901e-8
0.243, -1.879e-8
0.242, -1.870e-8
0.241, -1.882e-8
0.240, -1.882e-8
0.239, -1.854e-8
0.238, -1.845e-8
0.237, -1.854e-8
0.236, -1.858e-8
0.235, -1.836e-8
0.234, -1.821e-8
0.233, -1.830e-8
0.232, -1.836e-8
0.231, -1.814e-8
0.230, -1.796e-8
0.229, -1.802e-8
0.228, -1.814e-8
0.227, -1.799e-8
0.226, -1.774e-8
0.225, -1.778e-8
0.224, -1.793e-8
0.223, -1.778e-8
0.222, -1.756e-8
0.221, -1.756e-8
0.220, -1.768e-8
0.219, -1.762e-8
0.218, -1.738e-8
0.217, -1.731e-8
0.216, -1.747e-8
0.215, -1.744e-8
0.214, -1.719e-8
0.213, -1.710e-8
0.212, -1.719e-8
0.211, -1.725e-8
0.210, -1.701e-8
0.209, -1.688e-8
0.208, -1.701e-8
0.207, -1.701e-8
0.206, -1.685e-8
0.205, -1.667e-8
0.204, -1.670e-8
0.203, -1.685e-8
0.202, -1.664e-8
0.201, -1.645e-8
0.200, -1.651e-8
0.199, -1.661e-8
0.198, -1.651e-8
0.197, -1.624e-8
0.196, -1.624e-8
0.195, -1.639e-8
0.194, -1.630e-8
0.193, -1.605e-8
0.192, -1.599e-8
0.191, -1.611e-8
0.190, -1.611e-8
0.189, -1.584e-8
0.188, -1.574e-8
0.187, -1.584e-8
0.186, -1.587e-8
0.185, -1.562e-8
0.184, -1.550e-8
0.183, -1.556e-8
0.182, -1.562e-8
0.181, -1.541e-8
0.180, -1.522e-8
0.179, -1.525e-8
0.178, -1.534e-8
0.177, -1.516e-8
0.176, -1.495e-8
0.175, -1.495e-8
0.174, -1.507e-8
0.173, -1.491e-8
0.172, -1.464e-8
0.171, -1.461e-8
0.170, -1.473e-8
0.169, -1.461e-8
0.168, -1.436e-8
0.167, -1.424e-8
0.166, -1.433e-8
0.165, -1.433e-8
0.164, -1.396e-8
0.163, -1.390e-8
0.162, -1.393e-8
0.161, -1.390e-8
0.160, -1.365e-8
0.159, -1.341e-8
0.158, -1.350e-8
0.157, -1.350e-8
0.156, -1.322e-8
0.155, -1.304e-8
0.154, -1.298e-8
0.153, -1.301e-8
0.152, -1.279e-8
0.151, -1.245e-8
0.150, -1.248e-8
0.149, -1.248e-8
0.148, -1.227e-8
0.147, -1.196e-8
0.146, -1.184e-8
0.145, -1.190e-8
0.144, -1.168e-8
0.143, -1.131e-8
0.142, -1.119e-8
0.141, -1.116e-8
0.140, -1.104e-8
0.139, -1.064e-8
0.138, -1.042e-8
0.137, -1.039e-8
0.136, -1.027e-8
0.135, -9.869e-9
0.134, -9.592e-9
0.133, -9.500e-9
0.132, -9.377e-9
0.131, -9.038e-9
0.130, -8.700e-9
0.129, -8.515e-9
0.128, -8.423e-9
0.127, -8.023e-9
0.126, -7.623e-9
0.125, -7.469e-9
0.124, -7.285e-9
0.123, -6.977e-9
0.122, -6.454e-9
0.121, -6.208e-9
0.120, -6.085e-9
0.119, -5.685e-9
0.118, -5.162e-9
0.117, -4.854e-9
0.116, -4.639e-9
0.115, -4.331e-9
0.114, -3.716e-9
0.113, -3.347e-9
0.112, -3.100e-9
0.111, -2.731e-9
0.110, -2.178e-9
0.109, -1.655e-9
0.108, -1.347e-9
0.107, -1.039e-9
0.106, -4.239e-10
0.105, 1.606e-10
0.104, 5.606e-10
0.103, 9.298e-10
0.102, 1.545e-9
0.101, 2.222e-9
0.100, 2.622e-9
0.099, 2.991e-9
0.098, 3.606e-9
0.097, 4.375e-9
0.096, 4.837e-9
0.095, 5.268e-9
0.094, 5.883e-9
0.093, 6.652e-9
0.092, 7.267e-9
0.091, 7.667e-9
0.090, 8.313e-9
0.089, 9.175e-9
0.088, 9.759e-9
0.087, 1.034e-8
0.086, 1.087e-8
0.085, 1.170e-8
0.084, 1.250e-8
0.083, 1.293e-8
0.082, 1.357e-8
0.081, 1.440e-8
0.080, 1.514e-8
0.079, 1.579e-8
0.078, 1.628e-8
0.077, 1.714e-8
0.076, 1.800e-8
0.075, 1.850e-8
0.074, 1.917e-8
0.073, 1.985e-8
0.072, 2.071e-8
0.071, 2.136e-8
0.070, 2.182e-8
0.069, 2.256e-8
0.068, 2.345e-8
0.067, 2.400e-8
0.066, 2.459e-8
0.065, 2.517e-8
0.064, 2.603e-8
0.063, 2.671e-8
0.062, 2.711e-8
0.061, 2.766e-8
0.060, 2.843e-8
0.059, 2.902e-8
0.058, 2.951e-8
0.057, 2.994e-8
0.056, 3.056e-8
0.055, 3.126e-8
0.054, 3.160e-8
0.053, 3.197e-8
0.052, 3.256e-8
0.051, 3.314e-8
0.050, 3.351e-8
0.049, 3.379e-8
0.048, 3.419e-8
0.047, 3.480e-8
0.046, 3.499e-8
0.045, 3.520e-8
0.044, 3.557e-8
0.043, 3.600e-8
0.042, 3.628e-8
0.041, 3.637e-8
0.040, 3.656e-8
0.039, 3.705e-8
0.038, 3.714e-8
0.037, 3.723e-8
0.036, 3.736e-8
0.035, 3.760e-8
0.034, 3.785e-8
0.033, 3.779e-8
0.032, 3.772e-8
0.031, 3.800e-8
0.030, 3.809e-8
0.029, 3.806e-8
0.028, 3.797e-8
0.027, 3.803e-8
0.026, 3.825e-8
0.025, 3.809e-8
0.024, 3.791e-8
0.023, 3.794e-8
0.022, 3.800e-8
0.021, 3.788e-8
0.020, 3.763e-8
0.019, 3.751e-8
0.018, 3.766e-8
0.017, 3.748e-8
0.016, 3.714e-8
0.015, 3.705e-8
0.014, 3.708e-8
0.013, 3.696e-8
0.012, 3.662e-8
0.011, 3.637e-8
0.010, 3.637e-8
0.009, 3.628e-8
0.008, 3.591e-8
0.007, 3.566e-8
0.006, 3.557e-8
0.005, 3.551e-8
0.004, 3.520e-8
0.003, 3.480e-8
0.002, 3.474e-8
0.001, 3.468e-8
0.000, 3.453e-8
-0.001, 3.406e-8
-0.002, 3.388e-8
-0.003, 3.382e-8
-0.004, 3.354e-8
-0.005, 3.308e-8
-0.006, 3.296e-8
-0.007, 3.289e-8
-0.008, 3.259e-8
-0.009, 3.225e-8
-0.010, 3.197e-8
-0.011, 3.194e-8
-0.012, 3.176e-8
-0.013, 3.133e-8
-0.014, 3.111e-8
-0.015, 3.102e-8
-0.016, 3.086e-8
-0.017, 3.056e-8
-0.018, 3.019e-8
-0.019, 3.013e-8
-0.020, 3.003e-8
-0.021, 2.970e-8
-0.022, 2.936e-8
-0.023, 2.923e-8
-0.024, 2.917e-8
-0.025, 2.890e-8
-0.026, 2.853e-8
-0.027, 2.840e-8
-0.028, 2.840e-8
-0.029, 2.810e-8
-0.030, 2.776e-8
-0.031, 2.760e-8
-0.032, 2.760e-8
-0.033, 2.742e-8
-0.034, 2.702e-8
-0.035, 2.683e-8
-0.036, 2.690e-8
-0.037, 2.668e-8
-0.038, 2.637e-8
-0.039, 2.616e-8
-0.040, 2.613e-8
-0.041, 2.606e-8
-0.042, 2.573e-8
-0.043, 2.545e-8
-0.044, 2.548e-8
-0.045, 2.539e-8
-0.046, 2.514e-8
-0.047, 2.487e-8
-0.048, 2.480e-8
-0.049, 2.483e-8
-0.050, 2.456e-8
-0.051, 2.428e-8
-0.052, 2.422e-8
-0.053, 2.422e-8
-0.054, 2.407e-8
-0.055, 2.373e-8
-0.056, 2.363e-8
-0.057, 2.376e-8
-0.058, 2.354e-8
-0.059, 2.327e-8
-0.060, 2.314e-8
-0.061, 2.320e-8
-0.062, 2.311e-8
-0.063, 2.280e-8
-0.064, 2.265e-8
-0.065, 2.274e-8
-0.066, 2.268e-8
-0.067, 2.243e-8
-0.068, 2.222e-8
-0.069, 2.228e-8
-0.070, 2.228e-8
-0.071, 2.203e-8
-0.072, 2.182e-8
-0.073, 2.185e-8
-0.074, 2.191e-8
-0.075, 2.170e-8
-0.076, 2.148e-8
-0.077, 2.145e-8
-0.078, 2.154e-8
-0.079, 2.139e-8
-0.080, 2.111e-8
-0.081, 2.111e-8
-0.082, 2.120e-8
-0.083, 2.108e-8
-0.084, 2.083e-8
-0.085, 2.074e-8
-0.086, 2.090e-8
-0.087, 2.087e-8
-0.088, 2.056e-8
-0.089, 2.047e-8
-0.090, 2.059e-8
-0.091, 2.059e-8
-0.092, 2.037e-8
-0.093, 2.016e-8
-0.094, 2.031e-8
-0.095, 2.034e-8
-0.096, 2.016e-8
-0.097, 1.997e-8
-0.098, 2.000e-8
-0.099, 2.013e-8
-0.100, 1.997e-8
-0.101, 1.973e-8
-0.102, 1.982e-8
-0.103, 1.991e-8
-0.104, 1.979e-8
-0.105, 1.957e-8
-0.106, 1.957e-8
-0.107, 1.973e-8
-0.108, 1.963e-8
-0.109, 1.942e-8
-0.110, 1.936e-8
-0.111, 1.954e-8
-0.112, 1.951e-8
-0.113, 1.930e-8
-0.114, 1.920e-8
-0.115, 1.936e-8
-0.116, 1.939e-8
-0.117, 1.917e-8
-0.118, 1.905e-8
-0.119, 1.920e-8
-0.120, 1.927e-8
-0.121, 1.911e-8
-0.122, 1.893e-8
-0.123, 1.902e-8
-0.124, 1.917e-8
-0.125, 1.899e-8
-0.126, 1.884e-8
-0.127, 1.893e-8
-0.128, 1.902e-8
-0.129, 1.899e-8
-0.130, 1.874e-8
-0.131, 1.877e-8
-0.132, 1.899e-8
-0.133, 1.887e-8
-0.134, 1.871e-8
-0.135, 1.871e-8
-0.136, 1.887e-8
-0.137, 1.890e-8
-0.138, 1.865e-8
-0.139, 1.862e-8
-0.140, 1.880e-8
-0.141, 1.884e-8
-0.142, 1.868e-8
-0.143, 1.856e-8
-0.144, 1.871e-8
-0.145, 1.884e-8
-0.146, 1.868e-8
-0.147, 1.853e-8
-0.148, 1.868e-8
-0.149, 1.884e-8
-0.150, 1.871e-8
-0.151, 1.853e-8
-0.152, 1.862e-8
-0.153, 1.880e-8
-0.154, 1.874e-8
-0.155, 1.853e-8
-0.156, 1.862e-8
-0.157, 1.880e-8
-0.158, 1.874e-8
-0.159, 1.859e-8
-0.160, 1.856e-8
-0.161, 1.880e-8
-0.162, 1.880e-8
-0.163, 1.862e-8
-0.164, 1.862e-8
-0.165, 1.877e-8
-0.166, 1.887e-8
-0.167, 1.874e-8
-0.168, 1.859e-8
-0.169, 1.884e-8
-0.170, 1.890e-8
-0.171, 1.880e-8
-0.172, 1.871e-8
-0.173, 1.880e-8
-0.174, 1.902e-8
-0.175, 1.890e-8
-0.176, 1.874e-8
-0.177, 1.887e-8
-0.178, 1.902e-8
-0.179, 1.902e-8
-0.180, 1.884e-8
-0.181, 1.893e-8
-0.182, 1.914e-8
-0.183, 1.911e-8
-0.184, 1.896e-8
-0.185, 1.899e-8
-0.186, 1.920e-8
-0.187, 1.923e-8
-0.188, 1.911e-8
-0.189, 1.908e-8
-0.190, 1.930e-8
-0.191, 1.939e-8
-0.192, 1.927e-8
-0.193, 1.917e-8
-0.194, 1.939e-8
-0.195, 1.951e-8
-0.196, 1.945e-8
-0.197, 1.930e-8
-0.198, 1.948e-8
-0.199, 1.970e-8
