Mar. 16, 2023   09:19:10
Cyclic Voltammetry
File: c:/users/oliverrz/desktop/electrolab/data/2023_03_16\fcmeoh_macros_500_um\electrode2_cv_50mvs_500_um.bin
Data Source:  Experiment
Instrument Model:  CHI760E
Header: CV
Note: 

Init E (V) = -0.2
High E (V) = 0.3
Low E (V) = -0.2
Final E (V) = -0.2
Init P/N = P
Scan Rate (V/s) = 0.05
Segment = 3
Sample Interval (V) = 0.001
Quiet Time (sec) = 2
Sensitivity (A/V) = 1e-7

Results:

Channel 1:
Segment 1:
Ep = 0.097V
ip = -2.330e-8A
Ah = -2.943e-8C

Segment 2:
Ep = 0.026V
ip = 2.251e-8A
Ah = 2.924e-8C

Segment 3:

Potential/V, Current/A

-0.200, 4.383e-9
-0.199, 3.916e-9
-0.198, 3.776e-9
-0.197, 3.699e-9
-0.196, 3.633e-9
-0.195, 3.584e-9
-0.194, 3.529e-9
-0.193, 3.477e-9
-0.192, 3.428e-9
-0.191, 3.383e-9
-0.190, 3.344e-9
-0.189, 3.302e-9
-0.188, 3.256e-9
-0.187, 3.217e-9
-0.186, 3.180e-9
-0.185, 3.146e-9
-0.184, 3.110e-9
-0.183, 3.068e-9
-0.182, 3.035e-9
-0.181, 3.006e-9
-0.180, 2.970e-9
-0.179, 2.936e-9
-0.178, 2.900e-9
-0.177, 2.868e-9
-0.176, 2.842e-9
-0.175, 2.809e-9
-0.174, 2.782e-9
-0.173, 2.748e-9
-0.172, 2.717e-9
-0.171, 2.694e-9
-0.170, 2.668e-9
-0.169, 2.640e-9
-0.168, 2.611e-9
-0.167, 2.579e-9
-0.166, 2.558e-9
-0.165, 2.534e-9
-0.164, 2.507e-9
-0.163, 2.482e-9
-0.162, 2.453e-9
-0.161, 2.431e-9
-0.160, 2.410e-9
-0.159, 2.383e-9
-0.158, 2.359e-9
-0.157, 2.334e-9
-0.156, 2.313e-9
-0.155, 2.295e-9
-0.154, 2.271e-9
-0.153, 2.246e-9
-0.152, 2.227e-9
-0.151, 2.204e-9
-0.150, 2.188e-9
-0.149, 2.166e-9
-0.148, 2.139e-9
-0.147, 2.121e-9
-0.146, 2.101e-9
-0.145, 2.084e-9
-0.144, 2.064e-9
-0.143, 2.037e-9
-0.142, 2.020e-9
-0.141, 2.003e-9
-0.140, 1.985e-9
-0.139, 1.968e-9
-0.138, 1.945e-9
-0.137, 1.925e-9
-0.136, 1.912e-9
-0.135, 1.892e-9
-0.134, 1.877e-9
-0.133, 1.854e-9
-0.132, 1.836e-9
-0.131, 1.823e-9
-0.130, 1.804e-9
-0.129, 1.789e-9
-0.128, 1.769e-9
-0.127, 1.750e-9
-0.126, 1.741e-9
-0.125, 1.725e-9
-0.124, 1.707e-9
-0.123, 1.692e-9
-0.122, 1.672e-9
-0.121, 1.657e-9
-0.120, 1.647e-9
-0.119, 1.626e-9
-0.118, 1.609e-9
-0.117, 1.593e-9
-0.116, 1.579e-9
-0.115, 1.566e-9
-0.114, 1.549e-9
-0.113, 1.532e-9
-0.112, 1.516e-9
-0.111, 1.504e-9
-0.110, 1.492e-9
-0.109, 1.477e-9
-0.108, 1.457e-9
-0.107, 1.445e-9
-0.106, 1.431e-9
-0.105, 1.418e-9
-0.104, 1.404e-9
-0.103, 1.383e-9
-0.102, 1.366e-9
-0.101, 1.355e-9
-0.100, 1.341e-9
-0.099, 1.330e-9
-0.098, 1.309e-9
-0.097, 1.296e-9
-0.096, 1.285e-9
-0.095, 1.268e-9
-0.094, 1.258e-9
-0.093, 1.239e-9
-0.092, 1.224e-9
-0.091, 1.214e-9
-0.090, 1.200e-9
-0.089, 1.184e-9
-0.088, 1.166e-9
-0.087, 1.151e-9
-0.086, 1.137e-9
-0.085, 1.123e-9
-0.084, 1.106e-9
-0.083, 1.088e-9
-0.082, 1.069e-9
-0.081, 1.056e-9
-0.080, 1.044e-9
-0.079, 1.025e-9
-0.078, 1.006e-9
-0.077, 9.859e-10
-0.076, 9.707e-10
-0.075, 9.587e-10
-0.074, 9.385e-10
-0.073, 9.181e-10
-0.072, 8.995e-10
-0.071, 8.803e-10
-0.070, 8.665e-10
-0.069, 8.451e-10
-0.068, 8.181e-10
-0.067, 8.010e-10
-0.066, 7.822e-10
-0.065, 7.625e-10
-0.064, 7.408e-10
-0.063, 7.145e-10
-0.062, 6.964e-10
-0.061, 6.751e-10
-0.060, 6.515e-10
-0.059, 6.296e-10
-0.058, 5.957e-10
-0.057, 5.691e-10
-0.056, 5.467e-10
-0.055, 5.189e-10
-0.054, 4.922e-10
-0.053, 4.615e-10
-0.052, 4.324e-10
-0.051, 4.066e-10
-0.050, 3.772e-10
-0.049, 3.450e-10
-0.048, 3.120e-10
-0.047, 2.755e-10
-0.046, 2.483e-10
-0.045, 2.146e-10
-0.044, 1.757e-10
-0.043, 1.375e-10
-0.042, 9.630e-11
-0.041, 6.086e-11
-0.040, 2.453e-11
-0.039, -2.134e-11
-0.038, -6.565e-11
-0.037, -1.092e-10
-0.036, -1.533e-10
-0.035, -1.978e-10
-0.034, -2.507e-10
-0.033, -3.030e-10
-0.032, -3.531e-10
-0.031, -4.084e-10
-0.030, -4.589e-10
-0.029, -5.167e-10
-0.028, -5.801e-10
-0.027, -6.378e-10
-0.026, -7.039e-10
-0.025, -7.688e-10
-0.024, -8.364e-10
-0.023, -9.105e-10
-0.022, -9.786e-10
-0.021, -1.051e-9
-0.020, -1.124e-9
-0.019, -1.200e-9
-0.018, -1.289e-9
-0.017, -1.372e-9
-0.016, -1.454e-9
-0.015, -1.547e-9
-0.014, -1.636e-9
-0.013, -1.740e-9
-0.012, -1.843e-9
-0.011, -1.936e-9
-0.010, -2.043e-9
-0.009, -2.154e-9
-0.008, -2.268e-9
-0.007, -2.385e-9
-0.006, -2.497e-9
-0.005, -2.621e-9
-0.004, -2.750e-9
-0.003, -2.881e-9
-0.002, -3.018e-9
-0.001, -3.154e-9
-0.000, -3.335e-9
0.001, -3.478e-9
0.002, -3.616e-9
0.003, -3.770e-9
0.004, -3.926e-9
0.005, -4.088e-9
0.006, -4.265e-9
0.007, -4.439e-9
0.008, -4.618e-9
0.009, -4.807e-9
0.010, -4.986e-9
0.011, -5.184e-9
0.012, -5.388e-9
0.013, -5.595e-9
0.014, -5.805e-9
0.015, -6.019e-9
0.016, -6.238e-9
0.017, -6.474e-9
0.018, -6.699e-9
0.019, -6.935e-9
0.020, -7.179e-9
0.021, -7.430e-9
0.022, -7.688e-9
0.023, -7.939e-9
0.024, -8.206e-9
0.025, -8.477e-9
0.026, -8.753e-9
0.027, -9.036e-9
0.028, -9.316e-9
0.029, -9.592e-9
0.030, -9.886e-9
0.031, -1.018e-8
0.032, -1.048e-8
0.033, -1.079e-8
0.034, -1.109e-8
0.035, -1.140e-8
0.036, -1.171e-8
0.037, -1.202e-8
0.038, -1.235e-8
0.039, -1.267e-8
0.040, -1.299e-8
0.041, -1.332e-8
0.042, -1.364e-8
0.043, -1.397e-8
0.044, -1.431e-8
0.045, -1.463e-8
0.046, -1.497e-8
0.047, -1.530e-8
0.048, -1.563e-8
0.049, -1.596e-8
0.050, -1.628e-8
0.051, -1.662e-8
0.052, -1.694e-8
0.053, -1.726e-8
0.054, -1.758e-8
0.055, -1.789e-8
0.056, -1.820e-8
0.057, -1.851e-8
0.058, -1.880e-8
0.059, -1.910e-8
0.060, -1.939e-8
0.061, -1.967e-8
0.062, -1.996e-8
0.063, -2.023e-8
0.064, -2.050e-8
0.065, -2.077e-8
0.066, -2.101e-8
0.067, -2.127e-8
0.068, -2.150e-8
0.069, -2.173e-8
0.070, -2.196e-8
0.071, -2.216e-8
0.072, -2.237e-8
0.073, -2.258e-8
0.074, -2.276e-8
0.075, -2.294e-8
0.076, -2.313e-8
0.077, -2.330e-8
0.078, -2.346e-8
0.079, -2.360e-8
0.080, -2.373e-8
0.081, -2.387e-8
0.082, -2.399e-8
0.083, -2.411e-8
0.084, -2.420e-8
0.085, -2.429e-8
0.086, -2.439e-8
0.087, -2.447e-8
0.088, -2.454e-8
0.089, -2.461e-8
0.090, -2.466e-8
0.091, -2.471e-8
0.092, -2.476e-8
0.093, -2.479e-8
0.094, -2.482e-8
0.095, -2.484e-8
0.096, -2.485e-8
0.097, -2.487e-8
0.098, -2.487e-8
0.099, -2.487e-8
0.100, -2.486e-8
0.101, -2.485e-8
0.102, -2.484e-8
0.103, -2.482e-8
0.104, -2.479e-8
0.105, -2.476e-8
0.106, -2.472e-8
0.107, -2.469e-8
0.108, -2.465e-8
0.109, -2.459e-8
0.110, -2.455e-8
0.111, -2.450e-8
0.112, -2.444e-8
0.113, -2.439e-8
0.114, -2.432e-8
0.115, -2.426e-8
0.116, -2.421e-8
0.117, -2.414e-8
0.118, -2.407e-8
0.119, -2.400e-8
0.120, -2.393e-8
0.121, -2.386e-8
0.122, -2.379e-8
0.123, -2.371e-8
0.124, -2.364e-8
0.125, -2.356e-8
0.126, -2.349e-8
0.127, -2.342e-8
0.128, -2.334e-8
0.129, -2.327e-8
0.130, -2.319e-8
0.131, -2.311e-8
0.132, -2.304e-8
0.133, -2.296e-8
0.134, -2.288e-8
0.135, -2.280e-8
0.136, -2.273e-8
0.137, -2.266e-8
0.138, -2.257e-8
0.139, -2.250e-8
0.140, -2.242e-8
0.141, -2.235e-8
0.142, -2.228e-8
0.143, -2.220e-8
0.144, -2.213e-8
0.145, -2.206e-8
0.146, -2.199e-8
0.147, -2.192e-8
0.148, -2.185e-8
0.149, -2.178e-8
0.150, -2.171e-8
0.151, -2.164e-8
0.152, -2.158e-8
0.153, -2.152e-8
0.154, -2.145e-8
0.155, -2.139e-8
0.156, -2.133e-8
0.157, -2.127e-8
0.158, -2.121e-8
0.159, -2.114e-8
0.160, -2.108e-8
0.161, -2.103e-8
0.162, -2.098e-8
0.163, -2.091e-8
0.164, -2.086e-8
0.165, -2.080e-8
0.166, -2.075e-8
0.167, -2.070e-8
0.168, -2.065e-8
0.169, -2.059e-8
0.170, -2.054e-8
0.171, -2.049e-8
0.172, -2.045e-8
0.173, -2.039e-8
0.174, -2.035e-8
0.175, -2.030e-8
0.176, -2.026e-8
0.177, -2.022e-8
0.178, -2.017e-8
0.179, -2.013e-8
0.180, -2.008e-8
0.181, -2.004e-8
0.182, -2.000e-8
0.183, -1.996e-8
0.184, -1.992e-8
0.185, -1.988e-8
0.186, -1.984e-8
0.187, -1.981e-8
0.188, -1.977e-8
0.189, -1.973e-8
0.190, -1.970e-8
0.191, -1.967e-8
0.192, -1.964e-8
0.193, -1.960e-8
0.194, -1.957e-8
0.195, -1.954e-8
0.196, -1.951e-8
0.197, -1.948e-8
0.198, -1.945e-8
0.199, -1.942e-8
0.200, -1.939e-8
0.201, -1.937e-8
0.202, -1.934e-8
0.203, -1.931e-8
0.204, -1.928e-8
0.205, -1.926e-8
0.206, -1.923e-8
0.207, -1.921e-8
0.208, -1.919e-8
0.209, -1.917e-8
0.210, -1.915e-8
0.211, -1.913e-8
0.212, -1.911e-8
0.213, -1.909e-8
0.214, -1.907e-8
0.215, -1.904e-8
0.216, -1.903e-8
0.217, -1.901e-8
0.218, -1.899e-8
0.219, -1.897e-8
0.220, -1.895e-8
0.221, -1.894e-8
0.222, -1.893e-8
0.223, -1.891e-8
0.224, -1.889e-8
0.225, -1.887e-8
0.226, -1.886e-8
0.227, -1.885e-8
0.228, -1.883e-8
0.229, -1.882e-8
0.230, -1.880e-8
0.231, -1.879e-8
0.232, -1.878e-8
0.233, -1.877e-8
0.234, -1.875e-8
0.235, -1.875e-8
0.236, -1.874e-8
0.237, -1.873e-8
0.238, -1.872e-8
0.239, -1.870e-8
0.240, -1.869e-8
0.241, -1.868e-8
0.242, -1.867e-8
0.243, -1.866e-8
0.244, -1.866e-8
0.245, -1.865e-8
0.246, -1.865e-8
0.247, -1.864e-8
0.248, -1.863e-8
0.249, -1.862e-8
0.250, -1.861e-8
0.251, -1.861e-8
0.252, -1.861e-8
0.253, -1.860e-8
0.254, -1.859e-8
0.255, -1.859e-8
0.256, -1.859e-8
0.257, -1.859e-8
0.258, -1.858e-8
0.259, -1.858e-8
0.260, -1.858e-8
0.261, -1.857e-8
0.262, -1.858e-8
0.263, -1.857e-8
0.264, -1.857e-8
0.265, -1.857e-8
0.266, -1.857e-8
0.267, -1.857e-8
0.268, -1.857e-8
0.269, -1.857e-8
0.270, -1.857e-8
0.271, -1.857e-8
0.272, -1.857e-8
0.273, -1.857e-8
0.274, -1.857e-8
0.275, -1.857e-8
0.276, -1.858e-8
0.277, -1.858e-8
0.278, -1.858e-8
0.279, -1.858e-8
0.280, -1.858e-8
0.281, -1.859e-8
0.282, -1.859e-8
0.283, -1.859e-8
0.284, -1.859e-8
0.285, -1.860e-8
0.286, -1.861e-8
0.287, -1.861e-8
0.288, -1.862e-8
0.289, -1.862e-8
0.290, -1.862e-8
0.291, -1.863e-8
0.292, -1.864e-8
0.293, -1.864e-8
0.294, -1.864e-8
0.295, -1.865e-8
0.296, -1.866e-8
0.297, -1.867e-8
0.298, -1.867e-8
0.299, -1.868e-8
0.300, -1.834e-8
0.299, -1.732e-8
0.298, -1.694e-8
0.297, -1.672e-8
0.296, -1.655e-8
0.295, -1.640e-8
0.294, -1.627e-8
0.293, -1.616e-8
0.292, -1.605e-8
0.291, -1.595e-8
0.290, -1.585e-8
0.289, -1.577e-8
0.288, -1.569e-8
0.287, -1.561e-8
0.286, -1.554e-8
0.285, -1.547e-8
0.284, -1.541e-8
0.283, -1.535e-8
0.282, -1.528e-8
0.281, -1.522e-8
0.280, -1.516e-8
0.279, -1.510e-8
0.278, -1.505e-8
0.277, -1.499e-8
0.276, -1.494e-8
0.275, -1.490e-8
0.274, -1.485e-8
0.273, -1.481e-8
0.272, -1.476e-8
0.271, -1.472e-8
0.270, -1.468e-8
0.269, -1.464e-8
0.268, -1.460e-8
0.267, -1.456e-8
0.266, -1.451e-8
0.265, -1.448e-8
0.264, -1.445e-8
0.263, -1.441e-8
0.262, -1.437e-8
0.261, -1.434e-8
0.260, -1.430e-8
0.259, -1.428e-8
0.258, -1.424e-8
0.257, -1.421e-8
0.256, -1.418e-8
0.255, -1.414e-8
0.254, -1.412e-8
0.253, -1.408e-8
0.252, -1.405e-8
0.251, -1.402e-8
0.250, -1.399e-8
0.249, -1.397e-8
0.248, -1.394e-8
0.247, -1.391e-8
0.246, -1.388e-8
0.245, -1.386e-8
0.244, -1.383e-8
0.243, -1.381e-8
0.242, -1.378e-8
0.241, -1.375e-8
0.240, -1.373e-8
0.239, -1.370e-8
0.238, -1.368e-8
0.237, -1.365e-8
0.236, -1.362e-8
0.235, -1.360e-8
0.234, -1.358e-8
0.233, -1.356e-8
0.232, -1.353e-8
0.231, -1.350e-8
0.230, -1.348e-8
0.229, -1.346e-8
0.228, -1.344e-8
0.227, -1.341e-8
0.226, -1.338e-8
0.225, -1.337e-8
0.224, -1.335e-8
0.223, -1.332e-8
0.222, -1.330e-8
0.221, -1.327e-8
0.220, -1.325e-8
0.219, -1.323e-8
0.218, -1.320e-8
0.217, -1.318e-8
0.216, -1.315e-8
0.215, -1.313e-8
0.214, -1.311e-8
0.213, -1.309e-8
0.212, -1.306e-8
0.211, -1.304e-8
0.210, -1.301e-8
0.209, -1.299e-8
0.208, -1.297e-8
0.207, -1.294e-8
0.206, -1.291e-8
0.205, -1.289e-8
0.204, -1.286e-8
0.203, -1.284e-8
0.202, -1.281e-8
0.201, -1.278e-8
0.200, -1.276e-8
0.199, -1.273e-8
0.198, -1.271e-8
0.197, -1.267e-8
0.196, -1.264e-8
0.195, -1.262e-8
0.194, -1.259e-8
0.193, -1.257e-8
0.192, -1.254e-8
0.191, -1.250e-8
0.190, -1.248e-8
0.189, -1.245e-8
0.188, -1.243e-8
0.187, -1.239e-8
0.186, -1.236e-8
0.185, -1.233e-8
0.184, -1.230e-8
0.183, -1.227e-8
0.182, -1.223e-8
0.181, -1.219e-8
0.180, -1.216e-8
0.179, -1.213e-8
0.178, -1.209e-8
0.177, -1.206e-8
0.176, -1.201e-8
0.175, -1.198e-8
0.174, -1.195e-8
0.173, -1.190e-8
0.172, -1.186e-8
0.171, -1.182e-8
0.170, -1.177e-8
0.169, -1.174e-8
0.168, -1.169e-8
0.167, -1.164e-8
0.166, -1.159e-8
0.165, -1.154e-8
0.164, -1.150e-8
0.163, -1.145e-8
0.162, -1.139e-8
0.161, -1.134e-8
0.160, -1.129e-8
0.159, -1.124e-8
0.158, -1.118e-8
0.157, -1.112e-8
0.156, -1.105e-8
0.155, -1.099e-8
0.154, -1.093e-8
0.153, -1.086e-8
0.152, -1.079e-8
0.151, -1.072e-8
0.150, -1.065e-8
0.149, -1.058e-8
0.148, -1.050e-8
0.147, -1.042e-8
0.146, -1.033e-8
0.145, -1.026e-8
0.144, -1.017e-8
0.143, -1.008e-8
0.142, -9.994e-9
0.141, -9.895e-9
0.140, -9.801e-9
0.139, -9.709e-9
0.138, -9.605e-9
0.137, -9.501e-9
0.136, -9.391e-9
0.135, -9.279e-9
0.134, -9.176e-9
0.133, -9.053e-9
0.132, -8.929e-9
0.131, -8.806e-9
0.130, -8.675e-9
0.129, -8.550e-9
0.128, -8.412e-9
0.127, -8.270e-9
0.126, -8.129e-9
0.125, -7.977e-9
0.124, -7.832e-9
0.123, -7.677e-9
0.122, -7.512e-9
0.121, -7.353e-9
0.120, -7.175e-9
0.119, -7.002e-9
0.118, -6.829e-9
0.117, -6.636e-9
0.116, -6.449e-9
0.115, -6.255e-9
0.114, -6.058e-9
0.113, -5.860e-9
0.112, -5.647e-9
0.111, -5.435e-9
0.110, -5.225e-9
0.109, -5.004e-9
0.108, -4.782e-9
0.107, -4.548e-9
0.106, -4.306e-9
0.105, -4.069e-9
0.104, -3.819e-9
0.103, -3.565e-9
0.102, -3.309e-9
0.101, -3.040e-9
0.100, -2.781e-9
0.099, -2.516e-9
0.098, -2.231e-9
0.097, -1.959e-9
0.096, -1.669e-9
0.095, -1.378e-9
0.094, -1.095e-9
0.093, -7.879e-10
0.092, -4.860e-10
0.091, -1.806e-10
0.090, 1.355e-10
0.089, 4.446e-10
0.088, 7.673e-10
0.087, 1.093e-9
0.086, 1.401e-9
0.085, 1.739e-9
0.084, 2.058e-9
0.083, 2.377e-9
0.082, 2.717e-9
0.081, 3.037e-9
0.080, 3.369e-9
0.079, 3.702e-9
0.078, 4.027e-9
0.077, 4.372e-9
0.076, 4.703e-9
0.075, 5.022e-9
0.074, 5.349e-9
0.073, 5.664e-9
0.072, 5.996e-9
0.071, 6.320e-9
0.070, 6.623e-9
0.069, 6.937e-9
0.068, 7.245e-9
0.067, 7.553e-9
0.066, 7.860e-9
0.065, 8.153e-9
0.064, 8.450e-9
0.063, 8.742e-9
0.062, 9.014e-9
0.061, 9.293e-9
0.060, 9.555e-9
0.059, 9.811e-9
0.058, 1.007e-8
0.057, 1.031e-8
0.056, 1.055e-8
0.055, 1.078e-8
0.054, 1.099e-8
0.053, 1.121e-8
0.052, 1.142e-8
0.051, 1.162e-8
0.050, 1.181e-8
0.049, 1.198e-8
0.048, 1.216e-8
0.047, 1.231e-8
0.046, 1.246e-8
0.045, 1.261e-8
0.044, 1.274e-8
0.043, 1.287e-8
0.042, 1.300e-8
0.041, 1.310e-8
0.040, 1.321e-8
0.039, 1.330e-8
0.038, 1.339e-8
0.037, 1.348e-8
0.036, 1.355e-8
0.035, 1.360e-8
0.034, 1.366e-8
0.033, 1.371e-8
0.032, 1.375e-8
0.031, 1.379e-8
0.030, 1.381e-8
0.029, 1.384e-8
0.028, 1.385e-8
0.027, 1.386e-8
0.026, 1.388e-8
0.025, 1.387e-8
0.024, 1.386e-8
0.023, 1.385e-8
0.022, 1.383e-8
0.021, 1.381e-8
0.020, 1.378e-8
0.019, 1.375e-8
0.018, 1.372e-8
0.017, 1.368e-8
0.016, 1.364e-8
0.015, 1.359e-8
0.014, 1.354e-8
0.013, 1.350e-8
0.012, 1.344e-8
0.011, 1.338e-8
0.010, 1.333e-8
0.009, 1.326e-8
0.008, 1.320e-8
0.007, 1.314e-8
0.006, 1.307e-8
0.005, 1.300e-8
0.004, 1.293e-8
0.003, 1.286e-8
0.002, 1.279e-8
0.001, 1.272e-8
0.000, 1.267e-8
-0.001, 1.259e-8
-0.002, 1.250e-8
-0.003, 1.242e-8
-0.004, 1.234e-8
-0.005, 1.227e-8
-0.006, 1.219e-8
-0.007, 1.211e-8
-0.008, 1.204e-8
-0.009, 1.196e-8
-0.010, 1.188e-8
-0.011, 1.180e-8
-0.012, 1.172e-8
-0.013, 1.164e-8
-0.014, 1.157e-8
-0.015, 1.149e-8
-0.016, 1.141e-8
-0.017, 1.133e-8
-0.018, 1.126e-8
-0.019, 1.119e-8
-0.020, 1.111e-8
-0.021, 1.103e-8
-0.022, 1.096e-8
-0.023, 1.089e-8
-0.024, 1.082e-8
-0.025, 1.075e-8
-0.026, 1.067e-8
-0.027, 1.061e-8
-0.028, 1.054e-8
-0.029, 1.047e-8
-0.030, 1.040e-8
-0.031, 1.033e-8
-0.032, 1.026e-8
-0.033, 1.020e-8
-0.034, 1.013e-8
-0.035, 1.007e-8
-0.036, 1.001e-8
-0.037, 9.942e-9
-0.038, 9.887e-9
-0.039, 9.825e-9
-0.040, 9.763e-9
-0.041, 9.701e-9
-0.042, 9.641e-9
-0.043, 9.589e-9
-0.044, 9.537e-9
-0.045, 9.476e-9
-0.046, 9.421e-9
-0.047, 9.366e-9
-0.048, 9.316e-9
-0.049, 9.265e-9
-0.050, 9.207e-9
-0.051, 9.159e-9
-0.052, 9.108e-9
-0.053, 9.060e-9
-0.054, 9.015e-9
-0.055, 8.964e-9
-0.056, 8.913e-9
-0.057, 8.871e-9
-0.058, 8.823e-9
-0.059, 8.781e-9
-0.060, 8.735e-9
-0.061, 8.687e-9
-0.062, 8.648e-9
-0.063, 8.606e-9
-0.064, 8.567e-9
-0.065, 8.522e-9
-0.066, 8.474e-9
-0.067, 8.437e-9
-0.068, 8.398e-9
-0.069, 8.360e-9
-0.070, 8.324e-9
-0.071, 8.283e-9
-0.072, 8.251e-9
-0.073, 8.222e-9
-0.074, 8.185e-9
-0.075, 8.150e-9
-0.076, 8.114e-9
-0.077, 8.085e-9
-0.078, 8.057e-9
-0.079, 8.022e-9
-0.080, 7.989e-9
-0.081, 7.958e-9
-0.082, 7.928e-9
-0.083, 7.904e-9
-0.084, 7.875e-9
-0.085, 7.841e-9
-0.086, 7.814e-9
-0.087, 7.788e-9
-0.088, 7.764e-9
-0.089, 7.743e-9
-0.090, 7.714e-9
-0.091, 7.688e-9
-0.092, 7.666e-9
-0.093, 7.643e-9
-0.094, 7.623e-9
-0.095, 7.596e-9
-0.096, 7.572e-9
-0.097, 7.553e-9
-0.098, 7.530e-9
-0.099, 7.512e-9
-0.100, 7.490e-9
-0.101, 7.467e-9
-0.102, 7.456e-9
-0.103, 7.439e-9
-0.104, 7.420e-9
-0.105, 7.401e-9
-0.106, 7.379e-9
-0.107, 7.367e-9
-0.108, 7.354e-9
-0.109, 7.336e-9
-0.110, 7.322e-9
-0.111, 7.303e-9
-0.112, 7.291e-9
-0.113, 7.282e-9
-0.114, 7.267e-9
-0.115, 7.254e-9
-0.116, 7.241e-9
-0.117, 7.229e-9
-0.118, 7.221e-9
-0.119, 7.210e-9
-0.120, 7.198e-9
-0.121, 7.189e-9
-0.122, 7.177e-9
-0.123, 7.174e-9
-0.124, 7.168e-9
-0.125, 7.155e-9
-0.126, 7.148e-9
-0.127, 7.140e-9
-0.128, 7.139e-9
-0.129, 7.133e-9
-0.130, 7.121e-9
-0.131, 7.117e-9
-0.132, 7.114e-9
-0.133, 7.109e-9
-0.134, 7.108e-9
-0.135, 7.100e-9
-0.136, 7.096e-9
-0.137, 7.096e-9
-0.138, 7.093e-9
-0.139, 7.098e-9
-0.140, 7.092e-9
-0.141, 7.086e-9
-0.142, 7.090e-9
-0.143, 7.091e-9
-0.144, 7.093e-9
-0.145, 7.092e-9
-0.146, 7.088e-9
-0.147, 7.094e-9
-0.148, 7.097e-9
-0.149, 7.099e-9
-0.150, 7.102e-9
-0.151, 7.102e-9
-0.152, 7.107e-9
-0.153, 7.116e-9
-0.154, 7.120e-9
-0.155, 7.126e-9
-0.156, 7.126e-9
-0.157, 7.133e-9
-0.158, 7.146e-9
-0.159, 7.151e-9
-0.160, 7.155e-9
-0.161, 7.163e-9
-0.162, 7.170e-9
-0.163, 7.182e-9
-0.164, 7.191e-9
-0.165, 7.196e-9
-0.166, 7.206e-9
-0.167, 7.219e-9
-0.168, 7.229e-9
-0.169, 7.240e-9
-0.170, 7.245e-9
-0.171, 7.258e-9
-0.172, 7.273e-9
-0.173, 7.287e-9
-0.174, 7.303e-9
-0.175, 7.311e-9
-0.176, 7.322e-9
-0.177, 7.341e-9
-0.178, 7.356e-9
-0.179, 7.373e-9
-0.180, 7.388e-9
-0.181, 7.399e-9
-0.182, 7.422e-9
-0.183, 7.438e-9
-0.184, 7.456e-9
-0.185, 7.473e-9
-0.186, 7.486e-9
-0.187, 7.510e-9
-0.188, 7.533e-9
-0.189, 7.550e-9
-0.190, 7.569e-9
-0.191, 7.588e-9
-0.192, 7.614e-9
-0.193, 7.636e-9
-0.194, 7.658e-9
-0.195, 7.679e-9
-0.196, 7.700e-9
-0.197, 7.723e-9
-0.198, 7.750e-9
-0.199, 7.771e-9
