Mar. 16, 2023   09:27:08
Cyclic Voltammetry
File: c:/users/oliverrz/desktop/electrolab/data/2023_03_16\fcmeoh_macros_500_um\electrode8_cv_50mvs_500_um.bin
Data Source:  Experiment
Instrument Model:  CHI760E
Header: CV
Note: 

Init E (V) = -0.2
High E (V) = 0.3
Low E (V) = -0.2
Final E (V) = -0.2
Init P/N = P
Scan Rate (V/s) = 0.05
Segment = 3
Sample Interval (V) = 0.001
Quiet Time (sec) = 2
Sensitivity (A/V) = 1e-7

Results:

Channel 1:
Segment 1:
Ep = 0.096V
ip = -2.323e-8A
Ah = -2.999e-8C

Segment 2:
Ep = 0.023V
ip = 2.269e-8A
Ah = 2.943e-8C

Segment 3:

Potential/V, Current/A

-0.200, 3.881e-9
-0.199, 3.530e-9
-0.198, 3.433e-9
-0.197, 3.376e-9
-0.196, 3.329e-9
-0.195, 3.284e-9
-0.194, 3.233e-9
-0.193, 3.187e-9
-0.192, 3.146e-9
-0.191, 3.105e-9
-0.190, 3.067e-9
-0.189, 3.024e-9
-0.188, 2.983e-9
-0.187, 2.951e-9
-0.186, 2.915e-9
-0.185, 2.880e-9
-0.184, 2.840e-9
-0.183, 2.800e-9
-0.182, 2.771e-9
-0.181, 2.739e-9
-0.180, 2.705e-9
-0.179, 2.671e-9
-0.178, 2.637e-9
-0.177, 2.609e-9
-0.176, 2.581e-9
-0.175, 2.550e-9
-0.174, 2.518e-9
-0.173, 2.488e-9
-0.172, 2.459e-9
-0.171, 2.433e-9
-0.170, 2.403e-9
-0.169, 2.371e-9
-0.168, 2.344e-9
-0.167, 2.318e-9
-0.166, 2.295e-9
-0.165, 2.271e-9
-0.164, 2.241e-9
-0.163, 2.216e-9
-0.162, 2.191e-9
-0.161, 2.168e-9
-0.160, 2.148e-9
-0.159, 2.116e-9
-0.158, 2.092e-9
-0.157, 2.071e-9
-0.156, 2.049e-9
-0.155, 2.028e-9
-0.154, 1.999e-9
-0.153, 1.973e-9
-0.152, 1.957e-9
-0.151, 1.937e-9
-0.150, 1.917e-9
-0.149, 1.889e-9
-0.148, 1.865e-9
-0.147, 1.849e-9
-0.146, 1.829e-9
-0.145, 1.809e-9
-0.144, 1.786e-9
-0.143, 1.762e-9
-0.142, 1.749e-9
-0.141, 1.730e-9
-0.140, 1.711e-9
-0.139, 1.691e-9
-0.138, 1.667e-9
-0.137, 1.652e-9
-0.136, 1.638e-9
-0.135, 1.616e-9
-0.134, 1.597e-9
-0.133, 1.577e-9
-0.132, 1.561e-9
-0.131, 1.549e-9
-0.130, 1.530e-9
-0.129, 1.509e-9
-0.128, 1.488e-9
-0.127, 1.475e-9
-0.126, 1.463e-9
-0.125, 1.447e-9
-0.124, 1.425e-9
-0.123, 1.409e-9
-0.122, 1.394e-9
-0.121, 1.380e-9
-0.120, 1.364e-9
-0.119, 1.343e-9
-0.118, 1.328e-9
-0.117, 1.315e-9
-0.116, 1.302e-9
-0.115, 1.286e-9
-0.114, 1.267e-9
-0.113, 1.253e-9
-0.112, 1.241e-9
-0.111, 1.228e-9
-0.110, 1.216e-9
-0.109, 1.197e-9
-0.108, 1.180e-9
-0.107, 1.170e-9
-0.106, 1.155e-9
-0.105, 1.140e-9
-0.104, 1.121e-9
-0.103, 1.103e-9
-0.102, 1.091e-9
-0.101, 1.079e-9
-0.100, 1.064e-9
-0.099, 1.047e-9
-0.098, 1.029e-9
-0.097, 1.018e-9
-0.096, 1.007e-9
-0.095, 9.904e-10
-0.094, 9.726e-10
-0.093, 9.577e-10
-0.092, 9.452e-10
-0.091, 9.331e-10
-0.090, 9.143e-10
-0.089, 8.941e-10
-0.088, 8.799e-10
-0.087, 8.650e-10
-0.086, 8.524e-10
-0.085, 8.342e-10
-0.084, 8.120e-10
-0.083, 7.972e-10
-0.082, 7.829e-10
-0.081, 7.689e-10
-0.080, 7.539e-10
-0.079, 7.311e-10
-0.078, 7.154e-10
-0.077, 6.987e-10
-0.076, 6.825e-10
-0.075, 6.673e-10
-0.074, 6.409e-10
-0.073, 6.213e-10
-0.072, 6.049e-10
-0.071, 5.843e-10
-0.070, 5.650e-10
-0.069, 5.393e-10
-0.068, 5.163e-10
-0.067, 5.023e-10
-0.066, 4.804e-10
-0.065, 4.587e-10
-0.064, 4.341e-10
-0.063, 4.080e-10
-0.062, 3.906e-10
-0.061, 3.683e-10
-0.060, 3.392e-10
-0.059, 3.136e-10
-0.058, 2.855e-10
-0.057, 2.632e-10
-0.056, 2.392e-10
-0.055, 2.108e-10
-0.054, 1.788e-10
-0.053, 1.483e-10
-0.052, 1.180e-10
-0.051, 8.912e-11
-0.050, 5.741e-11
-0.049, 1.991e-11
-0.048, -1.238e-11
-0.047, -4.517e-11
-0.046, -7.510e-11
-0.045, -1.144e-10
-0.044, -1.579e-10
-0.043, -1.957e-10
-0.042, -2.340e-10
-0.041, -2.740e-10
-0.040, -3.190e-10
-0.039, -3.689e-10
-0.038, -4.156e-10
-0.037, -4.589e-10
-0.036, -5.067e-10
-0.035, -5.527e-10
-0.034, -6.135e-10
-0.033, -6.663e-10
-0.032, -7.182e-10
-0.031, -7.767e-10
-0.030, -8.346e-10
-0.029, -8.994e-10
-0.028, -9.645e-10
-0.027, -1.023e-9
-0.026, -1.091e-9
-0.025, -1.161e-9
-0.024, -1.237e-9
-0.023, -1.313e-9
-0.022, -1.382e-9
-0.021, -1.461e-9
-0.020, -1.546e-9
-0.019, -1.632e-9
-0.018, -1.723e-9
-0.017, -1.807e-9
-0.016, -1.899e-9
-0.015, -2.000e-9
-0.014, -2.099e-9
-0.013, -2.206e-9
-0.012, -2.311e-9
-0.011, -2.414e-9
-0.010, -2.527e-9
-0.009, -2.646e-9
-0.008, -2.766e-9
-0.007, -2.893e-9
-0.006, -3.014e-9
-0.005, -3.151e-9
-0.004, -3.294e-9
-0.003, -3.428e-9
-0.002, -3.565e-9
-0.001, -3.711e-9
-0.000, -3.901e-9
0.001, -4.063e-9
0.002, -4.211e-9
0.003, -4.374e-9
0.004, -4.543e-9
0.005, -4.716e-9
0.006, -4.902e-9
0.007, -5.086e-9
0.008, -5.276e-9
0.009, -5.476e-9
0.010, -5.670e-9
0.011, -5.886e-9
0.012, -6.100e-9
0.013, -6.310e-9
0.014, -6.541e-9
0.015, -6.767e-9
0.016, -6.999e-9
0.017, -7.247e-9
0.018, -7.484e-9
0.019, -7.736e-9
0.020, -7.994e-9
0.021, -8.254e-9
0.022, -8.524e-9
0.023, -8.784e-9
0.024, -9.060e-9
0.025, -9.345e-9
0.026, -9.632e-9
0.027, -9.924e-9
0.028, -1.021e-8
0.029, -1.050e-8
0.030, -1.081e-8
0.031, -1.112e-8
0.032, -1.142e-8
0.033, -1.174e-8
0.034, -1.205e-8
0.035, -1.237e-8
0.036, -1.269e-8
0.037, -1.301e-8
0.038, -1.334e-8
0.039, -1.367e-8
0.040, -1.400e-8
0.041, -1.434e-8
0.042, -1.466e-8
0.043, -1.499e-8
0.044, -1.533e-8
0.045, -1.566e-8
0.046, -1.600e-8
0.047, -1.632e-8
0.048, -1.665e-8
0.049, -1.698e-8
0.050, -1.729e-8
0.051, -1.763e-8
0.052, -1.796e-8
0.053, -1.826e-8
0.054, -1.857e-8
0.055, -1.888e-8
0.056, -1.917e-8
0.057, -1.947e-8
0.058, -1.975e-8
0.059, -2.004e-8
0.060, -2.033e-8
0.061, -2.060e-8
0.062, -2.087e-8
0.063, -2.112e-8
0.064, -2.138e-8
0.065, -2.163e-8
0.066, -2.186e-8
0.067, -2.209e-8
0.068, -2.231e-8
0.069, -2.252e-8
0.070, -2.273e-8
0.071, -2.292e-8
0.072, -2.312e-8
0.073, -2.330e-8
0.074, -2.345e-8
0.075, -2.363e-8
0.076, -2.378e-8
0.077, -2.393e-8
0.078, -2.407e-8
0.079, -2.419e-8
0.080, -2.430e-8
0.081, -2.442e-8
0.082, -2.451e-8
0.083, -2.460e-8
0.084, -2.468e-8
0.085, -2.476e-8
0.086, -2.484e-8
0.087, -2.489e-8
0.088, -2.494e-8
0.089, -2.499e-8
0.090, -2.502e-8
0.091, -2.506e-8
0.092, -2.508e-8
0.093, -2.508e-8
0.094, -2.510e-8
0.095, -2.510e-8
0.096, -2.510e-8
0.097, -2.510e-8
0.098, -2.508e-8
0.099, -2.506e-8
0.100, -2.504e-8
0.101, -2.502e-8
0.102, -2.500e-8
0.103, -2.496e-8
0.104, -2.492e-8
0.105, -2.488e-8
0.106, -2.482e-8
0.107, -2.478e-8
0.108, -2.472e-8
0.109, -2.466e-8
0.110, -2.461e-8
0.111, -2.455e-8
0.112, -2.447e-8
0.113, -2.441e-8
0.114, -2.434e-8
0.115, -2.427e-8
0.116, -2.420e-8
0.117, -2.412e-8
0.118, -2.405e-8
0.119, -2.397e-8
0.120, -2.389e-8
0.121, -2.382e-8
0.122, -2.373e-8
0.123, -2.366e-8
0.124, -2.358e-8
0.125, -2.349e-8
0.126, -2.342e-8
0.127, -2.333e-8
0.128, -2.325e-8
0.129, -2.317e-8
0.130, -2.309e-8
0.131, -2.301e-8
0.132, -2.292e-8
0.133, -2.284e-8
0.134, -2.276e-8
0.135, -2.268e-8
0.136, -2.260e-8
0.137, -2.252e-8
0.138, -2.244e-8
0.139, -2.236e-8
0.140, -2.228e-8
0.141, -2.221e-8
0.142, -2.213e-8
0.143, -2.205e-8
0.144, -2.197e-8
0.145, -2.191e-8
0.146, -2.183e-8
0.147, -2.176e-8
0.148, -2.169e-8
0.149, -2.161e-8
0.150, -2.154e-8
0.151, -2.148e-8
0.152, -2.141e-8
0.153, -2.134e-8
0.154, -2.128e-8
0.155, -2.121e-8
0.156, -2.115e-8
0.157, -2.109e-8
0.158, -2.102e-8
0.159, -2.096e-8
0.160, -2.090e-8
0.161, -2.084e-8
0.162, -2.078e-8
0.163, -2.072e-8
0.164, -2.066e-8
0.165, -2.060e-8
0.166, -2.056e-8
0.167, -2.050e-8
0.168, -2.044e-8
0.169, -2.039e-8
0.170, -2.034e-8
0.171, -2.029e-8
0.172, -2.024e-8
0.173, -2.018e-8
0.174, -2.014e-8
0.175, -2.009e-8
0.176, -2.005e-8
0.177, -2.000e-8
0.178, -1.995e-8
0.179, -1.991e-8
0.180, -1.987e-8
0.181, -1.983e-8
0.182, -1.978e-8
0.183, -1.974e-8
0.184, -1.970e-8
0.185, -1.966e-8
0.186, -1.962e-8
0.187, -1.959e-8
0.188, -1.955e-8
0.189, -1.951e-8
0.190, -1.948e-8
0.191, -1.945e-8
0.192, -1.942e-8
0.193, -1.938e-8
0.194, -1.934e-8
0.195, -1.931e-8
0.196, -1.928e-8
0.197, -1.925e-8
0.198, -1.922e-8
0.199, -1.919e-8
0.200, -1.916e-8
0.201, -1.914e-8
0.202, -1.911e-8
0.203, -1.908e-8
0.204, -1.905e-8
0.205, -1.903e-8
0.206, -1.901e-8
0.207, -1.898e-8
0.208, -1.895e-8
0.209, -1.893e-8
0.210, -1.890e-8
0.211, -1.889e-8
0.212, -1.887e-8
0.213, -1.884e-8
0.214, -1.882e-8
0.215, -1.880e-8
0.216, -1.878e-8
0.217, -1.876e-8
0.218, -1.874e-8
0.219, -1.871e-8
0.220, -1.870e-8
0.221, -1.868e-8
0.222, -1.866e-8
0.223, -1.865e-8
0.224, -1.863e-8
0.225, -1.862e-8
0.226, -1.860e-8
0.227, -1.859e-8
0.228, -1.857e-8
0.229, -1.855e-8
0.230, -1.854e-8
0.231, -1.853e-8
0.232, -1.851e-8
0.233, -1.850e-8
0.234, -1.849e-8
0.235, -1.848e-8
0.236, -1.848e-8
0.237, -1.846e-8
0.238, -1.845e-8
0.239, -1.843e-8
0.240, -1.842e-8
0.241, -1.842e-8
0.242, -1.841e-8
0.243, -1.840e-8
0.244, -1.838e-8
0.245, -1.837e-8
0.246, -1.837e-8
0.247, -1.836e-8
0.248, -1.835e-8
0.249, -1.834e-8
0.250, -1.834e-8
0.251, -1.834e-8
0.252, -1.833e-8
0.253, -1.832e-8
0.254, -1.832e-8
0.255, -1.832e-8
0.256, -1.832e-8
0.257, -1.831e-8
0.258, -1.830e-8
0.259, -1.830e-8
0.260, -1.829e-8
0.261, -1.829e-8
0.262, -1.828e-8
0.263, -1.827e-8
0.264, -1.827e-8
0.265, -1.827e-8
0.266, -1.827e-8
0.267, -1.827e-8
0.268, -1.827e-8
0.269, -1.827e-8
0.270, -1.828e-8
0.271, -1.827e-8
0.272, -1.827e-8
0.273, -1.826e-8
0.274, -1.826e-8
0.275, -1.827e-8
0.276, -1.827e-8
0.277, -1.827e-8
0.278, -1.826e-8
0.279, -1.827e-8
0.280, -1.826e-8
0.281, -1.827e-8
0.282, -1.827e-8
0.283, -1.828e-8
0.284, -1.829e-8
0.285, -1.829e-8
0.286, -1.830e-8
0.287, -1.830e-8
0.288, -1.830e-8
0.289, -1.831e-8
0.290, -1.832e-8
0.291, -1.832e-8
0.292, -1.832e-8
0.293, -1.832e-8
0.294, -1.833e-8
0.295, -1.834e-8
0.296, -1.834e-8
0.297, -1.834e-8
0.298, -1.834e-8
0.299, -1.835e-8
0.300, -1.806e-8
0.299, -1.720e-8
0.298, -1.690e-8
0.297, -1.676e-8
0.296, -1.663e-8
0.295, -1.652e-8
0.294, -1.642e-8
0.293, -1.633e-8
0.292, -1.624e-8
0.291, -1.616e-8
0.290, -1.609e-8
0.289, -1.602e-8
0.288, -1.596e-8
0.287, -1.589e-8
0.286, -1.583e-8
0.285, -1.577e-8
0.284, -1.572e-8
0.283, -1.567e-8
0.282, -1.562e-8
0.281, -1.557e-8
0.280, -1.552e-8
0.279, -1.547e-8
0.278, -1.543e-8
0.277, -1.538e-8
0.276, -1.533e-8
0.275, -1.529e-8
0.274, -1.525e-8
0.273, -1.521e-8
0.272, -1.517e-8
0.271, -1.514e-8
0.270, -1.511e-8
0.269, -1.507e-8
0.268, -1.503e-8
0.267, -1.499e-8
0.266, -1.496e-8
0.265, -1.493e-8
0.264, -1.490e-8
0.263, -1.487e-8
0.262, -1.484e-8
0.261, -1.481e-8
0.260, -1.478e-8
0.259, -1.476e-8
0.258, -1.472e-8
0.257, -1.469e-8
0.256, -1.466e-8
0.255, -1.463e-8
0.254, -1.461e-8
0.253, -1.458e-8
0.252, -1.455e-8
0.251, -1.453e-8
0.250, -1.450e-8
0.249, -1.448e-8
0.248, -1.445e-8
0.247, -1.442e-8
0.246, -1.440e-8
0.245, -1.437e-8
0.244, -1.435e-8
0.243, -1.433e-8
0.242, -1.430e-8
0.241, -1.427e-8
0.240, -1.425e-8
0.239, -1.423e-8
0.238, -1.420e-8
0.237, -1.417e-8
0.236, -1.415e-8
0.235, -1.414e-8
0.234, -1.412e-8
0.233, -1.409e-8
0.232, -1.406e-8
0.231, -1.404e-8
0.230, -1.402e-8
0.229, -1.400e-8
0.228, -1.397e-8
0.227, -1.395e-8
0.226, -1.392e-8
0.225, -1.391e-8
0.224, -1.389e-8
0.223, -1.386e-8
0.222, -1.384e-8
0.221, -1.381e-8
0.220, -1.379e-8
0.219, -1.377e-8
0.218, -1.374e-8
0.217, -1.372e-8
0.216, -1.371e-8
0.215, -1.368e-8
0.214, -1.366e-8
0.213, -1.364e-8
0.212, -1.361e-8
0.211, -1.359e-8
0.210, -1.357e-8
0.209, -1.355e-8
0.208, -1.352e-8
0.207, -1.350e-8
0.206, -1.347e-8
0.205, -1.345e-8
0.204, -1.343e-8
0.203, -1.341e-8
0.202, -1.338e-8
0.201, -1.336e-8
0.200, -1.334e-8
0.199, -1.331e-8
0.198, -1.329e-8
0.197, -1.326e-8
0.196, -1.323e-8
0.195, -1.321e-8
0.194, -1.318e-8
0.193, -1.315e-8
0.192, -1.312e-8
0.191, -1.310e-8
0.190, -1.308e-8
0.189, -1.305e-8
0.188, -1.302e-8
0.187, -1.299e-8
0.186, -1.296e-8
0.185, -1.294e-8
0.184, -1.291e-8
0.183, -1.287e-8
0.182, -1.284e-8
0.181, -1.281e-8
0.180, -1.278e-8
0.179, -1.275e-8
0.178, -1.271e-8
0.177, -1.268e-8
0.176, -1.264e-8
0.175, -1.261e-8
0.174, -1.258e-8
0.173, -1.254e-8
0.172, -1.250e-8
0.171, -1.246e-8
0.170, -1.242e-8
0.169, -1.238e-8
0.168, -1.233e-8
0.167, -1.229e-8
0.166, -1.225e-8
0.165, -1.221e-8
0.164, -1.216e-8
0.163, -1.211e-8
0.162, -1.206e-8
0.161, -1.202e-8
0.160, -1.197e-8
0.159, -1.192e-8
0.158, -1.187e-8
0.157, -1.181e-8
0.156, -1.175e-8
0.155, -1.170e-8
0.154, -1.164e-8
0.153, -1.158e-8
0.152, -1.152e-8
0.151, -1.145e-8
0.150, -1.139e-8
0.149, -1.132e-8
0.148, -1.126e-8
0.147, -1.118e-8
0.146, -1.111e-8
0.145, -1.104e-8
0.144, -1.096e-8
0.143, -1.087e-8
0.142, -1.079e-8
0.141, -1.071e-8
0.140, -1.062e-8
0.139, -1.053e-8
0.138, -1.044e-8
0.137, -1.034e-8
0.136, -1.025e-8
0.135, -1.015e-8
0.134, -1.005e-8
0.133, -9.934e-9
0.132, -9.823e-9
0.131, -9.712e-9
0.130, -9.597e-9
0.129, -9.477e-9
0.128, -9.347e-9
0.127, -9.218e-9
0.126, -9.096e-9
0.125, -8.961e-9
0.124, -8.825e-9
0.123, -8.679e-9
0.122, -8.525e-9
0.121, -8.382e-9
0.120, -8.233e-9
0.119, -8.068e-9
0.118, -7.906e-9
0.117, -7.734e-9
0.116, -7.562e-9
0.115, -7.388e-9
0.114, -7.196e-9
0.113, -7.011e-9
0.112, -6.817e-9
0.111, -6.619e-9
0.110, -6.428e-9
0.109, -6.215e-9
0.108, -6.007e-9
0.107, -5.788e-9
0.106, -5.567e-9
0.105, -5.351e-9
0.104, -5.112e-9
0.103, -4.867e-9
0.102, -4.622e-9
0.101, -4.376e-9
0.100, -4.133e-9
0.099, -3.876e-9
0.098, -3.607e-9
0.097, -3.353e-9
0.096, -3.081e-9
0.095, -2.806e-9
0.094, -2.529e-9
0.093, -2.236e-9
0.092, -1.952e-9
0.091, -1.659e-9
0.090, -1.355e-9
0.089, -1.059e-9
0.088, -7.466e-10
0.087, -4.345e-10
0.086, -1.319e-10
0.085, 1.861e-10
0.084, 5.087e-10
0.083, 8.365e-10
0.082, 1.164e-9
0.081, 1.483e-9
0.080, 1.811e-9
0.079, 2.140e-9
0.078, 2.463e-9
0.077, 2.807e-9
0.076, 3.135e-9
0.075, 3.459e-9
0.074, 3.797e-9
0.073, 4.121e-9
0.072, 4.451e-9
0.071, 4.783e-9
0.070, 5.098e-9
0.069, 5.424e-9
0.068, 5.750e-9
0.067, 6.059e-9
0.066, 6.379e-9
0.065, 6.676e-9
0.064, 6.995e-9
0.063, 7.303e-9
0.062, 7.592e-9
0.061, 7.890e-9
0.060, 8.168e-9
0.059, 8.450e-9
0.058, 8.739e-9
0.057, 8.994e-9
0.056, 9.261e-9
0.055, 9.514e-9
0.054, 9.750e-9
0.053, 1.000e-8
0.052, 1.023e-8
0.051, 1.046e-8
0.050, 1.068e-8
0.049, 1.088e-8
0.048, 1.108e-8
0.047, 1.127e-8
0.046, 1.144e-8
0.045, 1.162e-8
0.044, 1.179e-8
0.043, 1.194e-8
0.042, 1.209e-8
0.041, 1.222e-8
0.040, 1.234e-8
0.039, 1.247e-8
0.038, 1.258e-8
0.037, 1.269e-8
0.036, 1.278e-8
0.035, 1.286e-8
0.034, 1.296e-8
0.033, 1.302e-8
0.032, 1.308e-8
0.031, 1.314e-8
0.030, 1.319e-8
0.029, 1.324e-8
0.028, 1.327e-8
0.027, 1.330e-8
0.026, 1.333e-8
0.025, 1.334e-8
0.024, 1.335e-8
0.023, 1.336e-8
0.022, 1.335e-8
0.021, 1.334e-8
0.020, 1.332e-8
0.019, 1.331e-8
0.018, 1.329e-8
0.017, 1.326e-8
0.016, 1.323e-8
0.015, 1.320e-8
0.014, 1.315e-8
0.013, 1.312e-8
0.012, 1.308e-8
0.011, 1.302e-8
0.010, 1.297e-8
0.009, 1.291e-8
0.008, 1.286e-8
0.007, 1.280e-8
0.006, 1.273e-8
0.005, 1.266e-8
0.004, 1.260e-8
0.003, 1.253e-8
0.002, 1.247e-8
0.001, 1.239e-8
0.000, 1.235e-8
-0.001, 1.228e-8
-0.002, 1.219e-8
-0.003, 1.212e-8
-0.004, 1.203e-8
-0.005, 1.195e-8
-0.006, 1.188e-8
-0.007, 1.180e-8
-0.008, 1.172e-8
-0.009, 1.164e-8
-0.010, 1.156e-8
-0.011, 1.148e-8
-0.012, 1.140e-8
-0.013, 1.133e-8
-0.014, 1.124e-8
-0.015, 1.116e-8
-0.016, 1.108e-8
-0.017, 1.101e-8
-0.018, 1.093e-8
-0.019, 1.085e-8
-0.020, 1.077e-8
-0.021, 1.070e-8
-0.022, 1.062e-8
-0.023, 1.054e-8
-0.024, 1.047e-8
-0.025, 1.039e-8
-0.026, 1.032e-8
-0.027, 1.025e-8
-0.028, 1.018e-8
-0.029, 1.010e-8
-0.030, 1.003e-8
-0.031, 9.957e-9
-0.032, 9.890e-9
-0.033, 9.823e-9
-0.034, 9.750e-9
-0.035, 9.682e-9
-0.036, 9.616e-9
-0.037, 9.558e-9
-0.038, 9.498e-9
-0.039, 9.431e-9
-0.040, 9.364e-9
-0.041, 9.304e-9
-0.042, 9.242e-9
-0.043, 9.186e-9
-0.044, 9.123e-9
-0.045, 9.060e-9
-0.046, 9.010e-9
-0.047, 8.954e-9
-0.048, 8.898e-9
-0.049, 8.841e-9
-0.050, 8.783e-9
-0.051, 8.733e-9
-0.052, 8.680e-9
-0.053, 8.627e-9
-0.054, 8.575e-9
-0.055, 8.516e-9
-0.056, 8.467e-9
-0.057, 8.421e-9
-0.058, 8.370e-9
-0.059, 8.323e-9
-0.060, 8.276e-9
-0.061, 8.233e-9
-0.062, 8.195e-9
-0.063, 8.148e-9
-0.064, 8.102e-9
-0.065, 8.058e-9
-0.066, 8.016e-9
-0.067, 7.981e-9
-0.068, 7.942e-9
-0.069, 7.897e-9
-0.070, 7.854e-9
-0.071, 7.818e-9
-0.072, 7.785e-9
-0.073, 7.750e-9
-0.074, 7.708e-9
-0.075, 7.673e-9
-0.076, 7.638e-9
-0.077, 7.609e-9
-0.078, 7.577e-9
-0.079, 7.538e-9
-0.080, 7.507e-9
-0.081, 7.479e-9
-0.082, 7.447e-9
-0.083, 7.419e-9
-0.084, 7.385e-9
-0.085, 7.353e-9
-0.086, 7.328e-9
-0.087, 7.302e-9
-0.088, 7.272e-9
-0.089, 7.246e-9
-0.090, 7.215e-9
-0.091, 7.192e-9
-0.092, 7.171e-9
-0.093, 7.143e-9
-0.094, 7.116e-9
-0.095, 7.089e-9
-0.096, 7.068e-9
-0.097, 7.050e-9
-0.098, 7.027e-9
-0.099, 7.003e-9
-0.100, 6.977e-9
-0.101, 6.959e-9
-0.102, 6.943e-9
-0.103, 6.926e-9
-0.104, 6.901e-9
-0.105, 6.882e-9
-0.106, 6.866e-9
-0.107, 6.851e-9
-0.108, 6.836e-9
-0.109, 6.815e-9
-0.110, 6.798e-9
-0.111, 6.784e-9
-0.112, 6.772e-9
-0.113, 6.756e-9
-0.114, 6.736e-9
-0.115, 6.723e-9
-0.116, 6.712e-9
-0.117, 6.698e-9
-0.118, 6.687e-9
-0.119, 6.672e-9
-0.120, 6.655e-9
-0.121, 6.652e-9
-0.122, 6.640e-9
-0.123, 6.630e-9
-0.124, 6.617e-9
-0.125, 6.602e-9
-0.126, 6.594e-9
-0.127, 6.588e-9
-0.128, 6.580e-9
-0.129, 6.572e-9
-0.130, 6.563e-9
-0.131, 6.560e-9
-0.132, 6.557e-9
-0.133, 6.550e-9
-0.134, 6.543e-9
-0.135, 6.536e-9
-0.136, 6.531e-9
-0.137, 6.530e-9
-0.138, 6.523e-9
-0.139, 6.519e-9
-0.140, 6.513e-9
-0.141, 6.511e-9
-0.142, 6.513e-9
-0.143, 6.510e-9
-0.144, 6.500e-9
-0.145, 6.496e-9
-0.146, 6.496e-9
-0.147, 6.498e-9
-0.148, 6.500e-9
-0.149, 6.496e-9
-0.150, 6.495e-9
-0.151, 6.498e-9
-0.152, 6.501e-9
-0.153, 6.506e-9
-0.154, 6.502e-9
-0.155, 6.502e-9
-0.156, 6.506e-9
-0.157, 6.510e-9
-0.158, 6.515e-9
-0.159, 6.511e-9
-0.160, 6.515e-9
-0.161, 6.524e-9
-0.162, 6.528e-9
-0.163, 6.533e-9
-0.164, 6.538e-9
-0.165, 6.542e-9
-0.166, 6.553e-9
-0.167, 6.561e-9
-0.168, 6.569e-9
-0.169, 6.575e-9
-0.170, 6.579e-9
-0.171, 6.594e-9
-0.172, 6.606e-9
-0.173, 6.611e-9
-0.174, 6.621e-9
-0.175, 6.626e-9
-0.176, 6.640e-9
-0.177, 6.655e-9
-0.178, 6.663e-9
-0.179, 6.676e-9
-0.180, 6.689e-9
-0.181, 6.703e-9
-0.182, 6.720e-9
-0.183, 6.733e-9
-0.184, 6.743e-9
-0.185, 6.757e-9
-0.186, 6.776e-9
-0.187, 6.793e-9
-0.188, 6.809e-9
-0.189, 6.819e-9
-0.190, 6.836e-9
-0.191, 6.854e-9
-0.192, 6.875e-9
-0.193, 6.895e-9
-0.194, 6.909e-9
-0.195, 6.928e-9
-0.196, 6.951e-9
-0.197, 6.972e-9
-0.198, 6.993e-9
-0.199, 7.011e-9
