Mar. 16, 2023   09:21:49
Cyclic Voltammetry
File: c:/users/oliverrz/desktop/electrolab/data/2023_03_16\fcmeoh_macros_500_um\electrode4_cv_50mvs_500_um.bin
Data Source:  Experiment
Instrument Model:  CHI760E
Header: CV
Note: 

Init E (V) = -0.2
High E (V) = 0.3
Low E (V) = -0.2
Final E (V) = -0.2
Init P/N = P
Scan Rate (V/s) = 0.05
Segment = 3
Sample Interval (V) = 0.001
Quiet Time (sec) = 2
Sensitivity (A/V) = 1e-7

Results:

Channel 1:
Segment 1:
Ep = 0.081V
ip = -2.294e-8A
Ah = -2.767e-8C

Segment 2:
Ep = -0.006V
ip = 2.409e-8A
Ah = 3.256e-8C

Segment 3:

Potential/V, Current/A

-0.200, 1.147e-8
-0.199, 1.112e-8
-0.198, 1.100e-8
-0.197, 1.091e-8
-0.196, 1.083e-8
-0.195, 1.075e-8
-0.194, 1.067e-8
-0.193, 1.060e-8
-0.192, 1.052e-8
-0.191, 1.044e-8
-0.190, 1.037e-8
-0.189, 1.030e-8
-0.188, 1.023e-8
-0.187, 1.016e-8
-0.186, 1.009e-8
-0.185, 1.002e-8
-0.184, 9.948e-9
-0.183, 9.881e-9
-0.182, 9.816e-9
-0.181, 9.746e-9
-0.180, 9.676e-9
-0.179, 9.612e-9
-0.178, 9.554e-9
-0.177, 9.494e-9
-0.176, 9.427e-9
-0.175, 9.360e-9
-0.174, 9.302e-9
-0.173, 9.244e-9
-0.172, 9.183e-9
-0.171, 9.123e-9
-0.170, 9.060e-9
-0.169, 9.005e-9
-0.168, 8.949e-9
-0.167, 8.890e-9
-0.166, 8.833e-9
-0.165, 8.775e-9
-0.164, 8.719e-9
-0.163, 8.667e-9
-0.162, 8.612e-9
-0.161, 8.556e-9
-0.160, 8.496e-9
-0.159, 8.438e-9
-0.158, 8.388e-9
-0.157, 8.338e-9
-0.156, 8.282e-9
-0.155, 8.230e-9
-0.154, 8.179e-9
-0.153, 8.131e-9
-0.152, 8.083e-9
-0.151, 8.028e-9
-0.150, 7.978e-9
-0.149, 7.927e-9
-0.148, 7.881e-9
-0.147, 7.836e-9
-0.146, 7.784e-9
-0.145, 7.733e-9
-0.144, 7.691e-9
-0.143, 7.644e-9
-0.142, 7.601e-9
-0.141, 7.551e-9
-0.140, 7.499e-9
-0.139, 7.457e-9
-0.138, 7.413e-9
-0.137, 7.370e-9
-0.136, 7.324e-9
-0.135, 7.274e-9
-0.134, 7.233e-9
-0.133, 7.195e-9
-0.132, 7.150e-9
-0.131, 7.108e-9
-0.130, 7.058e-9
-0.129, 7.014e-9
-0.128, 6.975e-9
-0.127, 6.933e-9
-0.126, 6.891e-9
-0.125, 6.848e-9
-0.124, 6.806e-9
-0.123, 6.769e-9
-0.122, 6.727e-9
-0.121, 6.684e-9
-0.120, 6.642e-9
-0.119, 6.601e-9
-0.118, 6.565e-9
-0.117, 6.526e-9
-0.116, 6.481e-9
-0.115, 6.441e-9
-0.114, 6.403e-9
-0.113, 6.366e-9
-0.112, 6.329e-9
-0.111, 6.286e-9
-0.110, 6.244e-9
-0.109, 6.206e-9
-0.108, 6.169e-9
-0.107, 6.133e-9
-0.106, 6.089e-9
-0.105, 6.048e-9
-0.104, 6.012e-9
-0.103, 5.973e-9
-0.102, 5.936e-9
-0.101, 5.898e-9
-0.100, 5.857e-9
-0.099, 5.820e-9
-0.098, 5.782e-9
-0.097, 5.744e-9
-0.096, 5.703e-9
-0.095, 5.659e-9
-0.094, 5.626e-9
-0.093, 5.590e-9
-0.092, 5.547e-9
-0.091, 5.507e-9
-0.090, 5.462e-9
-0.089, 5.427e-9
-0.088, 5.393e-9
-0.087, 5.352e-9
-0.086, 5.311e-9
-0.085, 5.268e-9
-0.084, 5.229e-9
-0.083, 5.193e-9
-0.082, 5.152e-9
-0.081, 5.109e-9
-0.080, 5.067e-9
-0.079, 5.024e-9
-0.078, 4.988e-9
-0.077, 4.945e-9
-0.076, 4.898e-9
-0.075, 4.857e-9
-0.074, 4.818e-9
-0.073, 4.777e-9
-0.072, 4.732e-9
-0.071, 4.682e-9
-0.070, 4.638e-9
-0.069, 4.592e-9
-0.068, 4.546e-9
-0.067, 4.503e-9
-0.066, 4.451e-9
-0.065, 4.406e-9
-0.064, 4.360e-9
-0.063, 4.312e-9
-0.062, 4.265e-9
-0.061, 4.210e-9
-0.060, 4.155e-9
-0.059, 4.108e-9
-0.058, 4.057e-9
-0.057, 4.004e-9
-0.056, 3.945e-9
-0.055, 3.885e-9
-0.054, 3.831e-9
-0.053, 3.774e-9
-0.052, 3.714e-9
-0.051, 3.650e-9
-0.050, 3.586e-9
-0.049, 3.526e-9
-0.048, 3.465e-9
-0.047, 3.397e-9
-0.046, 3.325e-9
-0.045, 3.256e-9
-0.044, 3.186e-9
-0.043, 3.115e-9
-0.042, 3.043e-9
-0.041, 2.963e-9
-0.040, 2.882e-9
-0.039, 2.801e-9
-0.038, 2.722e-9
-0.037, 2.639e-9
-0.036, 2.549e-9
-0.035, 2.462e-9
-0.034, 2.369e-9
-0.033, 2.281e-9
-0.032, 2.187e-9
-0.031, 2.079e-9
-0.030, 1.978e-9
-0.029, 1.875e-9
-0.028, 1.768e-9
-0.027, 1.661e-9
-0.026, 1.536e-9
-0.025, 1.414e-9
-0.024, 1.297e-9
-0.023, 1.177e-9
-0.022, 1.051e-9
-0.021, 9.139e-10
-0.020, 7.721e-10
-0.019, 6.380e-10
-0.018, 4.890e-10
-0.017, 3.409e-10
-0.016, 1.878e-10
-0.015, 2.542e-11
-0.014, -1.275e-10
-0.013, -2.959e-10
-0.012, -4.665e-10
-0.011, -6.402e-10
-0.010, -8.270e-10
-0.009, -1.008e-9
-0.008, -1.191e-9
-0.007, -1.390e-9
-0.006, -1.589e-9
-0.005, -1.803e-9
-0.004, -2.014e-9
-0.003, -2.224e-9
-0.002, -2.449e-9
-0.001, -2.677e-9
-0.000, -2.957e-9
0.001, -3.199e-9
0.002, -3.425e-9
0.003, -3.668e-9
0.004, -3.927e-9
0.005, -4.191e-9
0.006, -4.461e-9
0.007, -4.734e-9
0.008, -5.015e-9
0.009, -5.312e-9
0.010, -5.597e-9
0.011, -5.903e-9
0.012, -6.206e-9
0.013, -6.516e-9
0.014, -6.844e-9
0.015, -7.170e-9
0.016, -7.494e-9
0.017, -7.829e-9
0.018, -8.165e-9
0.019, -8.512e-9
0.020, -8.865e-9
0.021, -9.210e-9
0.022, -9.569e-9
0.023, -9.922e-9
0.024, -1.029e-8
0.025, -1.066e-8
0.026, -1.103e-8
0.027, -1.140e-8
0.028, -1.178e-8
0.029, -1.214e-8
0.030, -1.253e-8
0.031, -1.290e-8
0.032, -1.327e-8
0.033, -1.365e-8
0.034, -1.402e-8
0.035, -1.440e-8
0.036, -1.478e-8
0.037, -1.514e-8
0.038, -1.552e-8
0.039, -1.589e-8
0.040, -1.625e-8
0.041, -1.661e-8
0.042, -1.694e-8
0.043, -1.730e-8
0.044, -1.765e-8
0.045, -1.798e-8
0.046, -1.832e-8
0.047, -1.863e-8
0.048, -1.894e-8
0.049, -1.926e-8
0.050, -1.955e-8
0.051, -1.985e-8
0.052, -2.014e-8
0.053, -2.040e-8
0.054, -2.068e-8
0.055, -2.093e-8
0.056, -2.117e-8
0.057, -2.142e-8
0.058, -2.163e-8
0.059, -2.185e-8
0.060, -2.206e-8
0.061, -2.225e-8
0.062, -2.245e-8
0.063, -2.262e-8
0.064, -2.279e-8
0.065, -2.295e-8
0.066, -2.309e-8
0.067, -2.323e-8
0.068, -2.335e-8
0.069, -2.346e-8
0.070, -2.358e-8
0.071, -2.367e-8
0.072, -2.375e-8
0.073, -2.384e-8
0.074, -2.390e-8
0.075, -2.396e-8
0.076, -2.402e-8
0.077, -2.406e-8
0.078, -2.410e-8
0.079, -2.413e-8
0.080, -2.415e-8
0.081, -2.416e-8
0.082, -2.416e-8
0.083, -2.415e-8
0.084, -2.415e-8
0.085, -2.414e-8
0.086, -2.412e-8
0.087, -2.409e-8
0.088, -2.406e-8
0.089, -2.403e-8
0.090, -2.400e-8
0.091, -2.395e-8
0.092, -2.390e-8
0.093, -2.385e-8
0.094, -2.380e-8
0.095, -2.374e-8
0.096, -2.368e-8
0.097, -2.362e-8
0.098, -2.355e-8
0.099, -2.348e-8
0.100, -2.342e-8
0.101, -2.334e-8
0.102, -2.327e-8
0.103, -2.320e-8
0.104, -2.312e-8
0.105, -2.305e-8
0.106, -2.295e-8
0.107, -2.287e-8
0.108, -2.279e-8
0.109, -2.271e-8
0.110, -2.263e-8
0.111, -2.254e-8
0.112, -2.246e-8
0.113, -2.238e-8
0.114, -2.229e-8
0.115, -2.221e-8
0.116, -2.213e-8
0.117, -2.204e-8
0.118, -2.196e-8
0.119, -2.188e-8
0.120, -2.181e-8
0.121, -2.172e-8
0.122, -2.164e-8
0.123, -2.156e-8
0.124, -2.148e-8
0.125, -2.140e-8
0.126, -2.132e-8
0.127, -2.124e-8
0.128, -2.116e-8
0.129, -2.109e-8
0.130, -2.102e-8
0.131, -2.094e-8
0.132, -2.087e-8
0.133, -2.079e-8
0.134, -2.072e-8
0.135, -2.065e-8
0.136, -2.058e-8
0.137, -2.052e-8
0.138, -2.045e-8
0.139, -2.038e-8
0.140, -2.032e-8
0.141, -2.025e-8
0.142, -2.019e-8
0.143, -2.012e-8
0.144, -2.006e-8
0.145, -2.000e-8
0.146, -1.994e-8
0.147, -1.988e-8
0.148, -1.982e-8
0.149, -1.976e-8
0.150, -1.971e-8
0.151, -1.965e-8
0.152, -1.960e-8
0.153, -1.955e-8
0.154, -1.950e-8
0.155, -1.944e-8
0.156, -1.939e-8
0.157, -1.934e-8
0.158, -1.929e-8
0.159, -1.925e-8
0.160, -1.920e-8
0.161, -1.916e-8
0.162, -1.911e-8
0.163, -1.907e-8
0.164, -1.903e-8
0.165, -1.898e-8
0.166, -1.893e-8
0.167, -1.889e-8
0.168, -1.885e-8
0.169, -1.882e-8
0.170, -1.878e-8
0.171, -1.873e-8
0.172, -1.869e-8
0.173, -1.865e-8
0.174, -1.862e-8
0.175, -1.859e-8
0.176, -1.855e-8
0.177, -1.851e-8
0.178, -1.848e-8
0.179, -1.845e-8
0.180, -1.842e-8
0.181, -1.839e-8
0.182, -1.835e-8
0.183, -1.832e-8
0.184, -1.829e-8
0.185, -1.826e-8
0.186, -1.823e-8
0.187, -1.820e-8
0.188, -1.817e-8
0.189, -1.814e-8
0.190, -1.812e-8
0.191, -1.809e-8
0.192, -1.806e-8
0.193, -1.804e-8
0.194, -1.802e-8
0.195, -1.799e-8
0.196, -1.797e-8
0.197, -1.794e-8
0.198, -1.792e-8
0.199, -1.790e-8
0.200, -1.788e-8
0.201, -1.786e-8
0.202, -1.783e-8
0.203, -1.781e-8
0.204, -1.779e-8
0.205, -1.778e-8
0.206, -1.775e-8
0.207, -1.773e-8
0.208, -1.771e-8
0.209, -1.769e-8
0.210, -1.767e-8
0.211, -1.765e-8
0.212, -1.763e-8
0.213, -1.762e-8
0.214, -1.760e-8
0.215, -1.759e-8
0.216, -1.756e-8
0.217, -1.755e-8
0.218, -1.753e-8
0.219, -1.752e-8
0.220, -1.751e-8
0.221, -1.749e-8
0.222, -1.747e-8
0.223, -1.746e-8
0.224, -1.745e-8
0.225, -1.743e-8
0.226, -1.741e-8
0.227, -1.740e-8
0.228, -1.739e-8
0.229, -1.738e-8
0.230, -1.737e-8
0.231, -1.735e-8
0.232, -1.734e-8
0.233, -1.733e-8
0.234, -1.732e-8
0.235, -1.731e-8
0.236, -1.729e-8
0.237, -1.728e-8
0.238, -1.727e-8
0.239, -1.726e-8
0.240, -1.725e-8
0.241, -1.724e-8
0.242, -1.723e-8
0.243, -1.722e-8
0.244, -1.721e-8
0.245, -1.720e-8
0.246, -1.719e-8
0.247, -1.718e-8
0.248, -1.717e-8
0.249, -1.717e-8
0.250, -1.716e-8
0.251, -1.714e-8
0.252, -1.714e-8
0.253, -1.713e-8
0.254, -1.712e-8
0.255, -1.712e-8
0.256, -1.711e-8
0.257, -1.710e-8
0.258, -1.709e-8
0.259, -1.709e-8
0.260, -1.708e-8
0.261, -1.707e-8
0.262, -1.706e-8
0.263, -1.706e-8
0.264, -1.706e-8
0.265, -1.705e-8
0.266, -1.704e-8
0.267, -1.704e-8
0.268, -1.703e-8
0.269, -1.703e-8
0.270, -1.703e-8
0.271, -1.702e-8
0.272, -1.701e-8
0.273, -1.701e-8
0.274, -1.700e-8
0.275, -1.700e-8
0.276, -1.699e-8
0.277, -1.698e-8
0.278, -1.698e-8
0.279, -1.698e-8
0.280, -1.698e-8
0.281, -1.697e-8
0.282, -1.697e-8
0.283, -1.697e-8
0.284, -1.697e-8
0.285, -1.697e-8
0.286, -1.696e-8
0.287, -1.696e-8
0.288, -1.696e-8
0.289, -1.696e-8
0.290, -1.696e-8
0.291, -1.695e-8
0.292, -1.695e-8
0.293, -1.695e-8
0.294, -1.695e-8
0.295, -1.695e-8
0.296, -1.694e-8
0.297, -1.694e-8
0.298, -1.694e-8
0.299, -1.695e-8
0.300, -1.671e-8
0.299, -1.602e-8
0.298, -1.581e-8
0.297, -1.571e-8
0.296, -1.562e-8
0.295, -1.554e-8
0.294, -1.547e-8
0.293, -1.540e-8
0.292, -1.534e-8
0.291, -1.529e-8
0.290, -1.524e-8
0.289, -1.518e-8
0.288, -1.513e-8
0.287, -1.508e-8
0.286, -1.505e-8
0.285, -1.500e-8
0.284, -1.496e-8
0.283, -1.492e-8
0.282, -1.489e-8
0.281, -1.486e-8
0.280, -1.482e-8
0.279, -1.478e-8
0.278, -1.475e-8
0.277, -1.472e-8
0.276, -1.469e-8
0.275, -1.466e-8
0.274, -1.462e-8
0.273, -1.460e-8
0.272, -1.457e-8
0.271, -1.454e-8
0.270, -1.452e-8
0.269, -1.448e-8
0.268, -1.445e-8
0.267, -1.443e-8
0.266, -1.441e-8
0.265, -1.439e-8
0.264, -1.436e-8
0.263, -1.433e-8
0.262, -1.431e-8
0.261, -1.429e-8
0.260, -1.427e-8
0.259, -1.424e-8
0.258, -1.421e-8
0.257, -1.419e-8
0.256, -1.417e-8
0.255, -1.415e-8
0.254, -1.413e-8
0.253, -1.410e-8
0.252, -1.408e-8
0.251, -1.406e-8
0.250, -1.404e-8
0.249, -1.402e-8
0.248, -1.399e-8
0.247, -1.397e-8
0.246, -1.396e-8
0.245, -1.394e-8
0.244, -1.392e-8
0.243, -1.389e-8
0.242, -1.388e-8
0.241, -1.386e-8
0.240, -1.384e-8
0.239, -1.382e-8
0.238, -1.380e-8
0.237, -1.378e-8
0.236, -1.377e-8
0.235, -1.375e-8
0.234, -1.373e-8
0.233, -1.371e-8
0.232, -1.369e-8
0.231, -1.367e-8
0.230, -1.365e-8
0.229, -1.363e-8
0.228, -1.361e-8
0.227, -1.359e-8
0.226, -1.358e-8
0.225, -1.356e-8
0.224, -1.354e-8
0.223, -1.351e-8
0.222, -1.350e-8
0.221, -1.348e-8
0.220, -1.346e-8
0.219, -1.344e-8
0.218, -1.342e-8
0.217, -1.340e-8
0.216, -1.339e-8
0.215, -1.337e-8
0.214, -1.336e-8
0.213, -1.334e-8
0.212, -1.332e-8
0.211, -1.331e-8
0.210, -1.328e-8
0.209, -1.326e-8
0.208, -1.324e-8
0.207, -1.322e-8
0.206, -1.321e-8
0.205, -1.318e-8
0.204, -1.316e-8
0.203, -1.314e-8
0.202, -1.312e-8
0.201, -1.311e-8
0.200, -1.309e-8
0.199, -1.307e-8
0.198, -1.305e-8
0.197, -1.303e-8
0.196, -1.301e-8
0.195, -1.299e-8
0.194, -1.296e-8
0.193, -1.295e-8
0.192, -1.293e-8
0.191, -1.291e-8
0.190, -1.289e-8
0.189, -1.287e-8
0.188, -1.285e-8
0.187, -1.283e-8
0.186, -1.281e-8
0.185, -1.279e-8
0.184, -1.276e-8
0.183, -1.274e-8
0.182, -1.272e-8
0.181, -1.270e-8
0.180, -1.268e-8
0.179, -1.265e-8
0.178, -1.263e-8
0.177, -1.261e-8
0.176, -1.259e-8
0.175, -1.256e-8
0.174, -1.254e-8
0.173, -1.251e-8
0.172, -1.249e-8
0.171, -1.247e-8
0.170, -1.244e-8
0.169, -1.241e-8
0.168, -1.238e-8
0.167, -1.236e-8
0.166, -1.234e-8
0.165, -1.231e-8
0.164, -1.228e-8
0.163, -1.225e-8
0.162, -1.223e-8
0.161, -1.220e-8
0.160, -1.217e-8
0.159, -1.214e-8
0.158, -1.211e-8
0.157, -1.208e-8
0.156, -1.205e-8
0.155, -1.202e-8
0.154, -1.198e-8
0.153, -1.195e-8
0.152, -1.192e-8
0.151, -1.188e-8
0.150, -1.185e-8
0.149, -1.181e-8
0.148, -1.177e-8
0.147, -1.174e-8
0.146, -1.170e-8
0.145, -1.166e-8
0.144, -1.162e-8
0.143, -1.158e-8
0.142, -1.154e-8
0.141, -1.150e-8
0.140, -1.145e-8
0.139, -1.141e-8
0.138, -1.136e-8
0.137, -1.132e-8
0.136, -1.128e-8
0.135, -1.123e-8
0.134, -1.118e-8
0.133, -1.112e-8
0.132, -1.107e-8
0.131, -1.102e-8
0.130, -1.096e-8
0.129, -1.089e-8
0.128, -1.083e-8
0.127, -1.077e-8
0.126, -1.072e-8
0.125, -1.065e-8
0.124, -1.058e-8
0.123, -1.052e-8
0.122, -1.045e-8
0.121, -1.038e-8
0.120, -1.030e-8
0.119, -1.022e-8
0.118, -1.015e-8
0.117, -1.006e-8
0.116, -9.986e-9
0.115, -9.900e-9
0.114, -9.808e-9
0.113, -9.721e-9
0.112, -9.629e-9
0.111, -9.536e-9
0.110, -9.437e-9
0.109, -9.334e-9
0.108, -9.231e-9
0.107, -9.127e-9
0.106, -9.018e-9
0.105, -8.906e-9
0.104, -8.789e-9
0.103, -8.666e-9
0.102, -8.542e-9
0.101, -8.421e-9
0.100, -8.291e-9
0.099, -8.158e-9
0.098, -8.014e-9
0.097, -7.875e-9
0.096, -7.731e-9
0.095, -7.579e-9
0.094, -7.427e-9
0.093, -7.261e-9
0.092, -7.101e-9
0.091, -6.935e-9
0.090, -6.754e-9
0.089, -6.580e-9
0.088, -6.396e-9
0.087, -6.212e-9
0.086, -6.034e-9
0.085, -5.832e-9
0.084, -5.630e-9
0.083, -5.431e-9
0.082, -5.221e-9
0.081, -5.013e-9
0.080, -4.794e-9
0.079, -4.564e-9
0.078, -4.333e-9
0.077, -4.097e-9
0.076, -3.862e-9
0.075, -3.619e-9
0.074, -3.371e-9
0.073, -3.119e-9
0.072, -2.859e-9
0.071, -2.596e-9
0.070, -2.334e-9
0.069, -2.049e-9
0.068, -1.771e-9
0.067, -1.495e-9
0.066, -1.205e-9
0.065, -9.211e-10
0.064, -6.162e-10
0.063, -3.120e-10
0.062, -1.918e-11
0.061, 2.936e-10
0.060, 6.030e-10
0.059, 9.278e-10
0.058, 1.250e-9
0.057, 1.562e-9
0.056, 1.886e-9
0.055, 2.221e-9
0.054, 2.540e-9
0.053, 2.876e-9
0.052, 3.204e-9
0.051, 3.536e-9
0.050, 3.873e-9
0.049, 4.195e-9
0.048, 4.530e-9
0.047, 4.864e-9
0.046, 5.187e-9
0.045, 5.530e-9
0.044, 5.855e-9
0.043, 6.183e-9
0.042, 6.514e-9
0.041, 6.830e-9
0.040, 7.150e-9
0.039, 7.476e-9
0.038, 7.789e-9
0.037, 8.101e-9
0.036, 8.397e-9
0.035, 8.701e-9
0.034, 9.007e-9
0.033, 9.295e-9
0.032, 9.581e-9
0.031, 9.856e-9
0.030, 1.013e-8
0.029, 1.040e-8
0.028, 1.066e-8
0.027, 1.091e-8
0.026, 1.116e-8
0.025, 1.139e-8
0.024, 1.163e-8
0.023, 1.186e-8
0.022, 1.206e-8
0.021, 1.227e-8
0.020, 1.246e-8
0.019, 1.265e-8
0.018, 1.283e-8
0.017, 1.300e-8
0.016, 1.317e-8
0.015, 1.332e-8
0.014, 1.347e-8
0.013, 1.362e-8
0.012, 1.374e-8
0.011, 1.386e-8
0.010, 1.399e-8
0.009, 1.408e-8
0.008, 1.419e-8
0.007, 1.428e-8
0.006, 1.435e-8
0.005, 1.444e-8
0.004, 1.451e-8
0.003, 1.456e-8
0.002, 1.462e-8
0.001, 1.466e-8
0.000, 1.475e-8
-0.001, 1.481e-8
-0.002, 1.480e-8
-0.003, 1.481e-8
-0.004, 1.482e-8
-0.005, 1.483e-8
-0.006, 1.485e-8
-0.007, 1.484e-8
-0.008, 1.483e-8
-0.009, 1.482e-8
-0.010, 1.480e-8
-0.011, 1.479e-8
-0.012, 1.476e-8
-0.013, 1.474e-8
-0.014, 1.470e-8
-0.015, 1.467e-8
-0.016, 1.464e-8
-0.017, 1.460e-8
-0.018, 1.455e-8
-0.019, 1.451e-8
-0.020, 1.446e-8
-0.021, 1.441e-8
-0.022, 1.436e-8
-0.023, 1.430e-8
-0.024, 1.424e-8
-0.025, 1.419e-8
-0.026, 1.413e-8
-0.027, 1.408e-8
-0.028, 1.401e-8
-0.029, 1.394e-8
-0.030, 1.388e-8
-0.031, 1.382e-8
-0.032, 1.375e-8
-0.033, 1.368e-8
-0.034, 1.361e-8
-0.035, 1.355e-8
-0.036, 1.348e-8
-0.037, 1.341e-8
-0.038, 1.335e-8
-0.039, 1.328e-8
-0.040, 1.321e-8
-0.041, 1.315e-8
-0.042, 1.308e-8
-0.043, 1.301e-8
-0.044, 1.294e-8
-0.045, 1.287e-8
-0.046, 1.281e-8
-0.047, 1.274e-8
-0.048, 1.267e-8
-0.049, 1.260e-8
-0.050, 1.254e-8
-0.051, 1.248e-8
-0.052, 1.241e-8
-0.053, 1.234e-8
-0.054, 1.229e-8
-0.055, 1.223e-8
-0.056, 1.217e-8
-0.057, 1.211e-8
-0.058, 1.204e-8
-0.059, 1.198e-8
-0.060, 1.193e-8
-0.061, 1.187e-8
-0.062, 1.181e-8
-0.063, 1.175e-8
-0.064, 1.169e-8
-0.065, 1.164e-8
-0.066, 1.159e-8
-0.067, 1.154e-8
-0.068, 1.148e-8
-0.069, 1.142e-8
-0.070, 1.137e-8
-0.071, 1.133e-8
-0.072, 1.128e-8
-0.073, 1.122e-8
-0.074, 1.117e-8
-0.075, 1.113e-8
-0.076, 1.108e-8
-0.077, 1.104e-8
-0.078, 1.099e-8
-0.079, 1.094e-8
-0.080, 1.090e-8
-0.081, 1.086e-8
-0.082, 1.082e-8
-0.083, 1.078e-8
-0.084, 1.073e-8
-0.085, 1.069e-8
-0.086, 1.066e-8
-0.087, 1.062e-8
-0.088, 1.057e-8
-0.089, 1.054e-8
-0.090, 1.050e-8
-0.091, 1.047e-8
-0.092, 1.043e-8
-0.093, 1.039e-8
-0.094, 1.036e-8
-0.095, 1.032e-8
-0.096, 1.029e-8
-0.097, 1.026e-8
-0.098, 1.022e-8
-0.099, 1.019e-8
-0.100, 1.016e-8
-0.101, 1.013e-8
-0.102, 1.011e-8
-0.103, 1.007e-8
-0.104, 1.004e-8
-0.105, 1.002e-8
-0.106, 9.987e-9
-0.107, 9.962e-9
-0.108, 9.933e-9
-0.109, 9.901e-9
-0.110, 9.877e-9
-0.111, 9.855e-9
-0.112, 9.830e-9
-0.113, 9.803e-9
-0.114, 9.774e-9
-0.115, 9.754e-9
-0.116, 9.733e-9
-0.117, 9.706e-9
-0.118, 9.682e-9
-0.119, 9.655e-9
-0.120, 9.637e-9
-0.121, 9.619e-9
-0.122, 9.594e-9
-0.123, 9.574e-9
-0.124, 9.551e-9
-0.125, 9.534e-9
-0.126, 9.518e-9
-0.127, 9.496e-9
-0.128, 9.476e-9
-0.129, 9.454e-9
-0.130, 9.436e-9
-0.131, 9.420e-9
-0.132, 9.401e-9
-0.133, 9.377e-9
-0.134, 9.360e-9
-0.135, 9.343e-9
-0.136, 9.328e-9
-0.137, 9.311e-9
-0.138, 9.288e-9
-0.139, 9.272e-9
-0.140, 9.258e-9
-0.141, 9.243e-9
-0.142, 9.228e-9
-0.143, 9.206e-9
-0.144, 9.187e-9
-0.145, 9.176e-9
-0.146, 9.160e-9
-0.147, 9.147e-9
-0.148, 9.127e-9
-0.149, 9.110e-9
-0.150, 9.099e-9
-0.151, 9.086e-9
-0.152, 9.072e-9
-0.153, 9.056e-9
-0.154, 9.039e-9
-0.155, 9.029e-9
-0.156, 9.018e-9
-0.157, 9.001e-9
-0.158, 8.986e-9
-0.159, 8.968e-9
-0.160, 8.959e-9
-0.161, 8.949e-9
-0.162, 8.933e-9
-0.163, 8.919e-9
-0.164, 8.903e-9
-0.165, 8.892e-9
-0.166, 8.885e-9
-0.167, 8.870e-9
-0.168, 8.853e-9
-0.169, 8.839e-9
-0.170, 8.827e-9
-0.171, 8.819e-9
-0.172, 8.808e-9
-0.173, 8.791e-9
-0.174, 8.779e-9
-0.175, 8.767e-9
-0.176, 8.757e-9
-0.177, 8.746e-9
-0.178, 8.730e-9
-0.179, 8.718e-9
-0.180, 8.710e-9
-0.181, 8.697e-9
-0.182, 8.687e-9
-0.183, 8.671e-9
-0.184, 8.658e-9
-0.185, 8.650e-9
-0.186, 8.640e-9
-0.187, 8.630e-9
-0.188, 8.614e-9
-0.189, 8.601e-9
-0.190, 8.594e-9
-0.191, 8.585e-9
-0.192, 8.574e-9
-0.193, 8.560e-9
-0.194, 8.547e-9
-0.195, 8.540e-9
-0.196, 8.531e-9
-0.197, 8.518e-9
-0.198, 8.504e-9
-0.199, 8.490e-9
