Mar. 16, 2023   09:22:05
Cyclic Voltammetry
File: c:/users/oliverrz/desktop/electrolab/data/2023_03_16\fcmeoh_macros_500_um\electrode4_cv_100mvs_500_um.bin
Data Source:  Experiment
Instrument Model:  CHI760E
Header: CV
Note: 

Init E (V) = -0.2
High E (V) = 0.3
Low E (V) = -0.2
Final E (V) = -0.2
Init P/N = P
Scan Rate (V/s) = 0.1
Segment = 3
Sample Interval (V) = 0.001
Quiet Time (sec) = 2
Sensitivity (A/V) = 1e-7

Results:

Channel 1:
Segment 1:

Segment 2:
Ep = 0.012V
ip = 1.157e-8A
Ah = 6.926e-9C

Segment 3:

Potential/V, Current/A

-0.200, 1.677e-7
-0.199, 1.658e-7
-0.198, 1.646e-7
-0.197, 1.634e-7
-0.196, 1.622e-7
-0.195, 1.612e-7
-0.194, 1.601e-7
-0.193, 1.591e-7
-0.192, 1.580e-7
-0.191, 1.570e-7
-0.190, 1.560e-7
-0.189, 1.550e-7
-0.188, 1.541e-7
-0.187, 1.531e-7
-0.186, 1.522e-7
-0.185, 1.513e-7
-0.184, 1.503e-7
-0.183, 1.494e-7
-0.182, 1.485e-7
-0.181, 1.476e-7
-0.180, 1.468e-7
-0.179, 1.458e-7
-0.178, 1.450e-7
-0.177, 1.441e-7
-0.176, 1.433e-7
-0.175, 1.425e-7
-0.174, 1.416e-7
-0.173, 1.408e-7
-0.172, 1.400e-7
-0.171, 1.392e-7
-0.170, 1.384e-7
-0.169, 1.376e-7
-0.168, 1.369e-7
-0.167, 1.361e-7
-0.166, 1.353e-7
-0.165, 1.346e-7
-0.164, 1.337e-7
-0.163, 1.331e-7
-0.162, 1.323e-7
-0.161, 1.316e-7
-0.160, 1.309e-7
-0.159, 1.301e-7
-0.158, 1.295e-7
-0.157, 1.287e-7
-0.156, 1.280e-7
-0.155, 1.274e-7
-0.154, 1.266e-7
-0.153, 1.260e-7
-0.152, 1.253e-7
-0.151, 1.247e-7
-0.150, 1.241e-7
-0.149, 1.233e-7
-0.148, 1.228e-7
-0.147, 1.221e-7
-0.146, 1.214e-7
-0.145, 1.208e-7
-0.144, 1.202e-7
-0.143, 1.196e-7
-0.142, 1.190e-7
-0.141, 1.183e-7
-0.140, 1.178e-7
-0.139, 1.171e-7
-0.138, 1.166e-7
-0.137, 1.160e-7
-0.136, 1.154e-7
-0.135, 1.148e-7
-0.134, 1.142e-7
-0.133, 1.137e-7
-0.132, 1.131e-7
-0.131, 1.125e-7
-0.130, 1.120e-7
-0.129, 1.114e-7
-0.128, 1.109e-7
-0.127, 1.103e-7
-0.126, 1.098e-7
-0.125, 1.093e-7
-0.124, 1.087e-7
-0.123, 1.082e-7
-0.122, 1.077e-7
-0.121, 1.071e-7
-0.120, 1.067e-7
-0.119, 1.061e-7
-0.118, 1.057e-7
-0.117, 1.051e-7
-0.116, 1.046e-7
-0.115, 1.042e-7
-0.114, 1.036e-7
-0.113, 1.032e-7
-0.112, 1.027e-7
-0.111, 1.022e-7
-0.110, 1.017e-7
-0.109, 1.012e-7
-0.108, 1.008e-7
-0.107, 1.003e-7
-0.106, 9.982e-8
-0.105, 9.940e-8
-0.104, 9.887e-8
-0.103, 9.847e-8
-0.102, 9.799e-8
-0.101, 9.752e-8
-0.100, 9.713e-8
-0.099, 9.662e-8
-0.098, 9.624e-8
-0.097, 9.577e-8
-0.096, 9.533e-8
-0.095, 9.493e-8
-0.094, 9.442e-8
-0.093, 9.407e-8
-0.092, 9.360e-8
-0.091, 9.317e-8
-0.090, 9.280e-8
-0.089, 9.230e-8
-0.088, 9.196e-8
-0.087, 9.150e-8
-0.086, 9.108e-8
-0.085, 9.073e-8
-0.084, 9.024e-8
-0.083, 8.990e-8
-0.082, 8.946e-8
-0.081, 8.905e-8
-0.080, 8.870e-8
-0.079, 8.823e-8
-0.078, 8.790e-8
-0.077, 8.746e-8
-0.076, 8.704e-8
-0.075, 8.671e-8
-0.074, 8.624e-8
-0.073, 8.591e-8
-0.072, 8.550e-8
-0.071, 8.509e-8
-0.070, 8.476e-8
-0.069, 8.431e-8
-0.068, 8.398e-8
-0.067, 8.358e-8
-0.066, 8.318e-8
-0.065, 8.286e-8
-0.064, 8.240e-8
-0.063, 8.208e-8
-0.062, 8.168e-8
-0.061, 8.129e-8
-0.060, 8.095e-8
-0.059, 8.051e-8
-0.058, 8.020e-8
-0.057, 7.979e-8
-0.056, 7.940e-8
-0.055, 7.907e-8
-0.054, 7.862e-8
-0.053, 7.831e-8
-0.052, 7.789e-8
-0.051, 7.750e-8
-0.050, 7.719e-8
-0.049, 7.673e-8
-0.048, 7.642e-8
-0.047, 7.601e-8
-0.046, 7.561e-8
-0.045, 7.530e-8
-0.044, 7.484e-8
-0.043, 7.453e-8
-0.042, 7.411e-8
-0.041, 7.371e-8
-0.040, 7.339e-8
-0.039, 7.292e-8
-0.038, 7.258e-8
-0.037, 7.217e-8
-0.036, 7.175e-8
-0.035, 7.142e-8
-0.034, 7.094e-8
-0.033, 7.060e-8
-0.032, 7.018e-8
-0.031, 6.975e-8
-0.030, 6.941e-8
-0.029, 6.892e-8
-0.028, 6.856e-8
-0.027, 6.813e-8
-0.026, 6.768e-8
-0.025, 6.731e-8
-0.024, 6.682e-8
-0.023, 6.644e-8
-0.022, 6.599e-8
-0.021, 6.554e-8
-0.020, 6.516e-8
-0.019, 6.464e-8
-0.018, 6.425e-8
-0.017, 6.376e-8
-0.016, 6.329e-8
-0.015, 6.287e-8
-0.014, 6.234e-8
-0.013, 6.192e-8
-0.012, 6.141e-8
-0.011, 6.091e-8
-0.010, 6.048e-8
-0.009, 5.991e-8
-0.008, 5.949e-8
-0.007, 5.895e-8
-0.006, 5.842e-8
-0.005, 5.797e-8
-0.004, 5.737e-8
-0.003, 5.692e-8
-0.002, 5.635e-8
-0.001, 5.578e-8
-0.000, 5.520e-8
0.001, 5.460e-8
0.002, 5.412e-8
0.003, 5.355e-8
0.004, 5.295e-8
0.005, 5.245e-8
0.006, 5.180e-8
0.007, 5.127e-8
0.008, 5.067e-8
0.009, 5.004e-8
0.010, 4.950e-8
0.011, 4.883e-8
0.012, 4.826e-8
0.013, 4.764e-8
0.014, 4.697e-8
0.015, 4.641e-8
0.016, 4.573e-8
0.017, 4.514e-8
0.018, 4.449e-8
0.019, 4.383e-8
0.020, 4.324e-8
0.021, 4.255e-8
0.022, 4.195e-8
0.023, 4.127e-8
0.024, 4.062e-8
0.025, 4.000e-8
0.026, 3.929e-8
0.027, 3.869e-8
0.028, 3.803e-8
0.029, 3.737e-8
0.030, 3.677e-8
0.031, 3.606e-8
0.032, 3.550e-8
0.033, 3.484e-8
0.034, 3.417e-8
0.035, 3.361e-8
0.036, 3.291e-8
0.037, 3.237e-8
0.038, 3.172e-8
0.039, 3.107e-8
0.040, 3.055e-8
0.041, 2.988e-8
0.042, 2.935e-8
0.043, 2.877e-8
0.044, 2.816e-8
0.045, 2.769e-8
0.046, 2.706e-8
0.047, 2.656e-8
0.048, 2.604e-8
0.049, 2.548e-8
0.050, 2.504e-8
0.051, 2.447e-8
0.052, 2.402e-8
0.053, 2.354e-8
0.054, 2.304e-8
0.055, 2.265e-8
0.056, 2.216e-8
0.057, 2.177e-8
0.058, 2.135e-8
0.059, 2.092e-8
0.060, 2.057e-8
0.061, 2.015e-8
0.062, 1.982e-8
0.063, 1.945e-8
0.064, 1.907e-8
0.065, 1.879e-8
0.066, 1.841e-8
0.067, 1.815e-8
0.068, 1.784e-8
0.069, 1.753e-8
0.070, 1.730e-8
0.071, 1.696e-8
0.072, 1.676e-8
0.073, 1.649e-8
0.074, 1.622e-8
0.075, 1.605e-8
0.076, 1.575e-8
0.077, 1.559e-8
0.078, 1.537e-8
0.079, 1.513e-8
0.080, 1.502e-8
0.081, 1.474e-8
0.082, 1.463e-8
0.083, 1.445e-8
0.084, 1.424e-8
0.085, 1.416e-8
0.086, 1.393e-8
0.087, 1.383e-8
0.088, 1.368e-8
0.089, 1.349e-8
0.090, 1.342e-8
0.091, 1.322e-8
0.092, 1.313e-8
0.093, 1.301e-8
0.094, 1.284e-8
0.095, 1.279e-8
0.096, 1.261e-8
0.097, 1.253e-8
0.098, 1.241e-8
0.099, 1.228e-8
0.100, 1.223e-8
0.101, 1.205e-8
0.102, 1.198e-8
0.103, 1.186e-8
0.104, 1.171e-8
0.105, 1.168e-8
0.106, 1.150e-8
0.107, 1.145e-8
0.108, 1.132e-8
0.109, 1.119e-8
0.110, 1.115e-8
0.111, 1.097e-8
0.112, 1.092e-8
0.113, 1.080e-8
0.114, 1.065e-8
0.115, 1.061e-8
0.116, 1.042e-8
0.117, 1.036e-8
0.118, 1.024e-8
0.119, 1.008e-8
0.120, 1.004e-8
0.121, 9.843e-9
0.122, 9.772e-9
0.123, 9.649e-9
0.124, 9.480e-9
0.125, 9.437e-9
0.126, 9.237e-9
0.127, 9.145e-9
0.128, 9.015e-9
0.129, 8.832e-9
0.130, 8.774e-9
0.131, 8.575e-9
0.132, 8.470e-9
0.133, 8.330e-9
0.134, 8.148e-9
0.135, 8.071e-9
0.136, 7.856e-9
0.137, 7.754e-9
0.138, 7.599e-9
0.139, 7.405e-9
0.140, 7.323e-9
0.141, 7.112e-9
0.142, 6.993e-9
0.143, 6.829e-9
0.144, 6.631e-9
0.145, 6.536e-9
0.146, 6.302e-9
0.147, 6.190e-9
0.148, 6.007e-9
0.149, 5.803e-9
0.150, 5.699e-9
0.151, 5.454e-9
0.152, 5.333e-9
0.153, 5.137e-9
0.154, 4.921e-9
0.155, 4.816e-9
0.156, 4.548e-9
0.157, 4.423e-9
0.158, 4.233e-9
0.159, 3.996e-9
0.160, 3.890e-9
0.161, 3.622e-9
0.162, 3.475e-9
0.163, 3.281e-9
0.164, 3.035e-9
0.165, 2.922e-9
0.166, 2.645e-9
0.167, 2.486e-9
0.168, 2.290e-9
0.169, 2.045e-9
0.170, 1.915e-9
0.171, 1.639e-9
0.172, 1.471e-9
0.173, 1.267e-9
0.174, 1.014e-9
0.175, 8.685e-10
0.176, 5.867e-10
0.177, 4.059e-10
0.178, 1.965e-10
0.179, -6.752e-11
0.180, -2.210e-10
0.181, -5.003e-10
0.182, -6.814e-10
0.183, -8.997e-10
0.184, -1.159e-9
0.185, -1.312e-9
0.186, -1.600e-9
0.187, -1.783e-9
0.188, -2.014e-9
0.189, -2.278e-9
0.190, -2.436e-9
0.191, -2.733e-9
0.192, -2.919e-9
0.193, -3.152e-9
0.194, -3.421e-9
0.195, -3.568e-9
0.196, -3.876e-9
0.197, -4.055e-9
0.198, -4.291e-9
0.199, -4.578e-9
0.200, -4.734e-9
0.201, -5.042e-9
0.202, -5.230e-9
0.203, -5.456e-9
0.204, -5.750e-9
0.205, -5.917e-9
0.206, -6.214e-9
0.207, -6.422e-9
0.208, -6.644e-9
0.209, -6.935e-9
0.210, -7.103e-9
0.211, -7.412e-9
0.212, -7.620e-9
0.213, -7.847e-9
0.214, -8.137e-9
0.215, -8.300e-9
0.216, -8.604e-9
0.217, -8.812e-9
0.218, -9.050e-9
0.219, -9.328e-9
0.220, -9.500e-9
0.221, -9.799e-9
0.222, -1.001e-8
0.223, -1.024e-8
0.224, -1.053e-8
0.225, -1.070e-8
0.226, -1.101e-8
0.227, -1.121e-8
0.228, -1.144e-8
0.229, -1.172e-8
0.230, -1.190e-8
0.231, -1.221e-8
0.232, -1.241e-8
0.233, -1.264e-8
0.234, -1.293e-8
0.235, -1.309e-8
0.236, -1.340e-8
0.237, -1.359e-8
0.238, -1.383e-8
0.239, -1.412e-8
0.240, -1.428e-8
0.241, -1.458e-8
0.242, -1.479e-8
0.243, -1.501e-8
0.244, -1.532e-8
0.245, -1.547e-8
0.246, -1.577e-8
0.247, -1.598e-8
0.248, -1.619e-8
0.249, -1.649e-8
0.250, -1.664e-8
0.251, -1.693e-8
0.252, -1.714e-8
0.253, -1.735e-8
0.254, -1.764e-8
0.255, -1.780e-8
0.256, -1.809e-8
0.257, -1.829e-8
0.258, -1.850e-8
0.259, -1.878e-8
0.260, -1.894e-8
0.261, -1.922e-8
0.262, -1.941e-8
0.263, -1.963e-8
0.264, -1.990e-8
0.265, -2.006e-8
0.266, -2.033e-8
0.267, -2.052e-8
0.268, -2.073e-8
0.269, -2.101e-8
0.270, -2.115e-8
0.271, -2.144e-8
0.272, -2.162e-8
0.273, -2.183e-8
0.274, -2.209e-8
0.275, -2.223e-8
0.276, -2.251e-8
0.277, -2.269e-8
0.278, -2.289e-8
0.279, -2.317e-8
0.280, -2.330e-8
0.281, -2.359e-8
0.282, -2.376e-8
0.283, -2.395e-8
0.284, -2.422e-8
0.285, -2.434e-8
0.286, -2.461e-8
0.287, -2.479e-8
0.288, -2.498e-8
0.289, -2.524e-8
0.290, -2.536e-8
0.291, -2.563e-8
0.292, -2.580e-8
0.293, -2.598e-8
0.294, -2.624e-8
0.295, -2.637e-8
0.296, -2.661e-8
0.297, -2.679e-8
0.298, -2.696e-8
0.299, -2.721e-8
0.300, -2.581e-8
0.299, -2.267e-8
0.298, -2.117e-8
0.297, -2.021e-8
0.296, -1.950e-8
0.295, -1.874e-8
0.294, -1.819e-8
0.293, -1.760e-8
0.292, -1.705e-8
0.291, -1.662e-8
0.290, -1.606e-8
0.289, -1.568e-8
0.288, -1.522e-8
0.287, -1.478e-8
0.286, -1.445e-8
0.285, -1.399e-8
0.284, -1.367e-8
0.283, -1.330e-8
0.282, -1.293e-8
0.281, -1.266e-8
0.280, -1.225e-8
0.279, -1.198e-8
0.278, -1.166e-8
0.277, -1.133e-8
0.276, -1.109e-8
0.275, -1.074e-8
0.274, -1.050e-8
0.273, -1.020e-8
0.272, -9.902e-9
0.271, -9.679e-9
0.270, -9.348e-9
0.269, -9.138e-9
0.268, -8.855e-9
0.267, -8.587e-9
0.266, -8.387e-9
0.265, -8.059e-9
0.264, -7.872e-9
0.263, -7.604e-9
0.262, -7.347e-9
0.261, -7.158e-9
0.260, -6.838e-9
0.259, -6.669e-9
0.258, -6.411e-9
0.257, -6.155e-9
0.256, -5.987e-9
0.255, -5.673e-9
0.254, -5.518e-9
0.253, -5.277e-9
0.252, -5.020e-9
0.251, -4.866e-9
0.250, -4.570e-9
0.249, -4.408e-9
0.248, -4.170e-9
0.247, -3.920e-9
0.246, -3.777e-9
0.245, -3.482e-9
0.244, -3.326e-9
0.243, -3.097e-9
0.242, -2.853e-9
0.241, -2.705e-9
0.240, -2.422e-9
0.239, -2.257e-9
0.238, -2.041e-9
0.237, -1.799e-9
0.236, -1.657e-9
0.235, -1.374e-9
0.234, -1.215e-9
0.233, -1.001e-9
0.232, -7.645e-10
0.231, -6.104e-10
0.230, -3.306e-10
0.229, -1.872e-10
0.228, 3.585e-11
0.227, 2.618e-10
0.226, 4.105e-10
0.225, 6.888e-10
0.224, 8.355e-10
0.223, 1.061e-9
0.222, 1.279e-9
0.221, 1.425e-9
0.220, 1.706e-9
0.219, 1.843e-9
0.218, 2.062e-9
0.217, 2.290e-9
0.216, 2.418e-9
0.215, 2.699e-9
0.214, 2.831e-9
0.213, 3.041e-9
0.212, 3.277e-9
0.211, 3.400e-9
0.210, 3.671e-9
0.209, 3.809e-9
0.208, 4.012e-9
0.207, 4.245e-9
0.206, 4.360e-9
0.205, 4.634e-9
0.204, 4.776e-9
0.203, 4.961e-9
0.202, 5.194e-9
0.201, 5.318e-9
0.200, 5.575e-9
0.199, 5.720e-9
0.198, 5.904e-9
0.197, 6.127e-9
0.196, 6.252e-9
0.195, 6.502e-9
0.194, 6.635e-9
0.193, 6.829e-9
0.192, 7.047e-9
0.191, 7.167e-9
0.190, 7.407e-9
0.189, 7.540e-9
0.188, 7.728e-9
0.187, 7.934e-9
0.186, 8.049e-9
0.185, 8.295e-9
0.184, 8.419e-9
0.183, 8.620e-9
0.182, 8.819e-9
0.181, 8.927e-9
0.180, 9.173e-9
0.179, 9.289e-9
0.178, 9.474e-9
0.177, 9.673e-9
0.176, 9.768e-9
0.175, 1.002e-8
0.174, 1.012e-8
0.173, 1.029e-8
0.172, 1.050e-8
0.171, 1.058e-8
0.170, 1.082e-8
0.169, 1.093e-8
0.168, 1.110e-8
0.167, 1.130e-8
0.166, 1.138e-8
0.165, 1.161e-8
0.164, 1.172e-8
0.163, 1.187e-8
0.162, 1.206e-8
0.161, 1.215e-8
0.160, 1.235e-8
0.159, 1.246e-8
0.158, 1.261e-8
0.157, 1.280e-8
0.156, 1.288e-8
0.155, 1.309e-8
0.154, 1.320e-8
0.153, 1.334e-8
0.152, 1.352e-8
0.151, 1.360e-8
0.150, 1.380e-8
0.149, 1.390e-8
0.148, 1.405e-8
0.147, 1.422e-8
0.146, 1.429e-8
0.145, 1.449e-8
0.144, 1.458e-8
0.143, 1.473e-8
0.142, 1.490e-8
0.141, 1.496e-8
0.140, 1.518e-8
0.139, 1.526e-8
0.138, 1.540e-8
0.137, 1.557e-8
0.136, 1.563e-8
0.135, 1.585e-8
0.134, 1.593e-8
0.133, 1.606e-8
0.132, 1.625e-8
0.131, 1.631e-8
0.130, 1.652e-8
0.129, 1.662e-8
0.128, 1.675e-8
0.127, 1.694e-8
0.126, 1.699e-8
0.125, 1.720e-8
0.124, 1.731e-8
0.123, 1.744e-8
0.122, 1.763e-8
0.121, 1.770e-8
0.120, 1.792e-8
0.119, 1.803e-8
0.118, 1.816e-8
0.117, 1.836e-8
0.116, 1.845e-8
0.115, 1.867e-8
0.114, 1.879e-8
0.113, 1.894e-8
0.112, 1.915e-8
0.111, 1.925e-8
0.110, 1.947e-8
0.109, 1.961e-8
0.108, 1.978e-8
0.107, 1.999e-8
0.106, 2.011e-8
0.105, 2.036e-8
0.104, 2.051e-8
0.103, 2.070e-8
0.102, 2.095e-8
0.101, 2.108e-8
0.100, 2.135e-8
0.099, 2.151e-8
0.098, 2.173e-8
0.097, 2.199e-8
0.096, 2.214e-8
0.095, 2.245e-8
0.094, 2.263e-8
0.093, 2.286e-8
0.092, 2.316e-8
0.091, 2.333e-8
0.090, 2.367e-8
0.089, 2.389e-8
0.088, 2.414e-8
0.087, 2.448e-8
0.086, 2.467e-8
0.085, 2.503e-8
0.084, 2.529e-8
0.083, 2.556e-8
0.082, 2.592e-8
0.081, 2.615e-8
0.080, 2.653e-8
0.079, 2.681e-8
0.078, 2.712e-8
0.077, 2.751e-8
0.076, 2.778e-8
0.075, 2.815e-8
0.074, 2.847e-8
0.073, 2.881e-8
0.072, 2.920e-8
0.071, 2.950e-8
0.070, 2.990e-8
0.069, 3.023e-8
0.068, 3.060e-8
0.067, 3.100e-8
0.066, 3.131e-8
0.065, 3.175e-8
0.064, 3.210e-8
0.063, 3.248e-8
0.062, 3.289e-8
0.061, 3.320e-8
0.060, 3.365e-8
0.059, 3.399e-8
0.058, 3.437e-8
0.057, 3.479e-8
0.056, 3.509e-8
0.055, 3.554e-8
0.054, 3.586e-8
0.053, 3.624e-8
0.052, 3.665e-8
0.051, 3.693e-8
0.050, 3.736e-8
0.049, 3.769e-8
0.048, 3.801e-8
0.047, 3.840e-8
0.046, 3.865e-8
0.045, 3.904e-8
0.044, 3.933e-8
0.043, 3.963e-8
0.042, 3.999e-8
0.041, 4.022e-8
0.040, 4.057e-8
0.039, 4.082e-8
0.038, 4.106e-8
0.037, 4.137e-8
0.036, 4.155e-8
0.035, 4.184e-8
0.034, 4.204e-8
0.033, 4.224e-8
0.032, 4.248e-8
0.031, 4.262e-8
0.030, 4.284e-8
0.029, 4.300e-8
0.028, 4.314e-8
0.027, 4.333e-8
0.026, 4.341e-8
0.025, 4.360e-8
0.024, 4.368e-8
0.023, 4.377e-8
0.022, 4.389e-8
0.021, 4.390e-8
0.020, 4.404e-8
0.019, 4.405e-8
0.018, 4.408e-8
0.017, 4.417e-8
0.016, 4.412e-8
0.015, 4.421e-8
0.014, 4.417e-8
0.013, 4.417e-8
0.012, 4.422e-8
0.011, 4.411e-8
0.010, 4.414e-8
0.009, 4.406e-8
0.008, 4.400e-8
0.007, 4.402e-8
0.006, 4.386e-8
0.005, 4.387e-8
0.004, 4.377e-8
0.003, 4.366e-8
0.002, 4.364e-8
0.001, 4.347e-8
0.000, 4.352e-8
-0.001, 4.338e-8
-0.002, 4.320e-8
-0.003, 4.314e-8
-0.004, 4.295e-8
-0.005, 4.287e-8
-0.006, 4.273e-8
-0.007, 4.257e-8
-0.008, 4.249e-8
-0.009, 4.228e-8
-0.010, 4.220e-8
-0.011, 4.204e-8
-0.012, 4.188e-8
-0.013, 4.179e-8
-0.014, 4.157e-8
-0.015, 4.148e-8
-0.016, 4.130e-8
-0.017, 4.114e-8
-0.018, 4.104e-8
-0.019, 4.081e-8
-0.020, 4.072e-8
-0.021, 4.054e-8
-0.022, 4.037e-8
-0.023, 4.027e-8
-0.024, 4.004e-8
-0.025, 3.995e-8
-0.026, 3.977e-8
-0.027, 3.959e-8
-0.028, 3.950e-8
-0.029, 3.926e-8
-0.030, 3.918e-8
-0.031, 3.900e-8
-0.032, 3.883e-8
-0.033, 3.874e-8
-0.034, 3.851e-8
-0.035, 3.843e-8
-0.036, 3.826e-8
-0.037, 3.808e-8
-0.038, 3.801e-8
-0.039, 3.780e-8
-0.040, 3.771e-8
-0.041, 3.756e-8
-0.042, 3.739e-8
-0.043, 3.731e-8
-0.044, 3.711e-8
-0.045, 3.703e-8
-0.046, 3.688e-8
-0.047, 3.672e-8
-0.048, 3.665e-8
-0.049, 3.645e-8
-0.050, 3.638e-8
-0.051, 3.625e-8
-0.052, 3.610e-8
-0.053, 3.603e-8
-0.054, 3.584e-8
-0.055, 3.578e-8
-0.056, 3.565e-8
-0.057, 3.551e-8
-0.058, 3.545e-8
-0.059, 3.527e-8
-0.060, 3.523e-8
-0.061, 3.509e-8
-0.062, 3.496e-8
-0.063, 3.492e-8
-0.064, 3.475e-8
-0.065, 3.471e-8
-0.066, 3.458e-8
-0.067, 3.446e-8
-0.068, 3.443e-8
-0.069, 3.425e-8
-0.070, 3.422e-8
-0.071, 3.411e-8
-0.072, 3.399e-8
-0.073, 3.397e-8
-0.074, 3.381e-8
-0.075, 3.379e-8
-0.076, 3.369e-8
-0.077, 3.357e-8
-0.078, 3.357e-8
-0.079, 3.342e-8
-0.080, 3.339e-8
-0.081, 3.331e-8
-0.082, 3.320e-8
-0.083, 3.319e-8
-0.084, 3.306e-8
-0.085, 3.304e-8
-0.086, 3.296e-8
-0.087, 3.287e-8
-0.088, 3.287e-8
-0.089, 3.274e-8
-0.090, 3.273e-8
-0.091, 3.266e-8
-0.092, 3.257e-8
-0.093, 3.258e-8
-0.094, 3.246e-8
-0.095, 3.246e-8
-0.096, 3.240e-8
-0.097, 3.232e-8
-0.098, 3.233e-8
-0.099, 3.222e-8
-0.100, 3.224e-8
-0.101, 3.218e-8
-0.102, 3.211e-8
-0.103, 3.214e-8
-0.104, 3.202e-8
-0.105, 3.205e-8
-0.106, 3.199e-8
-0.107, 3.193e-8
-0.108, 3.198e-8
-0.109, 3.187e-8
-0.110, 3.190e-8
-0.111, 3.187e-8
-0.112, 3.181e-8
-0.113, 3.187e-8
-0.114, 3.177e-8
-0.115, 3.182e-8
-0.116, 3.179e-8
-0.117, 3.174e-8
-0.118, 3.180e-8
-0.119, 3.172e-8
-0.120, 3.176e-8
-0.121, 3.176e-8
-0.122, 3.171e-8
-0.123, 3.178e-8
-0.124, 3.172e-8
-0.125, 3.177e-8
-0.126, 3.176e-8
-0.127, 3.174e-8
-0.128, 3.182e-8
-0.129, 3.176e-8
-0.130, 3.182e-8
-0.131, 3.183e-8
-0.132, 3.181e-8
-0.133, 3.190e-8
-0.134, 3.185e-8
-0.135, 3.193e-8
-0.136, 3.194e-8
-0.137, 3.194e-8
-0.138, 3.204e-8
-0.139, 3.200e-8
-0.140, 3.209e-8
-0.141, 3.212e-8
-0.142, 3.212e-8
-0.143, 3.224e-8
-0.144, 3.220e-8
-0.145, 3.231e-8
-0.146, 3.235e-8
-0.147, 3.236e-8
-0.148, 3.248e-8
-0.149, 3.246e-8
-0.150, 3.257e-8
-0.151, 3.262e-8
-0.152, 3.264e-8
-0.153, 3.278e-8
-0.154, 3.277e-8
-0.155, 3.289e-8
-0.156, 3.296e-8
-0.157, 3.298e-8
-0.158, 3.314e-8
-0.159, 3.315e-8
-0.160, 3.327e-8
-0.161, 3.335e-8
-0.162, 3.339e-8
-0.163, 3.354e-8
-0.164, 3.356e-8
-0.165, 3.370e-8
-0.166, 3.379e-8
-0.167, 3.385e-8
-0.168, 3.401e-8
-0.169, 3.404e-8
-0.170, 3.418e-8
-0.171, 3.429e-8
-0.172, 3.436e-8
-0.173, 3.452e-8
-0.174, 3.457e-8
-0.175, 3.472e-8
-0.176, 3.483e-8
-0.177, 3.491e-8
-0.178, 3.510e-8
-0.179, 3.515e-8
-0.180, 3.533e-8
-0.181, 3.544e-8
-0.182, 3.553e-8
-0.183, 3.574e-8
-0.184, 3.579e-8
-0.185, 3.597e-8
-0.186, 3.610e-8
-0.187, 3.619e-8
-0.188, 3.641e-8
-0.189, 3.648e-8
-0.190, 3.667e-8
-0.191, 3.682e-8
-0.192, 3.692e-8
-0.193, 3.715e-8
-0.194, 3.722e-8
-0.195, 3.743e-8
-0.196, 3.759e-8
-0.197, 3.769e-8
-0.198, 3.793e-8
-0.199, 3.802e-8
