Mar. 16, 2023   09:22:18
Cyclic Voltammetry
File: c:/users/oliverrz/desktop/electrolab/data/2023_03_16\fcmeoh_macros_500_um\electrode4_cv_150mvs_500_um.bin
Data Source:  Experiment
Instrument Model:  CHI760E
Header: CV
Note: 

Init E (V) = -0.2
High E (V) = 0.3
Low E (V) = -0.2
Final E (V) = -0.2
Init P/N = P
Scan Rate (V/s) = 0.15
Segment = 3
Sample Interval (V) = 0.001
Quiet Time (sec) = 2
Sensitivity (A/V) = 1e-7

Results:

Channel 1:
Segment 1:
Ep = 0.067V
ip = -2.783e-8A
Ah = -1.056e-8C

Segment 2:
Ep = 0.007V
ip = 2.809e-8A
Ah = 1.136e-8C

Segment 3:

Potential/V, Current/A

-0.200, 2.083e-8
-0.199, 2.000e-8
-0.198, 1.941e-8
-0.197, 1.931e-8
-0.196, 1.900e-8
-0.195, 1.865e-8
-0.194, 1.862e-8
-0.193, 1.816e-8
-0.192, 1.813e-8
-0.191, 1.787e-8
-0.190, 1.755e-8
-0.189, 1.757e-8
-0.188, 1.714e-8
-0.187, 1.711e-8
-0.186, 1.688e-8
-0.185, 1.658e-8
-0.184, 1.662e-8
-0.183, 1.620e-8
-0.182, 1.617e-8
-0.181, 1.597e-8
-0.180, 1.568e-8
-0.179, 1.571e-8
-0.178, 1.533e-8
-0.177, 1.531e-8
-0.176, 1.511e-8
-0.175, 1.487e-8
-0.174, 1.488e-8
-0.173, 1.453e-8
-0.172, 1.452e-8
-0.171, 1.433e-8
-0.170, 1.409e-8
-0.169, 1.411e-8
-0.168, 1.376e-8
-0.167, 1.377e-8
-0.166, 1.357e-8
-0.165, 1.335e-8
-0.164, 1.340e-8
-0.163, 1.303e-8
-0.162, 1.308e-8
-0.161, 1.287e-8
-0.160, 1.266e-8
-0.159, 1.271e-8
-0.158, 1.234e-8
-0.157, 1.240e-8
-0.156, 1.221e-8
-0.155, 1.199e-8
-0.154, 1.207e-8
-0.153, 1.170e-8
-0.152, 1.176e-8
-0.151, 1.159e-8
-0.150, 1.135e-8
-0.149, 1.144e-8
-0.148, 1.109e-8
-0.147, 1.114e-8
-0.146, 1.098e-8
-0.145, 1.075e-8
-0.144, 1.085e-8
-0.143, 1.051e-8
-0.142, 1.056e-8
-0.141, 1.039e-8
-0.140, 1.019e-8
-0.139, 1.027e-8
-0.138, 9.952e-9
-0.137, 9.995e-9
-0.136, 9.845e-9
-0.135, 9.645e-9
-0.134, 9.726e-9
-0.133, 9.406e-9
-0.132, 9.471e-9
-0.131, 9.301e-9
-0.130, 9.129e-9
-0.129, 9.194e-9
-0.128, 8.875e-9
-0.127, 8.957e-9
-0.126, 8.784e-9
-0.125, 8.610e-9
-0.124, 8.705e-9
-0.123, 8.369e-9
-0.122, 8.459e-9
-0.121, 8.277e-9
-0.120, 8.124e-9
-0.119, 8.213e-9
-0.118, 7.885e-9
-0.117, 7.977e-9
-0.116, 7.809e-9
-0.115, 7.639e-9
-0.114, 7.740e-9
-0.113, 7.404e-9
-0.112, 7.509e-9
-0.111, 7.353e-9
-0.110, 7.167e-9
-0.109, 7.292e-9
-0.108, 6.964e-9
-0.107, 7.052e-9
-0.106, 6.906e-9
-0.105, 6.710e-9
-0.104, 6.840e-9
-0.103, 6.514e-9
-0.102, 6.596e-9
-0.101, 6.461e-9
-0.100, 6.283e-9
-0.099, 6.395e-9
-0.098, 6.090e-9
-0.097, 6.158e-9
-0.096, 6.025e-9
-0.095, 5.859e-9
-0.094, 5.954e-9
-0.093, 5.659e-9
-0.092, 5.743e-9
-0.091, 5.579e-9
-0.090, 5.432e-9
-0.089, 5.512e-9
-0.088, 5.230e-9
-0.087, 5.316e-9
-0.086, 5.140e-9
-0.085, 5.002e-9
-0.084, 5.091e-9
-0.083, 4.780e-9
-0.082, 4.886e-9
-0.081, 4.709e-9
-0.080, 4.561e-9
-0.079, 4.662e-9
-0.078, 4.338e-9
-0.077, 4.421e-9
-0.076, 4.275e-9
-0.075, 4.109e-9
-0.074, 4.219e-9
-0.073, 3.877e-9
-0.072, 3.981e-9
-0.071, 3.814e-9
-0.070, 3.639e-9
-0.069, 3.754e-9
-0.068, 3.410e-9
-0.067, 3.504e-9
-0.066, 3.340e-9
-0.065, 3.147e-9
-0.064, 3.254e-9
-0.063, 2.920e-9
-0.062, 2.979e-9
-0.061, 2.825e-9
-0.060, 2.644e-9
-0.059, 2.720e-9
-0.058, 2.397e-9
-0.057, 2.433e-9
-0.056, 2.276e-9
-0.055, 2.096e-9
-0.054, 2.135e-9
-0.053, 1.806e-9
-0.052, 1.857e-9
-0.051, 1.654e-9
-0.050, 1.464e-9
-0.049, 1.498e-9
-0.048, 1.170e-9
-0.047, 1.211e-9
-0.046, 9.723e-10
-0.045, 7.896e-10
-0.044, 8.084e-10
-0.043, 4.369e-10
-0.042, 4.715e-10
-0.041, 2.061e-10
-0.040, 1.206e-11
-0.039, 8.439e-12
-0.038, -3.828e-10
-0.037, -3.574e-10
-0.036, -6.286e-10
-0.035, -8.692e-10
-0.034, -8.638e-10
-0.033, -1.293e-9
-0.032, -1.284e-9
-0.031, -1.578e-9
-0.030, -1.857e-9
-0.029, -1.884e-9
-0.028, -2.327e-9
-0.027, -2.358e-9
-0.026, -2.677e-9
-0.025, -2.984e-9
-0.024, -3.026e-9
-0.023, -3.496e-9
-0.022, -3.570e-9
-0.021, -3.897e-9
-0.020, -4.244e-9
-0.019, -4.328e-9
-0.018, -4.821e-9
-0.017, -4.954e-9
-0.016, -5.290e-9
-0.015, -5.680e-9
-0.014, -5.831e-9
-0.013, -6.347e-9
-0.012, -6.505e-9
-0.011, -6.905e-9
-0.010, -7.296e-9
-0.009, -7.516e-9
-0.008, -8.046e-9
-0.007, -8.233e-9
-0.006, -8.710e-9
-0.005, -9.112e-9
-0.004, -9.365e-9
-0.003, -9.971e-9
-0.002, -1.017e-8
-0.001, -1.069e-8
-0.000, -1.134e-8
0.001, -1.149e-8
0.002, -1.213e-8
0.003, -1.234e-8
0.004, -1.291e-8
0.005, -1.339e-8
0.006, -1.368e-8
0.007, -1.438e-8
0.008, -1.466e-8
0.009, -1.523e-8
0.010, -1.579e-8
0.011, -1.609e-8
0.012, -1.683e-8
0.013, -1.712e-8
0.014, -1.770e-8
0.015, -1.831e-8
0.016, -1.860e-8
0.017, -1.932e-8
0.018, -1.970e-8
0.019, -2.026e-8
0.020, -2.083e-8
0.021, -2.121e-8
0.022, -2.189e-8
0.023, -2.227e-8
0.024, -2.284e-8
0.025, -2.344e-8
0.026, -2.380e-8
0.027, -2.450e-8
0.028, -2.482e-8
0.029, -2.539e-8
0.030, -2.593e-8
0.031, -2.628e-8
0.032, -2.692e-8
0.033, -2.724e-8
0.034, -2.779e-8
0.035, -2.826e-8
0.036, -2.861e-8
0.037, -2.919e-8
0.038, -2.945e-8
0.039, -3.001e-8
0.040, -3.038e-8
0.041, -3.065e-8
0.042, -3.127e-8
0.043, -3.139e-8
0.044, -3.189e-8
0.045, -3.224e-8
0.046, -3.240e-8
0.047, -3.294e-8
0.048, -3.303e-8
0.049, -3.340e-8
0.050, -3.374e-8
0.051, -3.384e-8
0.052, -3.428e-8
0.053, -3.432e-8
0.054, -3.459e-8
0.055, -3.485e-8
0.056, -3.486e-8
0.057, -3.523e-8
0.058, -3.519e-8
0.059, -3.540e-8
0.060, -3.558e-8
0.061, -3.550e-8
0.062, -3.582e-8
0.063, -3.573e-8
0.064, -3.584e-8
0.065, -3.597e-8
0.066, -3.585e-8
0.067, -3.603e-8
0.068, -3.590e-8
0.069, -3.599e-8
0.070, -3.598e-8
0.071, -3.586e-8
0.072, -3.600e-8
0.073, -3.576e-8
0.074, -3.582e-8
0.075, -3.578e-8
0.076, -3.556e-8
0.077, -3.570e-8
0.078, -3.541e-8
0.079, -3.543e-8
0.080, -3.534e-8
0.081, -3.508e-8
0.082, -3.518e-8
0.083, -3.485e-8
0.084, -3.485e-8
0.085, -3.471e-8
0.086, -3.442e-8
0.087, -3.453e-8
0.088, -3.413e-8
0.089, -3.410e-8
0.090, -3.400e-8
0.091, -3.367e-8
0.092, -3.374e-8
0.093, -3.335e-8
0.094, -3.329e-8
0.095, -3.319e-8
0.096, -3.282e-8
0.097, -3.287e-8
0.098, -3.253e-8
0.099, -3.242e-8
0.100, -3.231e-8
0.101, -3.196e-8
0.102, -3.202e-8
0.103, -3.166e-8
0.104, -3.156e-8
0.105, -3.142e-8
0.106, -3.110e-8
0.107, -3.113e-8
0.108, -3.076e-8
0.109, -3.068e-8
0.110, -3.054e-8
0.111, -3.023e-8
0.112, -3.026e-8
0.113, -2.988e-8
0.114, -2.985e-8
0.115, -2.971e-8
0.116, -2.940e-8
0.117, -2.945e-8
0.118, -2.907e-8
0.119, -2.904e-8
0.120, -2.891e-8
0.121, -2.859e-8
0.122, -2.869e-8
0.123, -2.832e-8
0.124, -2.828e-8
0.125, -2.816e-8
0.126, -2.786e-8
0.127, -2.796e-8
0.128, -2.761e-8
0.129, -2.759e-8
0.130, -2.750e-8
0.131, -2.719e-8
0.132, -2.730e-8
0.133, -2.695e-8
0.134, -2.695e-8
0.135, -2.687e-8
0.136, -2.657e-8
0.137, -2.668e-8
0.138, -2.638e-8
0.139, -2.637e-8
0.140, -2.629e-8
0.141, -2.604e-8
0.142, -2.614e-8
0.143, -2.586e-8
0.144, -2.585e-8
0.145, -2.578e-8
0.146, -2.556e-8
0.147, -2.566e-8
0.148, -2.538e-8
0.149, -2.540e-8
0.150, -2.533e-8
0.151, -2.513e-8
0.152, -2.526e-8
0.153, -2.497e-8
0.154, -2.502e-8
0.155, -2.497e-8
0.156, -2.474e-8
0.157, -2.490e-8
0.158, -2.463e-8
0.159, -2.470e-8
0.160, -2.464e-8
0.161, -2.444e-8
0.162, -2.461e-8
0.163, -2.432e-8
0.164, -2.442e-8
0.165, -2.437e-8
0.166, -2.418e-8
0.167, -2.438e-8
0.168, -2.409e-8
0.169, -2.418e-8
0.170, -2.418e-8
0.171, -2.397e-8
0.172, -2.417e-8
0.173, -2.393e-8
0.174, -2.400e-8
0.175, -2.401e-8
0.176, -2.384e-8
0.177, -2.402e-8
0.178, -2.380e-8
0.179, -2.391e-8
0.180, -2.389e-8
0.181, -2.374e-8
0.182, -2.394e-8
0.183, -2.371e-8
0.184, -2.382e-8
0.185, -2.384e-8
0.186, -2.368e-8
0.187, -2.388e-8
0.188, -2.368e-8
0.189, -2.380e-8
0.190, -2.380e-8
0.191, -2.369e-8
0.192, -2.388e-8
0.193, -2.368e-8
0.194, -2.384e-8
0.195, -2.381e-8
0.196, -2.371e-8
0.197, -2.394e-8
0.198, -2.371e-8
0.199, -2.389e-8
0.200, -2.390e-8
0.201, -2.376e-8
0.202, -2.404e-8
0.203, -2.382e-8
0.204, -2.397e-8
0.205, -2.402e-8
0.206, -2.389e-8
0.207, -2.414e-8
0.208, -2.394e-8
0.209, -2.410e-8
0.210, -2.415e-8
0.211, -2.403e-8
0.212, -2.430e-8
0.213, -2.410e-8
0.214, -2.426e-8
0.215, -2.433e-8
0.216, -2.421e-8
0.217, -2.449e-8
0.218, -2.431e-8
0.219, -2.446e-8
0.220, -2.453e-8
0.221, -2.444e-8
0.222, -2.468e-8
0.223, -2.455e-8
0.224, -2.469e-8
0.225, -2.474e-8
0.226, -2.470e-8
0.227, -2.495e-8
0.228, -2.478e-8
0.229, -2.497e-8
0.230, -2.504e-8
0.231, -2.496e-8
0.232, -2.522e-8
0.233, -2.507e-8
0.234, -2.528e-8
0.235, -2.532e-8
0.236, -2.526e-8
0.237, -2.553e-8
0.238, -2.537e-8
0.239, -2.560e-8
0.240, -2.564e-8
0.241, -2.559e-8
0.242, -2.588e-8
0.243, -2.571e-8
0.244, -2.594e-8
0.245, -2.601e-8
0.246, -2.592e-8
0.247, -2.626e-8
0.248, -2.607e-8
0.249, -2.629e-8
0.250, -2.639e-8
0.251, -2.632e-8
0.252, -2.662e-8
0.253, -2.648e-8
0.254, -2.669e-8
0.255, -2.678e-8
0.256, -2.673e-8
0.257, -2.703e-8
0.258, -2.691e-8
0.259, -2.711e-8
0.260, -2.720e-8
0.261, -2.715e-8
0.262, -2.745e-8
0.263, -2.734e-8
0.264, -2.754e-8
0.265, -2.764e-8
0.266, -2.761e-8
0.267, -2.790e-8
0.268, -2.780e-8
0.269, -2.804e-8
0.270, -2.810e-8
0.271, -2.811e-8
0.272, -2.838e-8
0.273, -2.826e-8
0.274, -2.854e-8
0.275, -2.861e-8
0.276, -2.858e-8
0.277, -2.890e-8
0.278, -2.878e-8
0.279, -2.905e-8
0.280, -2.912e-8
0.281, -2.911e-8
0.282, -2.944e-8
0.283, -2.931e-8
0.284, -2.958e-8
0.285, -2.967e-8
0.286, -2.965e-8
0.287, -3.000e-8
0.288, -2.985e-8
0.289, -3.013e-8
0.290, -3.024e-8
0.291, -3.021e-8
0.292, -3.056e-8
0.293, -3.046e-8
0.294, -3.070e-8
0.295, -3.084e-8
0.296, -3.082e-8
0.297, -3.115e-8
0.298, -3.107e-8
0.299, -3.132e-8
0.300, -2.770e-8
0.299, -2.459e-8
0.298, -2.380e-8
0.297, -2.282e-8
0.296, -2.238e-8
0.295, -2.184e-8
0.294, -2.124e-8
0.293, -2.105e-8
0.292, -2.043e-8
0.291, -2.023e-8
0.290, -1.988e-8
0.289, -1.943e-8
0.288, -1.936e-8
0.287, -1.885e-8
0.286, -1.874e-8
0.285, -1.847e-8
0.284, -1.811e-8
0.283, -1.809e-8
0.282, -1.763e-8
0.281, -1.757e-8
0.280, -1.736e-8
0.279, -1.703e-8
0.278, -1.705e-8
0.277, -1.666e-8
0.276, -1.659e-8
0.275, -1.643e-8
0.274, -1.614e-8
0.273, -1.616e-8
0.272, -1.580e-8
0.271, -1.578e-8
0.270, -1.561e-8
0.269, -1.534e-8
0.268, -1.540e-8
0.267, -1.504e-8
0.266, -1.505e-8
0.265, -1.488e-8
0.264, -1.465e-8
0.263, -1.472e-8
0.262, -1.436e-8
0.261, -1.439e-8
0.260, -1.423e-8
0.259, -1.401e-8
0.258, -1.409e-8
0.257, -1.374e-8
0.256, -1.378e-8
0.255, -1.363e-8
0.254, -1.342e-8
0.253, -1.352e-8
0.252, -1.316e-8
0.251, -1.324e-8
0.250, -1.310e-8
0.249, -1.286e-8
0.248, -1.300e-8
0.247, -1.264e-8
0.246, -1.270e-8
0.245, -1.258e-8
0.244, -1.234e-8
0.243, -1.246e-8
0.242, -1.214e-8
0.241, -1.218e-8
0.240, -1.208e-8
0.239, -1.187e-8
0.238, -1.196e-8
0.237, -1.166e-8
0.236, -1.171e-8
0.235, -1.160e-8
0.234, -1.138e-8
0.233, -1.150e-8
0.232, -1.118e-8
0.231, -1.123e-8
0.230, -1.113e-8
0.229, -1.091e-8
0.228, -1.103e-8
0.227, -1.073e-8
0.226, -1.078e-8
0.225, -1.065e-8
0.224, -1.049e-8
0.223, -1.058e-8
0.222, -1.027e-8
0.221, -1.035e-8
0.220, -1.019e-8
0.219, -1.004e-8
0.218, -1.015e-8
0.217, -9.797e-9
0.216, -9.907e-9
0.215, -9.783e-9
0.214, -9.576e-9
0.213, -9.712e-9
0.212, -9.376e-9
0.211, -9.461e-9
0.210, -9.352e-9
0.209, -9.140e-9
0.208, -9.269e-9
0.207, -8.959e-9
0.206, -9.036e-9
0.205, -8.894e-9
0.204, -8.714e-9
0.203, -8.857e-9
0.202, -8.523e-9
0.201, -8.594e-9
0.200, -8.497e-9
0.199, -8.287e-9
0.198, -8.423e-9
0.197, -8.115e-9
0.196, -8.157e-9
0.195, -8.082e-9
0.194, -7.878e-9
0.193, -7.987e-9
0.192, -7.692e-9
0.191, -7.774e-9
0.190, -7.625e-9
0.189, -7.472e-9
0.188, -7.575e-9
0.187, -7.260e-9
0.186, -7.366e-9
0.185, -7.218e-9
0.184, -7.043e-9
0.183, -7.171e-9
0.182, -6.847e-9
0.181, -6.935e-9
0.180, -6.799e-9
0.179, -6.640e-9
0.178, -6.749e-9
0.177, -6.428e-9
0.176, -6.530e-9
0.175, -6.401e-9
0.174, -6.215e-9
0.173, -6.347e-9
0.172, -6.020e-9
0.171, -6.126e-9
0.170, -5.990e-9
0.169, -5.799e-9
0.168, -5.940e-9
0.167, -5.610e-9
0.166, -5.688e-9
0.165, -5.575e-9
0.164, -5.377e-9
0.163, -5.521e-9
0.162, -5.213e-9
0.161, -5.260e-9
0.160, -5.162e-9
0.159, -4.980e-9
0.158, -5.083e-9
0.157, -4.780e-9
0.156, -4.840e-9
0.155, -4.730e-9
0.154, -4.543e-9
0.153, -4.648e-9
0.152, -4.353e-9
0.151, -4.414e-9
0.150, -4.279e-9
0.149, -4.108e-9
0.148, -4.187e-9
0.147, -3.894e-9
0.146, -3.967e-9
0.145, -3.801e-9
0.144, -3.643e-9
0.143, -3.734e-9
0.142, -3.399e-9
0.141, -3.480e-9
0.140, -3.323e-9
0.139, -3.144e-9
0.138, -3.248e-9
0.137, -2.886e-9
0.136, -2.962e-9
0.135, -2.800e-9
0.134, -2.602e-9
0.133, -2.688e-9
0.132, -2.325e-9
0.131, -2.402e-9
0.130, -2.228e-9
0.129, -1.995e-9
0.128, -2.083e-9
0.127, -1.710e-9
0.126, -1.773e-9
0.125, -1.583e-9
0.124, -1.339e-9
0.123, -1.433e-9
0.122, -1.044e-9
0.121, -1.050e-9
0.120, -8.787e-10
0.119, -6.247e-10
0.118, -6.627e-10
0.117, -2.907e-10
0.116, -2.593e-10
0.115, -5.062e-11
0.114, 1.863e-10
0.113, 2.061e-10
0.112, 5.948e-10
0.111, 6.206e-10
0.110, 8.761e-10
0.109, 1.148e-9
0.108, 1.173e-9
0.107, 1.606e-9
0.106, 1.643e-9
0.105, 1.927e-9
0.104, 2.233e-9
0.103, 2.294e-9
0.102, 2.739e-9
0.101, 2.821e-9
0.100, 3.144e-9
0.099, 3.444e-9
0.098, 3.541e-9
0.097, 4.049e-9
0.096, 4.133e-9
0.095, 4.506e-9
0.094, 4.853e-9
0.093, 4.959e-9
0.092, 5.531e-9
0.091, 5.635e-9
0.090, 6.033e-9
0.089, 6.476e-9
0.088, 6.577e-9
0.087, 7.175e-9
0.086, 7.359e-9
0.085, 7.767e-9
0.084, 8.244e-9
0.083, 8.416e-9
0.082, 9.023e-9
0.081, 9.266e-9
0.080, 9.718e-9
0.079, 1.021e-8
0.078, 1.046e-8
0.077, 1.110e-8
0.076, 1.139e-8
0.075, 1.184e-8
0.074, 1.237e-8
0.073, 1.267e-8
0.072, 1.331e-8
0.071, 1.364e-8
0.070, 1.415e-8
0.069, 1.470e-8
0.068, 1.503e-8
0.067, 1.570e-8
0.066, 1.604e-8
0.065, 1.662e-8
0.064, 1.719e-8
0.063, 1.751e-8
0.062, 1.825e-8
0.061, 1.856e-8
0.060, 1.919e-8
0.059, 1.972e-8
0.058, 2.007e-8
0.057, 2.082e-8
0.056, 2.113e-8
0.055, 2.173e-8
0.054, 2.231e-8
0.053, 2.264e-8
0.052, 2.342e-8
0.051, 2.370e-8
0.050, 2.429e-8
0.049, 2.486e-8
0.048, 2.513e-8
0.047, 2.588e-8
0.046, 2.616e-8
0.045, 2.667e-8
0.044, 2.725e-8
0.043, 2.750e-8
0.042, 2.814e-8
0.041, 2.844e-8
0.040, 2.891e-8
0.039, 2.941e-8
0.038, 2.963e-8
0.037, 3.023e-8
0.036, 3.048e-8
0.035, 3.085e-8
0.034, 3.128e-8
0.033, 3.149e-8
0.032, 3.200e-8
0.031, 3.216e-8
0.030, 3.252e-8
0.029, 3.287e-8
0.028, 3.300e-8
0.027, 3.344e-8
0.026, 3.355e-8
0.025, 3.387e-8
0.024, 3.409e-8
0.023, 3.416e-8
0.022, 3.454e-8
0.021, 3.454e-8
0.020, 3.480e-8
0.019, 3.494e-8
0.018, 3.492e-8
0.017, 3.528e-8
0.016, 3.516e-8
0.015, 3.537e-8
0.014, 3.549e-8
0.013, 3.537e-8
0.012, 3.569e-8
0.011, 3.550e-8
0.010, 3.560e-8
0.009, 3.571e-8
0.008, 3.552e-8
0.007, 3.573e-8
0.006, 3.556e-8
0.005, 3.557e-8
0.004, 3.562e-8
0.003, 3.538e-8
0.002, 3.555e-8
0.001, 3.533e-8
0.000, 3.551e-8
-0.001, 3.537e-8
-0.002, 3.508e-8
-0.003, 3.522e-8
-0.004, 3.495e-8
-0.005, 3.488e-8
-0.006, 3.484e-8
-0.007, 3.455e-8
-0.008, 3.465e-8
-0.009, 3.436e-8
-0.010, 3.429e-8
-0.011, 3.422e-8
-0.012, 3.394e-8
-0.013, 3.399e-8
-0.014, 3.368e-8
-0.015, 3.364e-8
-0.016, 3.351e-8
-0.017, 3.320e-8
-0.018, 3.328e-8
-0.019, 3.292e-8
-0.020, 3.288e-8
-0.021, 3.276e-8
-0.022, 3.242e-8
-0.023, 3.252e-8
-0.024, 3.216e-8
-0.025, 3.208e-8
-0.026, 3.199e-8
-0.027, 3.163e-8
-0.028, 3.174e-8
-0.029, 3.137e-8
-0.030, 3.129e-8
-0.031, 3.121e-8
-0.032, 3.086e-8
-0.033, 3.095e-8
-0.034, 3.061e-8
-0.035, 3.053e-8
-0.036, 3.046e-8
-0.037, 3.011e-8
-0.038, 3.021e-8
-0.039, 2.989e-8
-0.040, 2.981e-8
-0.041, 2.972e-8
-0.042, 2.941e-8
-0.043, 2.950e-8
-0.044, 2.919e-8
-0.045, 2.912e-8
-0.046, 2.905e-8
-0.047, 2.874e-8
-0.048, 2.885e-8
-0.049, 2.854e-8
-0.050, 2.848e-8
-0.051, 2.843e-8
-0.052, 2.813e-8
-0.053, 2.823e-8
-0.054, 2.793e-8
-0.055, 2.792e-8
-0.056, 2.784e-8
-0.057, 2.757e-8
-0.058, 2.770e-8
-0.059, 2.739e-8
-0.060, 2.740e-8
-0.061, 2.732e-8
-0.062, 2.705e-8
-0.063, 2.722e-8
-0.064, 2.691e-8
-0.065, 2.691e-8
-0.066, 2.688e-8
-0.067, 2.661e-8
-0.068, 2.677e-8
-0.069, 2.649e-8
-0.070, 2.649e-8
-0.071, 2.649e-8
-0.072, 2.622e-8
-0.073, 2.639e-8
-0.074, 2.612e-8
-0.075, 2.614e-8
-0.076, 2.614e-8
-0.077, 2.590e-8
-0.078, 2.607e-8
-0.079, 2.582e-8
-0.080, 2.584e-8
-0.081, 2.585e-8
-0.082, 2.561e-8
-0.083, 2.580e-8
-0.084, 2.558e-8
-0.085, 2.559e-8
-0.086, 2.561e-8
-0.087, 2.541e-8
-0.088, 2.558e-8
-0.089, 2.537e-8
-0.090, 2.542e-8
-0.091, 2.542e-8
-0.092, 2.525e-8
-0.093, 2.543e-8
-0.094, 2.520e-8
-0.095, 2.530e-8
-0.096, 2.530e-8
-0.097, 2.512e-8
-0.098, 2.534e-8
-0.099, 2.512e-8
-0.100, 2.520e-8
-0.101, 2.524e-8
-0.102, 2.507e-8
-0.103, 2.529e-8
-0.104, 2.508e-8
-0.105, 2.518e-8
-0.106, 2.521e-8
-0.107, 2.504e-8
-0.108, 2.530e-8
-0.109, 2.507e-8
-0.110, 2.519e-8
-0.111, 2.526e-8
-0.112, 2.506e-8
-0.113, 2.533e-8
-0.114, 2.515e-8
-0.115, 2.525e-8
-0.116, 2.533e-8
-0.117, 2.516e-8
-0.118, 2.540e-8
-0.119, 2.526e-8
-0.120, 2.536e-8
-0.121, 2.543e-8
-0.122, 2.530e-8
-0.123, 2.555e-8
-0.124, 2.540e-8
-0.125, 2.552e-8
-0.126, 2.559e-8
-0.127, 2.547e-8
-0.128, 2.576e-8
-0.129, 2.558e-8
-0.130, 2.573e-8
-0.131, 2.582e-8
-0.132, 2.570e-8
-0.133, 2.595e-8
-0.134, 2.583e-8
-0.135, 2.598e-8
-0.136, 2.605e-8
-0.137, 2.596e-8
-0.138, 2.625e-8
-0.139, 2.609e-8
-0.140, 2.629e-8
-0.141, 2.635e-8
-0.142, 2.625e-8
-0.143, 2.658e-8
-0.144, 2.641e-8
-0.145, 2.660e-8
-0.146, 2.671e-8
-0.147, 2.660e-8
-0.148, 2.693e-8
-0.149, 2.679e-8
-0.150, 2.696e-8
-0.151, 2.709e-8
-0.152, 2.701e-8
-0.153, 2.732e-8
-0.154, 2.720e-8
-0.155, 2.739e-8
-0.156, 2.752e-8
-0.157, 2.742e-8
-0.158, 2.777e-8
-0.159, 2.767e-8
-0.160, 2.784e-8
-0.161, 2.799e-8
-0.162, 2.792e-8
-0.163, 2.823e-8
-0.164, 2.817e-8
-0.165, 2.834e-8
-0.166, 2.849e-8
-0.167, 2.846e-8
-0.168, 2.877e-8
-0.169, 2.868e-8
-0.170, 2.892e-8
-0.171, 2.904e-8
-0.172, 2.902e-8
-0.173, 2.935e-8
-0.174, 2.927e-8
-0.175, 2.952e-8
-0.176, 2.965e-8
-0.177, 2.962e-8
-0.178, 2.998e-8
-0.179, 2.991e-8
-0.180, 3.016e-8
-0.181, 3.030e-8
-0.182, 3.028e-8
-0.183, 3.066e-8
-0.184, 3.058e-8
-0.185, 3.084e-8
-0.186, 3.100e-8
-0.187, 3.099e-8
-0.188, 3.139e-8
-0.189, 3.130e-8
-0.190, 3.156e-8
-0.191, 3.176e-8
-0.192, 3.174e-8
-0.193, 3.214e-8
-0.194, 3.210e-8
-0.195, 3.235e-8
-0.196, 3.257e-8
-0.197, 3.255e-8
-0.198, 3.294e-8
-0.199, 3.293e-8
