Mar. 16, 2023   09:24:57
Cyclic Voltammetry
File: c:/users/oliverrz/desktop/electrolab/data/2023_03_16\fcmeoh_macros_500_um\electrode6_cv_150mvs_500_um.bin
Data Source:  Experiment
Instrument Model:  CHI760E
Header: CV
Note: 

Init E (V) = -0.2
High E (V) = 0.3
Low E (V) = -0.2
Final E (V) = -0.2
Init P/N = P
Scan Rate (V/s) = 0.15
Segment = 3
Sample Interval (V) = 0.001
Quiet Time (sec) = 2
Sensitivity (A/V) = 1e-7

Results:

Channel 1:
Segment 1:
Ep = 0.111V
ip = -3.278e-8A
Ah = -1.309e-8C

Segment 2:
Ep = 0.045V
ip = 3.306e-8A
Ah = 1.420e-8C

Segment 3:

Potential/V, Current/A

-0.200, 1.621e-8
-0.199, 1.515e-8
-0.198, 1.474e-8
-0.197, 1.458e-8
-0.196, 1.423e-8
-0.195, 1.408e-8
-0.194, 1.385e-8
-0.193, 1.358e-8
-0.192, 1.349e-8
-0.191, 1.321e-8
-0.190, 1.307e-8
-0.189, 1.289e-8
-0.188, 1.265e-8
-0.187, 1.257e-8
-0.186, 1.231e-8
-0.185, 1.220e-8
-0.184, 1.203e-8
-0.183, 1.183e-8
-0.182, 1.174e-8
-0.181, 1.150e-8
-0.180, 1.139e-8
-0.179, 1.123e-8
-0.178, 1.104e-8
-0.177, 1.095e-8
-0.176, 1.075e-8
-0.175, 1.066e-8
-0.174, 1.048e-8
-0.173, 1.032e-8
-0.172, 1.026e-8
-0.171, 1.002e-8
-0.170, 9.972e-9
-0.169, 9.782e-9
-0.168, 9.636e-9
-0.167, 9.582e-9
-0.166, 9.341e-9
-0.165, 9.310e-9
-0.164, 9.149e-9
-0.163, 8.987e-9
-0.162, 8.956e-9
-0.161, 8.707e-9
-0.160, 8.696e-9
-0.159, 8.531e-9
-0.158, 8.352e-9
-0.157, 8.343e-9
-0.156, 8.116e-9
-0.155, 8.086e-9
-0.154, 7.940e-9
-0.153, 7.778e-9
-0.152, 7.777e-9
-0.151, 7.555e-9
-0.150, 7.508e-9
-0.149, 7.396e-9
-0.148, 7.240e-9
-0.147, 7.228e-9
-0.146, 7.028e-9
-0.145, 6.985e-9
-0.144, 6.868e-9
-0.143, 6.725e-9
-0.142, 6.704e-9
-0.141, 6.511e-9
-0.140, 6.486e-9
-0.139, 6.366e-9
-0.138, 6.238e-9
-0.137, 6.201e-9
-0.136, 6.035e-9
-0.135, 6.016e-9
-0.134, 5.877e-9
-0.133, 5.765e-9
-0.132, 5.754e-9
-0.131, 5.559e-9
-0.130, 5.566e-9
-0.129, 5.416e-9
-0.128, 5.304e-9
-0.127, 5.306e-9
-0.126, 5.105e-9
-0.125, 5.120e-9
-0.124, 4.992e-9
-0.123, 4.870e-9
-0.122, 4.886e-9
-0.121, 4.677e-9
-0.120, 4.697e-9
-0.119, 4.587e-9
-0.118, 4.442e-9
-0.117, 4.477e-9
-0.116, 4.277e-9
-0.115, 4.291e-9
-0.114, 4.184e-9
-0.113, 4.048e-9
-0.112, 4.087e-9
-0.111, 3.894e-9
-0.110, 3.898e-9
-0.109, 3.797e-9
-0.108, 3.678e-9
-0.107, 3.692e-9
-0.106, 3.528e-9
-0.105, 3.509e-9
-0.104, 3.432e-9
-0.103, 3.300e-9
-0.102, 3.305e-9
-0.101, 3.152e-9
-0.100, 3.154e-9
-0.099, 3.053e-9
-0.098, 2.964e-9
-0.097, 2.947e-9
-0.096, 2.806e-9
-0.095, 2.807e-9
-0.094, 2.691e-9
-0.093, 2.611e-9
-0.092, 2.608e-9
-0.091, 2.451e-9
-0.090, 2.475e-9
-0.089, 2.339e-9
-0.088, 2.280e-9
-0.087, 2.288e-9
-0.086, 2.101e-9
-0.085, 2.140e-9
-0.084, 2.028e-9
-0.083, 1.934e-9
-0.082, 1.967e-9
-0.081, 1.773e-9
-0.080, 1.813e-9
-0.079, 1.714e-9
-0.078, 1.592e-9
-0.077, 1.628e-9
-0.076, 1.456e-9
-0.075, 1.479e-9
-0.074, 1.386e-9
-0.073, 1.273e-9
-0.072, 1.311e-9
-0.071, 1.149e-9
-0.070, 1.154e-9
-0.069, 1.076e-9
-0.068, 9.620e-10
-0.067, 9.935e-10
-0.066, 8.278e-10
-0.065, 8.288e-10
-0.064, 7.398e-10
-0.063, 6.478e-10
-0.062, 6.532e-10
-0.061, 5.041e-10
-0.060, 5.195e-10
-0.059, 4.083e-10
-0.058, 3.262e-10
-0.057, 3.285e-10
-0.056, 1.778e-10
-0.055, 2.048e-10
-0.054, 8.752e-11
-0.053, 2.156e-12
-0.052, 9.104e-12
-0.051, -1.593e-10
-0.050, -1.277e-10
-0.049, -2.521e-10
-0.048, -3.254e-10
-0.047, -3.191e-10
-0.046, -4.990e-10
-0.045, -4.563e-10
-0.044, -5.909e-10
-0.043, -6.745e-10
-0.042, -6.548e-10
-0.041, -8.527e-10
-0.040, -8.154e-10
-0.039, -9.364e-10
-0.038, -1.048e-9
-0.037, -1.019e-9
-0.036, -1.214e-9
-0.035, -1.191e-9
-0.034, -1.301e-9
-0.033, -1.426e-9
-0.032, -1.404e-9
-0.031, -1.584e-9
-0.030, -1.596e-9
-0.029, -1.704e-9
-0.028, -1.827e-9
-0.027, -1.827e-9
-0.026, -2.024e-9
-0.025, -2.026e-9
-0.024, -2.150e-9
-0.023, -2.253e-9
-0.022, -2.294e-9
-0.021, -2.468e-9
-0.020, -2.490e-9
-0.019, -2.623e-9
-0.018, -2.739e-9
-0.017, -2.785e-9
-0.016, -2.971e-9
-0.015, -2.992e-9
-0.014, -3.161e-9
-0.013, -3.283e-9
-0.012, -3.334e-9
-0.011, -3.539e-9
-0.010, -3.555e-9
-0.009, -3.750e-9
-0.008, -3.873e-9
-0.007, -3.930e-9
-0.006, -4.182e-9
-0.005, -4.207e-9
-0.004, -4.409e-9
-0.003, -4.562e-9
-0.002, -4.625e-9
-0.001, -4.907e-9
-0.000, -5.050e-9
0.001, -5.186e-9
0.002, -5.366e-9
0.003, -5.432e-9
0.004, -5.731e-9
0.005, -5.803e-9
0.006, -6.022e-9
0.007, -6.249e-9
0.008, -6.339e-9
0.009, -6.643e-9
0.010, -6.761e-9
0.011, -7.005e-9
0.012, -7.258e-9
0.013, -7.398e-9
0.014, -7.707e-9
0.015, -7.883e-9
0.016, -8.144e-9
0.017, -8.396e-9
0.018, -8.602e-9
0.019, -8.927e-9
0.020, -9.115e-9
0.021, -9.434e-9
0.022, -9.713e-9
0.023, -9.950e-9
0.024, -1.032e-8
0.025, -1.054e-8
0.026, -1.091e-8
0.027, -1.124e-8
0.028, -1.151e-8
0.029, -1.189e-8
0.030, -1.216e-8
0.031, -1.258e-8
0.032, -1.290e-8
0.033, -1.323e-8
0.034, -1.370e-8
0.035, -1.397e-8
0.036, -1.445e-8
0.037, -1.482e-8
0.038, -1.518e-8
0.039, -1.571e-8
0.040, -1.600e-8
0.041, -1.650e-8
0.042, -1.697e-8
0.043, -1.733e-8
0.044, -1.787e-8
0.045, -1.825e-8
0.046, -1.876e-8
0.047, -1.926e-8
0.048, -1.966e-8
0.049, -2.024e-8
0.050, -2.067e-8
0.051, -2.122e-8
0.052, -2.175e-8
0.053, -2.221e-8
0.054, -2.278e-8
0.055, -2.327e-8
0.056, -2.380e-8
0.057, -2.435e-8
0.058, -2.485e-8
0.059, -2.544e-8
0.060, -2.594e-8
0.061, -2.650e-8
0.062, -2.704e-8
0.063, -2.757e-8
0.064, -2.815e-8
0.065, -2.864e-8
0.066, -2.926e-8
0.067, -2.974e-8
0.068, -3.028e-8
0.069, -3.086e-8
0.070, -3.130e-8
0.071, -3.193e-8
0.072, -3.240e-8
0.073, -3.287e-8
0.074, -3.347e-8
0.075, -3.386e-8
0.076, -3.446e-8
0.077, -3.489e-8
0.078, -3.533e-8
0.079, -3.590e-8
0.080, -3.621e-8
0.081, -3.675e-8
0.082, -3.718e-8
0.083, -3.751e-8
0.084, -3.803e-8
0.085, -3.828e-8
0.086, -3.873e-8
0.087, -3.914e-8
0.088, -3.938e-8
0.089, -3.982e-8
0.090, -4.010e-8
0.091, -4.040e-8
0.092, -4.072e-8
0.093, -4.093e-8
0.094, -4.125e-8
0.095, -4.145e-8
0.096, -4.170e-8
0.097, -4.190e-8
0.098, -4.208e-8
0.099, -4.230e-8
0.100, -4.241e-8
0.101, -4.259e-8
0.102, -4.275e-8
0.103, -4.284e-8
0.104, -4.298e-8
0.105, -4.299e-8
0.106, -4.315e-8
0.107, -4.317e-8
0.108, -4.320e-8
0.109, -4.329e-8
0.110, -4.321e-8
0.111, -4.333e-8
0.112, -4.327e-8
0.113, -4.322e-8
0.114, -4.329e-8
0.115, -4.314e-8
0.116, -4.317e-8
0.117, -4.310e-8
0.118, -4.297e-8
0.119, -4.300e-8
0.120, -4.280e-8
0.121, -4.277e-8
0.122, -4.268e-8
0.123, -4.251e-8
0.124, -4.248e-8
0.125, -4.225e-8
0.126, -4.220e-8
0.127, -4.206e-8
0.128, -4.187e-8
0.129, -4.183e-8
0.130, -4.156e-8
0.131, -4.146e-8
0.132, -4.132e-8
0.133, -4.109e-8
0.134, -4.101e-8
0.135, -4.076e-8
0.136, -4.064e-8
0.137, -4.045e-8
0.138, -4.026e-8
0.139, -4.013e-8
0.140, -3.987e-8
0.141, -3.976e-8
0.142, -3.956e-8
0.143, -3.934e-8
0.144, -3.923e-8
0.145, -3.895e-8
0.146, -3.884e-8
0.147, -3.865e-8
0.148, -3.840e-8
0.149, -3.831e-8
0.150, -3.802e-8
0.151, -3.792e-8
0.152, -3.771e-8
0.153, -3.749e-8
0.154, -3.742e-8
0.155, -3.711e-8
0.156, -3.703e-8
0.157, -3.682e-8
0.158, -3.659e-8
0.159, -3.654e-8
0.160, -3.622e-8
0.161, -3.613e-8
0.162, -3.598e-8
0.163, -3.571e-8
0.164, -3.568e-8
0.165, -3.540e-8
0.166, -3.529e-8
0.167, -3.516e-8
0.168, -3.492e-8
0.169, -3.486e-8
0.170, -3.462e-8
0.171, -3.452e-8
0.172, -3.437e-8
0.173, -3.415e-8
0.174, -3.410e-8
0.175, -3.387e-8
0.176, -3.377e-8
0.177, -3.365e-8
0.178, -3.344e-8
0.179, -3.340e-8
0.180, -3.317e-8
0.181, -3.310e-8
0.182, -3.294e-8
0.183, -3.278e-8
0.184, -3.273e-8
0.185, -3.251e-8
0.186, -3.247e-8
0.187, -3.232e-8
0.188, -3.215e-8
0.189, -3.214e-8
0.190, -3.190e-8
0.191, -3.188e-8
0.192, -3.176e-8
0.193, -3.157e-8
0.194, -3.159e-8
0.195, -3.136e-8
0.196, -3.134e-8
0.197, -3.121e-8
0.198, -3.105e-8
0.199, -3.107e-8
0.200, -3.084e-8
0.201, -3.083e-8
0.202, -3.073e-8
0.203, -3.057e-8
0.204, -3.061e-8
0.205, -3.039e-8
0.206, -3.037e-8
0.207, -3.031e-8
0.208, -3.013e-8
0.209, -3.016e-8
0.210, -2.999e-8
0.211, -2.995e-8
0.212, -2.989e-8
0.213, -2.976e-8
0.214, -2.976e-8
0.215, -2.962e-8
0.216, -2.960e-8
0.217, -2.952e-8
0.218, -2.942e-8
0.219, -2.944e-8
0.220, -2.926e-8
0.221, -2.927e-8
0.222, -2.921e-8
0.223, -2.910e-8
0.224, -2.913e-8
0.225, -2.897e-8
0.226, -2.899e-8
0.227, -2.892e-8
0.228, -2.884e-8
0.229, -2.887e-8
0.230, -2.872e-8
0.231, -2.876e-8
0.232, -2.867e-8
0.233, -2.858e-8
0.234, -2.866e-8
0.235, -2.848e-8
0.236, -2.853e-8
0.237, -2.847e-8
0.238, -2.838e-8
0.239, -2.847e-8
0.240, -2.830e-8
0.241, -2.833e-8
0.242, -2.831e-8
0.243, -2.822e-8
0.244, -2.829e-8
0.245, -2.815e-8
0.246, -2.820e-8
0.247, -2.817e-8
0.248, -2.808e-8
0.249, -2.817e-8
0.250, -2.804e-8
0.251, -2.809e-8
0.252, -2.807e-8
0.253, -2.800e-8
0.254, -2.808e-8
0.255, -2.798e-8
0.256, -2.802e-8
0.257, -2.801e-8
0.258, -2.797e-8
0.259, -2.802e-8
0.260, -2.793e-8
0.261, -2.800e-8
0.262, -2.795e-8
0.263, -2.794e-8
0.264, -2.802e-8
0.265, -2.789e-8
0.266, -2.800e-8
0.267, -2.798e-8
0.268, -2.793e-8
0.269, -2.805e-8
0.270, -2.794e-8
0.271, -2.803e-8
0.272, -2.801e-8
0.273, -2.798e-8
0.274, -2.810e-8
0.275, -2.798e-8
0.276, -2.809e-8
0.277, -2.808e-8
0.278, -2.805e-8
0.279, -2.819e-8
0.280, -2.806e-8
0.281, -2.819e-8
0.282, -2.820e-8
0.283, -2.816e-8
0.284, -2.829e-8
0.285, -2.820e-8
0.286, -2.829e-8
0.287, -2.832e-8
0.288, -2.829e-8
0.289, -2.841e-8
0.290, -2.836e-8
0.291, -2.844e-8
0.292, -2.847e-8
0.293, -2.846e-8
0.294, -2.858e-8
0.295, -2.851e-8
0.296, -2.863e-8
0.297, -2.864e-8
0.298, -2.865e-8
0.299, -2.877e-8
0.300, -2.577e-8
0.299, -2.386e-8
0.298, -2.330e-8
0.297, -2.282e-8
0.296, -2.259e-8
0.295, -2.219e-8
0.294, -2.201e-8
0.293, -2.175e-8
0.292, -2.148e-8
0.291, -2.139e-8
0.290, -2.106e-8
0.289, -2.096e-8
0.288, -2.077e-8
0.287, -2.055e-8
0.286, -2.049e-8
0.285, -2.024e-8
0.284, -2.014e-8
0.283, -2.000e-8
0.282, -1.981e-8
0.281, -1.976e-8
0.280, -1.955e-8
0.279, -1.950e-8
0.278, -1.935e-8
0.277, -1.921e-8
0.276, -1.917e-8
0.275, -1.898e-8
0.274, -1.895e-8
0.273, -1.881e-8
0.272, -1.867e-8
0.271, -1.866e-8
0.270, -1.846e-8
0.269, -1.845e-8
0.268, -1.831e-8
0.267, -1.821e-8
0.266, -1.820e-8
0.265, -1.800e-8
0.264, -1.802e-8
0.263, -1.788e-8
0.262, -1.778e-8
0.261, -1.780e-8
0.260, -1.757e-8
0.259, -1.762e-8
0.258, -1.750e-8
0.257, -1.737e-8
0.256, -1.741e-8
0.255, -1.722e-8
0.254, -1.722e-8
0.253, -1.715e-8
0.252, -1.702e-8
0.251, -1.706e-8
0.250, -1.688e-8
0.249, -1.688e-8
0.248, -1.679e-8
0.247, -1.670e-8
0.246, -1.673e-8
0.245, -1.654e-8
0.244, -1.656e-8
0.243, -1.648e-8
0.242, -1.638e-8
0.241, -1.641e-8
0.240, -1.625e-8
0.239, -1.626e-8
0.238, -1.618e-8
0.237, -1.609e-8
0.236, -1.610e-8
0.235, -1.595e-8
0.234, -1.597e-8
0.233, -1.586e-8
0.232, -1.579e-8
0.231, -1.582e-8
0.230, -1.563e-8
0.229, -1.568e-8
0.228, -1.558e-8
0.227, -1.550e-8
0.226, -1.554e-8
0.225, -1.535e-8
0.224, -1.540e-8
0.223, -1.531e-8
0.222, -1.521e-8
0.221, -1.526e-8
0.220, -1.506e-8
0.219, -1.512e-8
0.218, -1.501e-8
0.217, -1.492e-8
0.216, -1.497e-8
0.215, -1.478e-8
0.214, -1.481e-8
0.213, -1.474e-8
0.212, -1.461e-8
0.211, -1.469e-8
0.210, -1.450e-8
0.209, -1.451e-8
0.208, -1.443e-8
0.207, -1.434e-8
0.206, -1.435e-8
0.205, -1.420e-8
0.204, -1.420e-8
0.203, -1.413e-8
0.202, -1.403e-8
0.201, -1.405e-8
0.200, -1.388e-8
0.199, -1.390e-8
0.198, -1.381e-8
0.197, -1.369e-8
0.196, -1.371e-8
0.195, -1.355e-8
0.194, -1.355e-8
0.193, -1.345e-8
0.192, -1.335e-8
0.191, -1.335e-8
0.190, -1.317e-8
0.189, -1.320e-8
0.188, -1.306e-8
0.187, -1.297e-8
0.186, -1.299e-8
0.185, -1.275e-8
0.184, -1.279e-8
0.183, -1.267e-8
0.182, -1.253e-8
0.181, -1.254e-8
0.180, -1.232e-8
0.179, -1.232e-8
0.178, -1.219e-8
0.177, -1.207e-8
0.176, -1.205e-8
0.175, -1.184e-8
0.174, -1.182e-8
0.173, -1.168e-8
0.172, -1.153e-8
0.171, -1.153e-8
0.170, -1.129e-8
0.169, -1.125e-8
0.168, -1.109e-8
0.167, -1.093e-8
0.166, -1.090e-8
0.165, -1.067e-8
0.164, -1.058e-8
0.163, -1.043e-8
0.162, -1.027e-8
0.161, -1.017e-8
0.160, -9.947e-9
0.159, -9.858e-9
0.158, -9.652e-9
0.157, -9.487e-9
0.156, -9.364e-9
0.155, -9.098e-9
0.154, -9.006e-9
0.153, -8.769e-9
0.152, -8.564e-9
0.151, -8.453e-9
0.150, -8.139e-9
0.149, -8.024e-9
0.148, -7.761e-9
0.147, -7.541e-9
0.146, -7.389e-9
0.145, -7.029e-9
0.144, -6.915e-9
0.143, -6.590e-9
0.142, -6.330e-9
0.141, -6.159e-9
0.140, -5.759e-9
0.139, -5.615e-9
0.138, -5.281e-9
0.137, -4.960e-9
0.136, -4.769e-9
0.135, -4.345e-9
0.134, -4.127e-9
0.133, -3.783e-9
0.132, -3.430e-9
0.131, -3.192e-9
0.130, -2.737e-9
0.129, -2.468e-9
0.128, -2.068e-9
0.127, -1.703e-9
0.126, -1.397e-9
0.125, -9.197e-10
0.124, -5.917e-10
0.123, -1.967e-10
0.122, 2.447e-10
0.121, 6.044e-10
0.120, 1.106e-9
0.119, 1.472e-9
0.118, 1.933e-9
0.117, 2.372e-9
0.116, 2.810e-9
0.115, 3.324e-9
0.114, 3.712e-9
0.113, 4.260e-9
0.112, 4.702e-9
0.111, 5.131e-9
0.110, 5.730e-9
0.109, 6.117e-9
0.108, 6.715e-9
0.107, 7.182e-9
0.106, 7.639e-9
0.105, 8.264e-9
0.104, 8.706e-9
0.103, 9.298e-9
0.102, 9.813e-9
0.101, 1.028e-8
0.100, 1.093e-8
0.099, 1.132e-8
0.098, 1.193e-8
0.097, 1.246e-8
0.096, 1.289e-8
0.095, 1.356e-8
0.094, 1.399e-8
0.093, 1.455e-8
0.092, 1.511e-8
0.091, 1.553e-8
0.090, 1.615e-8
0.089, 1.661e-8
0.088, 1.712e-8
0.087, 1.764e-8
0.086, 1.808e-8
0.085, 1.862e-8
0.084, 1.906e-8
0.083, 1.953e-8
0.082, 2.000e-8
0.081, 2.041e-8
0.080, 2.093e-8
0.079, 2.129e-8
0.078, 2.174e-8
0.077, 2.214e-8
0.076, 2.251e-8
0.075, 2.294e-8
0.074, 2.323e-8
0.073, 2.364e-8
0.072, 2.397e-8
0.071, 2.427e-8
0.070, 2.466e-8
0.069, 2.486e-8
0.068, 2.524e-8
0.067, 2.545e-8
0.066, 2.568e-8
0.065, 2.603e-8
0.064, 2.617e-8
0.063, 2.644e-8
0.062, 2.662e-8
0.061, 2.672e-8
0.060, 2.704e-8
0.059, 2.708e-8
0.058, 2.726e-8
0.057, 2.741e-8
0.056, 2.747e-8
0.055, 2.767e-8
0.054, 2.767e-8
0.053, 2.779e-8
0.052, 2.789e-8
0.051, 2.786e-8
0.050, 2.799e-8
0.049, 2.796e-8
0.048, 2.800e-8
0.047, 2.801e-8
0.046, 2.797e-8
0.045, 2.803e-8
0.044, 2.796e-8
0.043, 2.794e-8
0.042, 2.793e-8
0.041, 2.783e-8
0.040, 2.785e-8
0.039, 2.773e-8
0.038, 2.771e-8
0.037, 2.762e-8
0.036, 2.750e-8
0.035, 2.749e-8
0.034, 2.733e-8
0.033, 2.729e-8
0.032, 2.715e-8
0.031, 2.703e-8
0.030, 2.701e-8
0.029, 2.680e-8
0.028, 2.677e-8
0.027, 2.660e-8
0.026, 2.645e-8
0.025, 2.643e-8
0.024, 2.620e-8
0.023, 2.613e-8
0.022, 2.600e-8
0.021, 2.579e-8
0.020, 2.580e-8
0.019, 2.554e-8
0.018, 2.546e-8
0.017, 2.536e-8
0.016, 2.513e-8
0.015, 2.510e-8
0.014, 2.489e-8
0.013, 2.479e-8
0.012, 2.468e-8
0.011, 2.446e-8
0.010, 2.443e-8
0.009, 2.421e-8
0.008, 2.412e-8
0.007, 2.399e-8
0.006, 2.380e-8
0.005, 2.377e-8
0.004, 2.357e-8
0.003, 2.347e-8
0.002, 2.336e-8
0.001, 2.318e-8
0.000, 2.325e-8
-0.001, 2.296e-8
-0.002, 2.290e-8
-0.003, 2.277e-8
-0.004, 2.260e-8
-0.005, 2.258e-8
-0.006, 2.236e-8
-0.007, 2.234e-8
-0.008, 2.221e-8
-0.009, 2.204e-8
-0.010, 2.205e-8
-0.011, 2.184e-8
-0.012, 2.182e-8
-0.013, 2.170e-8
-0.014, 2.153e-8
-0.015, 2.156e-8
-0.016, 2.137e-8
-0.017, 2.133e-8
-0.018, 2.125e-8
-0.019, 2.109e-8
-0.020, 2.112e-8
-0.021, 2.093e-8
-0.022, 2.091e-8
-0.023, 2.084e-8
-0.024, 2.069e-8
-0.025, 2.073e-8
-0.026, 2.056e-8
-0.027, 2.054e-8
-0.028, 2.050e-8
-0.029, 2.032e-8
-0.030, 2.039e-8
-0.031, 2.024e-8
-0.032, 2.021e-8
-0.033, 2.017e-8
-0.034, 2.005e-8
-0.035, 2.008e-8
-0.036, 1.997e-8
-0.037, 1.994e-8
-0.038, 1.990e-8
-0.039, 1.980e-8
-0.040, 1.985e-8
-0.041, 1.971e-8
-0.042, 1.973e-8
-0.043, 1.967e-8
-0.044, 1.959e-8
-0.045, 1.964e-8
-0.046, 1.951e-8
-0.047, 1.954e-8
-0.048, 1.950e-8
-0.049, 1.941e-8
-0.050, 1.948e-8
-0.051, 1.936e-8
-0.052, 1.941e-8
-0.053, 1.935e-8
-0.054, 1.928e-8
-0.055, 1.938e-8
-0.056, 1.923e-8
-0.057, 1.929e-8
-0.058, 1.927e-8
-0.059, 1.917e-8
-0.060, 1.929e-8
-0.061, 1.916e-8
-0.062, 1.921e-8
-0.063, 1.923e-8
-0.064, 1.913e-8
-0.065, 1.923e-8
-0.066, 1.913e-8
-0.067, 1.918e-8
-0.068, 1.918e-8
-0.069, 1.912e-8
-0.070, 1.921e-8
-0.071, 1.913e-8
-0.072, 1.920e-8
-0.073, 1.919e-8
-0.074, 1.913e-8
-0.075, 1.925e-8
-0.076, 1.917e-8
-0.077, 1.922e-8
-0.078, 1.923e-8
-0.079, 1.920e-8
-0.080, 1.930e-8
-0.081, 1.923e-8
-0.082, 1.930e-8
-0.083, 1.929e-8
-0.084, 1.930e-8
-0.085, 1.938e-8
-0.086, 1.931e-8
-0.087, 1.942e-8
-0.088, 1.941e-8
-0.089, 1.939e-8
-0.090, 1.953e-8
-0.091, 1.944e-8
-0.092, 1.955e-8
-0.093, 1.956e-8
-0.094, 1.953e-8
-0.095, 1.969e-8
-0.096, 1.960e-8
-0.097, 1.971e-8
-0.098, 1.975e-8
-0.099, 1.972e-8
-0.100, 1.988e-8
-0.101, 1.980e-8
-0.102, 1.994e-8
-0.103, 1.997e-8
-0.104, 1.993e-8
-0.105, 2.010e-8
-0.106, 2.004e-8
-0.107, 2.015e-8
-0.108, 2.022e-8
-0.109, 2.017e-8
-0.110, 2.034e-8
-0.111, 2.031e-8
-0.112, 2.040e-8
-0.113, 2.046e-8
-0.114, 2.048e-8
-0.115, 2.063e-8
-0.116, 2.060e-8
-0.117, 2.072e-8
-0.118, 2.076e-8
-0.119, 2.078e-8
-0.120, 2.095e-8
-0.121, 2.091e-8
-0.122, 2.105e-8
-0.123, 2.110e-8
-0.124, 2.113e-8
-0.125, 2.128e-8
-0.126, 2.127e-8
-0.127, 2.142e-8
-0.128, 2.147e-8
-0.129, 2.151e-8
-0.130, 2.167e-8
-0.131, 2.164e-8
-0.132, 2.184e-8
-0.133, 2.186e-8
-0.134, 2.190e-8
-0.135, 2.211e-8
-0.136, 2.206e-8
-0.137, 2.223e-8
-0.138, 2.232e-8
-0.139, 2.233e-8
-0.140, 2.255e-8
-0.141, 2.252e-8
-0.142, 2.268e-8
-0.143, 2.277e-8
-0.144, 2.281e-8
-0.145, 2.300e-8
-0.146, 2.301e-8
-0.147, 2.318e-8
-0.148, 2.328e-8
-0.149, 2.331e-8
-0.150, 2.352e-8
-0.151, 2.353e-8
-0.152, 2.371e-8
-0.153, 2.381e-8
-0.154, 2.387e-8
-0.155, 2.406e-8
-0.156, 2.410e-8
-0.157, 2.426e-8
-0.158, 2.437e-8
-0.159, 2.446e-8
-0.160, 2.465e-8
-0.161, 2.469e-8
-0.162, 2.488e-8
-0.163, 2.498e-8
-0.164, 2.506e-8
-0.165, 2.527e-8
-0.166, 2.531e-8
-0.167, 2.552e-8
-0.168, 2.562e-8
-0.169, 2.571e-8
-0.170, 2.594e-8
-0.171, 2.597e-8
-0.172, 2.619e-8
-0.173, 2.629e-8
-0.174, 2.639e-8
-0.175, 2.664e-8
-0.176, 2.666e-8
-0.177, 2.689e-8
-0.178, 2.701e-8
-0.179, 2.711e-8
-0.180, 2.738e-8
-0.181, 2.739e-8
-0.182, 2.763e-8
-0.183, 2.778e-8
-0.184, 2.786e-8
-0.185, 2.811e-8
-0.186, 2.818e-8
-0.187, 2.840e-8
-0.188, 2.857e-8
-0.189, 2.865e-8
-0.190, 2.892e-8
-0.191, 2.900e-8
-0.192, 2.923e-8
-0.193, 2.937e-8
-0.194, 2.951e-8
-0.195, 2.975e-8
-0.196, 2.985e-8
-0.197, 3.008e-8
-0.198, 3.023e-8
-0.199, 3.038e-8
