Mar. 16, 2023   09:18:07
Cyclic Voltammetry
File: c:/users/oliverrz/desktop/electrolab/data/2023_03_16\fcmeoh_macros_500_um\electrode1_cv_100mvs_500_um.bin
Data Source:  Experiment
Instrument Model:  CHI760E
Header: CV
Note: 

Init E (V) = -0.2
High E (V) = 0.3
Low E (V) = -0.2
Final E (V) = -0.2
Init P/N = P
Scan Rate (V/s) = 0.1
Segment = 3
Sample Interval (V) = 0.001
Quiet Time (sec) = 2
Sensitivity (A/V) = 1e-7

Results:

Channel 1:
Segment 1:
Ep = 0.092V
ip = -3.222e-8A
Ah = -1.965e-8C

Segment 2:
Ep = 0.029V
ip = 3.045e-8A
Ah = 1.891e-8C

Segment 3:

Potential/V, Current/A

-0.200, 3.664e-9
-0.199, 3.078e-9
-0.198, 2.892e-9
-0.197, 2.899e-9
-0.196, 2.774e-9
-0.195, 2.787e-9
-0.194, 2.748e-9
-0.193, 2.668e-9
-0.192, 2.708e-9
-0.191, 2.604e-9
-0.190, 2.621e-9
-0.189, 2.596e-9
-0.188, 2.522e-9
-0.187, 2.569e-9
-0.186, 2.473e-9
-0.185, 2.490e-9
-0.184, 2.469e-9
-0.183, 2.399e-9
-0.182, 2.447e-9
-0.181, 2.356e-9
-0.180, 2.372e-9
-0.179, 2.352e-9
-0.178, 2.286e-9
-0.177, 2.334e-9
-0.176, 2.251e-9
-0.175, 2.268e-9
-0.174, 2.247e-9
-0.173, 2.185e-9
-0.172, 2.235e-9
-0.171, 2.148e-9
-0.170, 2.174e-9
-0.169, 2.153e-9
-0.168, 2.090e-9
-0.167, 2.144e-9
-0.166, 2.052e-9
-0.165, 2.081e-9
-0.164, 2.061e-9
-0.163, 2.003e-9
-0.162, 2.057e-9
-0.161, 1.966e-9
-0.160, 1.996e-9
-0.159, 1.977e-9
-0.158, 1.916e-9
-0.157, 1.976e-9
-0.156, 1.885e-9
-0.155, 1.915e-9
-0.154, 1.896e-9
-0.153, 1.833e-9
-0.152, 1.892e-9
-0.151, 1.810e-9
-0.150, 1.836e-9
-0.149, 1.825e-9
-0.148, 1.759e-9
-0.147, 1.822e-9
-0.146, 1.736e-9
-0.145, 1.762e-9
-0.144, 1.754e-9
-0.143, 1.692e-9
-0.142, 1.750e-9
-0.141, 1.669e-9
-0.140, 1.689e-9
-0.139, 1.689e-9
-0.138, 1.627e-9
-0.137, 1.682e-9
-0.136, 1.602e-9
-0.135, 1.629e-9
-0.134, 1.620e-9
-0.133, 1.560e-9
-0.132, 1.614e-9
-0.131, 1.537e-9
-0.130, 1.568e-9
-0.129, 1.556e-9
-0.128, 1.495e-9
-0.127, 1.552e-9
-0.126, 1.474e-9
-0.125, 1.503e-9
-0.124, 1.492e-9
-0.123, 1.436e-9
-0.122, 1.495e-9
-0.121, 1.411e-9
-0.120, 1.443e-9
-0.119, 1.434e-9
-0.118, 1.374e-9
-0.117, 1.435e-9
-0.116, 1.349e-9
-0.115, 1.380e-9
-0.114, 1.375e-9
-0.113, 1.308e-9
-0.112, 1.376e-9
-0.111, 1.294e-9
-0.110, 1.320e-9
-0.109, 1.316e-9
-0.108, 1.252e-9
-0.107, 1.315e-9
-0.106, 1.236e-9
-0.105, 1.257e-9
-0.104, 1.254e-9
-0.103, 1.190e-9
-0.102, 1.249e-9
-0.101, 1.172e-9
-0.100, 1.192e-9
-0.099, 1.191e-9
-0.098, 1.127e-9
-0.097, 1.189e-9
-0.096, 1.108e-9
-0.095, 1.130e-9
-0.094, 1.122e-9
-0.093, 1.061e-9
-0.092, 1.117e-9
-0.091, 1.038e-9
-0.090, 1.060e-9
-0.089, 1.048e-9
-0.088, 9.893e-10
-0.087, 1.042e-9
-0.086, 9.625e-10
-0.085, 9.867e-10
-0.084, 9.714e-10
-0.083, 9.086e-10
-0.082, 9.660e-10
-0.081, 8.769e-10
-0.080, 9.026e-10
-0.079, 8.885e-10
-0.078, 8.201e-10
-0.077, 8.735e-10
-0.076, 7.825e-10
-0.075, 8.037e-10
-0.074, 7.940e-10
-0.073, 7.208e-10
-0.072, 7.753e-10
-0.071, 6.860e-10
-0.070, 7.010e-10
-0.069, 6.875e-10
-0.068, 6.046e-10
-0.067, 6.674e-10
-0.066, 5.688e-10
-0.065, 5.791e-10
-0.064, 5.610e-10
-0.063, 4.805e-10
-0.062, 5.262e-10
-0.061, 4.378e-10
-0.060, 4.359e-10
-0.059, 4.248e-10
-0.058, 3.362e-10
-0.057, 3.790e-10
-0.056, 2.821e-10
-0.055, 2.806e-10
-0.054, 2.571e-10
-0.053, 1.718e-10
-0.052, 2.045e-10
-0.051, 9.955e-11
-0.050, 9.611e-11
-0.049, 6.470e-11
-0.048, -2.184e-11
-0.047, 6.103e-13
-0.046, -1.030e-10
-0.045, -1.159e-10
-0.044, -1.586e-10
-0.043, -2.552e-10
-0.042, -2.355e-10
-0.041, -3.515e-10
-0.040, -3.689e-10
-0.039, -4.208e-10
-0.038, -5.286e-10
-0.037, -5.148e-10
-0.036, -6.435e-10
-0.035, -6.723e-10
-0.034, -7.264e-10
-0.033, -8.517e-10
-0.032, -8.470e-10
-0.031, -9.854e-10
-0.030, -1.027e-9
-0.029, -1.093e-9
-0.028, -1.232e-9
-0.027, -1.235e-9
-0.026, -1.391e-9
-0.025, -1.454e-9
-0.024, -1.528e-9
-0.023, -1.684e-9
-0.022, -1.706e-9
-0.021, -1.872e-9
-0.020, -1.950e-9
-0.019, -2.042e-9
-0.018, -2.214e-9
-0.017, -2.261e-9
-0.016, -2.438e-9
-0.015, -2.536e-9
-0.014, -2.652e-9
-0.013, -2.840e-9
-0.012, -2.911e-9
-0.011, -3.110e-9
-0.010, -3.232e-9
-0.009, -3.378e-9
-0.008, -3.570e-9
-0.007, -3.665e-9
-0.006, -3.892e-9
-0.005, -4.034e-9
-0.004, -4.203e-9
-0.003, -4.437e-9
-0.002, -4.557e-9
-0.001, -4.820e-9
-0.000, -5.050e-9
0.001, -5.221e-9
0.002, -5.475e-9
0.003, -5.616e-9
0.004, -5.904e-9
0.005, -6.104e-9
0.006, -6.327e-9
0.007, -6.630e-9
0.008, -6.806e-9
0.009, -7.135e-9
0.010, -7.375e-9
0.011, -7.630e-9
0.012, -7.968e-9
0.013, -8.188e-9
0.014, -8.545e-9
0.015, -8.826e-9
0.016, -9.110e-9
0.017, -9.481e-9
0.018, -9.730e-9
0.019, -1.012e-8
0.020, -1.044e-8
0.021, -1.076e-8
0.022, -1.117e-8
0.023, -1.146e-8
0.024, -1.187e-8
0.025, -1.223e-8
0.026, -1.260e-8
0.027, -1.303e-8
0.028, -1.336e-8
0.029, -1.380e-8
0.030, -1.419e-8
0.031, -1.458e-8
0.032, -1.504e-8
0.033, -1.540e-8
0.034, -1.587e-8
0.035, -1.628e-8
0.036, -1.670e-8
0.037, -1.717e-8
0.038, -1.756e-8
0.039, -1.806e-8
0.040, -1.846e-8
0.041, -1.890e-8
0.042, -1.939e-8
0.043, -1.976e-8
0.044, -2.027e-8
0.045, -2.068e-8
0.046, -2.111e-8
0.047, -2.162e-8
0.048, -2.198e-8
0.049, -2.249e-8
0.050, -2.290e-8
0.051, -2.333e-8
0.052, -2.383e-8
0.053, -2.418e-8
0.054, -2.465e-8
0.055, -2.504e-8
0.056, -2.543e-8
0.057, -2.590e-8
0.058, -2.621e-8
0.059, -2.665e-8
0.060, -2.703e-8
0.061, -2.735e-8
0.062, -2.779e-8
0.063, -2.807e-8
0.064, -2.846e-8
0.065, -2.880e-8
0.066, -2.909e-8
0.067, -2.945e-8
0.068, -2.969e-8
0.069, -3.001e-8
0.070, -3.028e-8
0.071, -3.052e-8
0.072, -3.082e-8
0.073, -3.102e-8
0.074, -3.128e-8
0.075, -3.148e-8
0.076, -3.168e-8
0.077, -3.193e-8
0.078, -3.205e-8
0.079, -3.226e-8
0.080, -3.238e-8
0.081, -3.251e-8
0.082, -3.268e-8
0.083, -3.273e-8
0.084, -3.290e-8
0.085, -3.296e-8
0.086, -3.302e-8
0.087, -3.316e-8
0.088, -3.314e-8
0.089, -3.326e-8
0.090, -3.328e-8
0.091, -3.328e-8
0.092, -3.336e-8
0.093, -3.329e-8
0.094, -3.335e-8
0.095, -3.333e-8
0.096, -3.327e-8
0.097, -3.332e-8
0.098, -3.321e-8
0.099, -3.322e-8
0.100, -3.316e-8
0.101, -3.307e-8
0.102, -3.308e-8
0.103, -3.295e-8
0.104, -3.292e-8
0.105, -3.283e-8
0.106, -3.271e-8
0.107, -3.268e-8
0.108, -3.252e-8
0.109, -3.247e-8
0.110, -3.236e-8
0.111, -3.224e-8
0.112, -3.218e-8
0.113, -3.199e-8
0.114, -3.193e-8
0.115, -3.180e-8
0.116, -3.166e-8
0.117, -3.159e-8
0.118, -3.139e-8
0.119, -3.133e-8
0.120, -3.117e-8
0.121, -3.103e-8
0.122, -3.095e-8
0.123, -3.074e-8
0.124, -3.067e-8
0.125, -3.052e-8
0.126, -3.036e-8
0.127, -3.029e-8
0.128, -3.009e-8
0.129, -3.001e-8
0.130, -2.985e-8
0.131, -2.969e-8
0.132, -2.963e-8
0.133, -2.942e-8
0.134, -2.934e-8
0.135, -2.920e-8
0.136, -2.904e-8
0.137, -2.898e-8
0.138, -2.877e-8
0.139, -2.870e-8
0.140, -2.856e-8
0.141, -2.840e-8
0.142, -2.834e-8
0.143, -2.815e-8
0.144, -2.807e-8
0.145, -2.794e-8
0.146, -2.779e-8
0.147, -2.773e-8
0.148, -2.755e-8
0.149, -2.748e-8
0.150, -2.735e-8
0.151, -2.721e-8
0.152, -2.716e-8
0.153, -2.699e-8
0.154, -2.693e-8
0.155, -2.680e-8
0.156, -2.667e-8
0.157, -2.662e-8
0.158, -2.645e-8
0.159, -2.640e-8
0.160, -2.628e-8
0.161, -2.616e-8
0.162, -2.612e-8
0.163, -2.595e-8
0.164, -2.592e-8
0.165, -2.580e-8
0.166, -2.568e-8
0.167, -2.566e-8
0.168, -2.549e-8
0.169, -2.546e-8
0.170, -2.536e-8
0.171, -2.524e-8
0.172, -2.523e-8
0.173, -2.506e-8
0.174, -2.504e-8
0.175, -2.495e-8
0.176, -2.484e-8
0.177, -2.482e-8
0.178, -2.468e-8
0.179, -2.466e-8
0.180, -2.457e-8
0.181, -2.446e-8
0.182, -2.445e-8
0.183, -2.431e-8
0.184, -2.429e-8
0.185, -2.421e-8
0.186, -2.412e-8
0.187, -2.411e-8
0.188, -2.398e-8
0.189, -2.397e-8
0.190, -2.389e-8
0.191, -2.380e-8
0.192, -2.381e-8
0.193, -2.368e-8
0.194, -2.367e-8
0.195, -2.360e-8
0.196, -2.351e-8
0.197, -2.352e-8
0.198, -2.339e-8
0.199, -2.339e-8
0.200, -2.333e-8
0.201, -2.325e-8
0.202, -2.326e-8
0.203, -2.314e-8
0.204, -2.315e-8
0.205, -2.309e-8
0.206, -2.300e-8
0.207, -2.302e-8
0.208, -2.289e-8
0.209, -2.291e-8
0.210, -2.285e-8
0.211, -2.277e-8
0.212, -2.280e-8
0.213, -2.268e-8
0.214, -2.269e-8
0.215, -2.264e-8
0.216, -2.256e-8
0.217, -2.260e-8
0.218, -2.249e-8
0.219, -2.250e-8
0.220, -2.246e-8
0.221, -2.238e-8
0.222, -2.241e-8
0.223, -2.231e-8
0.224, -2.232e-8
0.225, -2.229e-8
0.226, -2.222e-8
0.227, -2.225e-8
0.228, -2.215e-8
0.229, -2.216e-8
0.230, -2.213e-8
0.231, -2.207e-8
0.232, -2.210e-8
0.233, -2.200e-8
0.234, -2.202e-8
0.235, -2.198e-8
0.236, -2.193e-8
0.237, -2.196e-8
0.238, -2.187e-8
0.239, -2.189e-8
0.240, -2.185e-8
0.241, -2.180e-8
0.242, -2.184e-8
0.243, -2.175e-8
0.244, -2.178e-8
0.245, -2.174e-8
0.246, -2.169e-8
0.247, -2.173e-8
0.248, -2.163e-8
0.249, -2.167e-8
0.250, -2.164e-8
0.251, -2.158e-8
0.252, -2.164e-8
0.253, -2.154e-8
0.254, -2.158e-8
0.255, -2.155e-8
0.256, -2.150e-8
0.257, -2.155e-8
0.258, -2.146e-8
0.259, -2.149e-8
0.260, -2.147e-8
0.261, -2.142e-8
0.262, -2.147e-8
0.263, -2.139e-8
0.264, -2.142e-8
0.265, -2.140e-8
0.266, -2.136e-8
0.267, -2.141e-8
0.268, -2.133e-8
0.269, -2.136e-8
0.270, -2.135e-8
0.271, -2.131e-8
0.272, -2.136e-8
0.273, -2.128e-8
0.274, -2.132e-8
0.275, -2.130e-8
0.276, -2.126e-8
0.277, -2.131e-8
0.278, -2.124e-8
0.279, -2.128e-8
0.280, -2.126e-8
0.281, -2.122e-8
0.282, -2.128e-8
0.283, -2.121e-8
0.284, -2.125e-8
0.285, -2.123e-8
0.286, -2.119e-8
0.287, -2.126e-8
0.288, -2.118e-8
0.289, -2.123e-8
0.290, -2.122e-8
0.291, -2.118e-8
0.292, -2.125e-8
0.293, -2.117e-8
0.294, -2.122e-8
0.295, -2.122e-8
0.296, -2.118e-8
0.297, -2.125e-8
0.298, -2.118e-8
0.299, -2.122e-8
0.300, -2.039e-8
0.299, -1.890e-8
0.298, -1.848e-8
0.297, -1.815e-8
0.296, -1.801e-8
0.295, -1.785e-8
0.294, -1.768e-8
0.293, -1.762e-8
0.292, -1.743e-8
0.291, -1.738e-8
0.290, -1.728e-8
0.289, -1.715e-8
0.288, -1.713e-8
0.287, -1.697e-8
0.286, -1.694e-8
0.285, -1.687e-8
0.284, -1.676e-8
0.283, -1.676e-8
0.282, -1.662e-8
0.281, -1.660e-8
0.280, -1.654e-8
0.279, -1.644e-8
0.278, -1.646e-8
0.277, -1.633e-8
0.276, -1.632e-8
0.275, -1.627e-8
0.274, -1.618e-8
0.273, -1.620e-8
0.272, -1.608e-8
0.271, -1.607e-8
0.270, -1.603e-8
0.269, -1.594e-8
0.268, -1.597e-8
0.267, -1.586e-8
0.266, -1.586e-8
0.265, -1.581e-8
0.264, -1.574e-8
0.263, -1.576e-8
0.262, -1.566e-8
0.261, -1.567e-8
0.260, -1.562e-8
0.259, -1.555e-8
0.258, -1.558e-8
0.257, -1.548e-8
0.256, -1.548e-8
0.255, -1.544e-8
0.254, -1.537e-8
0.253, -1.541e-8
0.252, -1.530e-8
0.251, -1.532e-8
0.250, -1.528e-8
0.249, -1.521e-8
0.248, -1.525e-8
0.247, -1.514e-8
0.246, -1.516e-8
0.245, -1.513e-8
0.244, -1.505e-8
0.243, -1.509e-8
0.242, -1.499e-8
0.241, -1.501e-8
0.240, -1.498e-8
0.239, -1.491e-8
0.238, -1.496e-8
0.237, -1.485e-8
0.236, -1.487e-8
0.235, -1.485e-8
0.234, -1.477e-8
0.233, -1.481e-8
0.232, -1.471e-8
0.231, -1.473e-8
0.230, -1.470e-8
0.229, -1.463e-8
0.228, -1.467e-8
0.227, -1.458e-8
0.226, -1.460e-8
0.225, -1.457e-8
0.224, -1.450e-8
0.223, -1.454e-8
0.222, -1.445e-8
0.221, -1.446e-8
0.220, -1.443e-8
0.219, -1.437e-8
0.218, -1.441e-8
0.217, -1.431e-8
0.216, -1.433e-8
0.215, -1.430e-8
0.214, -1.424e-8
0.213, -1.428e-8
0.212, -1.418e-8
0.211, -1.420e-8
0.210, -1.417e-8
0.209, -1.410e-8
0.208, -1.415e-8
0.207, -1.405e-8
0.206, -1.406e-8
0.205, -1.403e-8
0.204, -1.396e-8
0.203, -1.400e-8
0.202, -1.390e-8
0.201, -1.392e-8
0.200, -1.389e-8
0.199, -1.381e-8
0.198, -1.386e-8
0.197, -1.376e-8
0.196, -1.376e-8
0.195, -1.374e-8
0.194, -1.366e-8
0.193, -1.370e-8
0.192, -1.359e-8
0.191, -1.359e-8
0.190, -1.357e-8
0.189, -1.349e-8
0.188, -1.352e-8
0.187, -1.342e-8
0.186, -1.342e-8
0.185, -1.339e-8
0.184, -1.331e-8
0.183, -1.334e-8
0.182, -1.324e-8
0.181, -1.323e-8
0.180, -1.319e-8
0.179, -1.310e-8
0.178, -1.313e-8
0.177, -1.302e-8
0.176, -1.302e-8
0.175, -1.297e-8
0.174, -1.288e-8
0.173, -1.290e-8
0.172, -1.278e-8
0.171, -1.277e-8
0.170, -1.272e-8
0.169, -1.262e-8
0.168, -1.264e-8
0.167, -1.251e-8
0.166, -1.250e-8
0.165, -1.244e-8
0.164, -1.233e-8
0.163, -1.235e-8
0.162, -1.221e-8
0.161, -1.218e-8
0.160, -1.212e-8
0.159, -1.200e-8
0.158, -1.200e-8
0.157, -1.186e-8
0.156, -1.181e-8
0.155, -1.175e-8
0.154, -1.162e-8
0.153, -1.160e-8
0.152, -1.145e-8
0.151, -1.140e-8
0.150, -1.132e-8
0.149, -1.118e-8
0.148, -1.115e-8
0.147, -1.099e-8
0.146, -1.092e-8
0.145, -1.082e-8
0.144, -1.066e-8
0.143, -1.061e-8
0.142, -1.044e-8
0.141, -1.035e-8
0.140, -1.023e-8
0.139, -1.006e-8
0.138, -9.997e-9
0.137, -9.799e-9
0.136, -9.690e-9
0.135, -9.552e-9
0.134, -9.363e-9
0.133, -9.277e-9
0.132, -9.051e-9
0.131, -8.930e-9
0.130, -8.768e-9
0.129, -8.547e-9
0.128, -8.433e-9
0.127, -8.184e-9
0.126, -8.035e-9
0.125, -7.852e-9
0.124, -7.599e-9
0.123, -7.466e-9
0.122, -7.181e-9
0.121, -7.003e-9
0.120, -6.790e-9
0.119, -6.502e-9
0.118, -6.346e-9
0.117, -6.037e-9
0.116, -5.816e-9
0.115, -5.574e-9
0.114, -5.258e-9
0.113, -5.065e-9
0.112, -4.729e-9
0.111, -4.472e-9
0.110, -4.196e-9
0.109, -3.853e-9
0.108, -3.615e-9
0.107, -3.254e-9
0.106, -2.961e-9
0.105, -2.650e-9
0.104, -2.276e-9
0.103, -1.985e-9
0.102, -1.577e-9
0.101, -1.264e-9
0.100, -9.196e-10
0.099, -5.150e-10
0.098, -2.014e-10
0.097, 2.341e-10
0.096, 5.950e-10
0.095, 9.879e-10
0.094, 1.420e-9
0.093, 1.755e-9
0.092, 2.229e-9
0.091, 2.606e-9
0.090, 3.019e-9
0.089, 3.489e-9
0.088, 3.841e-9
0.087, 4.340e-9
0.086, 4.732e-9
0.085, 5.160e-9
0.084, 5.655e-9
0.083, 6.014e-9
0.082, 6.521e-9
0.081, 6.943e-9
0.080, 7.368e-9
0.079, 7.877e-9
0.078, 8.245e-9
0.077, 8.765e-9
0.076, 9.202e-9
0.075, 9.606e-9
0.074, 1.011e-8
0.073, 1.047e-8
0.072, 1.096e-8
0.071, 1.138e-8
0.070, 1.177e-8
0.069, 1.225e-8
0.068, 1.260e-8
0.067, 1.306e-8
0.066, 1.345e-8
0.065, 1.383e-8
0.064, 1.427e-8
0.063, 1.460e-8
0.062, 1.501e-8
0.061, 1.535e-8
0.060, 1.569e-8
0.059, 1.608e-8
0.058, 1.637e-8
0.057, 1.675e-8
0.056, 1.703e-8
0.055, 1.734e-8
0.054, 1.767e-8
0.053, 1.790e-8
0.052, 1.822e-8
0.051, 1.845e-8
0.050, 1.869e-8
0.049, 1.896e-8
0.048, 1.911e-8
0.047, 1.939e-8
0.046, 1.955e-8
0.045, 1.972e-8
0.044, 1.994e-8
0.043, 2.003e-8
0.042, 2.024e-8
0.041, 2.035e-8
0.040, 2.046e-8
0.039, 2.063e-8
0.038, 2.066e-8
0.037, 2.081e-8
0.036, 2.087e-8
0.035, 2.090e-8
0.034, 2.102e-8
0.033, 2.100e-8
0.032, 2.109e-8
0.031, 2.110e-8
0.030, 2.109e-8
0.029, 2.115e-8
0.028, 2.108e-8
0.027, 2.112e-8
0.026, 2.110e-8
0.025, 2.106e-8
0.024, 2.107e-8
0.023, 2.097e-8
0.022, 2.096e-8
0.021, 2.089e-8
0.020, 2.082e-8
0.019, 2.080e-8
0.018, 2.066e-8
0.017, 2.064e-8
0.016, 2.053e-8
0.015, 2.043e-8
0.014, 2.039e-8
0.013, 2.023e-8
0.012, 2.020e-8
0.011, 2.006e-8
0.010, 1.994e-8
0.009, 1.988e-8
0.008, 1.970e-8
0.007, 1.966e-8
0.006, 1.950e-8
0.005, 1.937e-8
0.004, 1.931e-8
0.003, 1.911e-8
0.002, 1.905e-8
0.001, 1.890e-8
0.000, 1.881e-8
-0.001, 1.873e-8
-0.002, 1.851e-8
-0.003, 1.843e-8
-0.004, 1.828e-8
-0.005, 1.813e-8
-0.006, 1.806e-8
-0.007, 1.786e-8
-0.008, 1.779e-8
-0.009, 1.764e-8
-0.010, 1.748e-8
-0.011, 1.741e-8
-0.012, 1.722e-8
-0.013, 1.715e-8
-0.014, 1.700e-8
-0.015, 1.685e-8
-0.016, 1.678e-8
-0.017, 1.659e-8
-0.018, 1.653e-8
-0.019, 1.638e-8
-0.020, 1.623e-8
-0.021, 1.617e-8
-0.022, 1.598e-8
-0.023, 1.592e-8
-0.024, 1.578e-8
-0.025, 1.565e-8
-0.026, 1.559e-8
-0.027, 1.540e-8
-0.028, 1.536e-8
-0.029, 1.522e-8
-0.030, 1.509e-8
-0.031, 1.504e-8
-0.032, 1.486e-8
-0.033, 1.482e-8
-0.034, 1.469e-8
-0.035, 1.456e-8
-0.036, 1.453e-8
-0.037, 1.435e-8
-0.038, 1.432e-8
-0.039, 1.420e-8
-0.040, 1.408e-8
-0.041, 1.405e-8
-0.042, 1.388e-8
-0.043, 1.384e-8
-0.044, 1.374e-8
-0.045, 1.362e-8
-0.046, 1.360e-8
-0.047, 1.344e-8
-0.048, 1.341e-8
-0.049, 1.331e-8
-0.050, 1.320e-8
-0.051, 1.318e-8
-0.052, 1.303e-8
-0.053, 1.301e-8
-0.054, 1.291e-8
-0.055, 1.281e-8
-0.056, 1.279e-8
-0.057, 1.265e-8
-0.058, 1.263e-8
-0.059, 1.254e-8
-0.060, 1.244e-8
-0.061, 1.243e-8
-0.062, 1.230e-8
-0.063, 1.229e-8
-0.064, 1.220e-8
-0.065, 1.212e-8
-0.066, 1.211e-8
-0.067, 1.198e-8
-0.068, 1.198e-8
-0.069, 1.189e-8
-0.070, 1.181e-8
-0.071, 1.181e-8
-0.072, 1.168e-8
-0.073, 1.168e-8
-0.074, 1.160e-8
-0.075, 1.152e-8
-0.076, 1.153e-8
-0.077, 1.140e-8
-0.078, 1.141e-8
-0.079, 1.133e-8
-0.080, 1.125e-8
-0.081, 1.127e-8
-0.082, 1.114e-8
-0.083, 1.115e-8
-0.084, 1.109e-8
-0.085, 1.101e-8
-0.086, 1.103e-8
-0.087, 1.091e-8
-0.088, 1.092e-8
-0.089, 1.086e-8
-0.090, 1.079e-8
-0.091, 1.081e-8
-0.092, 1.070e-8
-0.093, 1.071e-8
-0.094, 1.065e-8
-0.095, 1.059e-8
-0.096, 1.061e-8
-0.097, 1.050e-8
-0.098, 1.051e-8
-0.099, 1.046e-8
-0.100, 1.040e-8
-0.101, 1.042e-8
-0.102, 1.032e-8
-0.103, 1.034e-8
-0.104, 1.028e-8
-0.105, 1.022e-8
-0.106, 1.025e-8
-0.107, 1.014e-8
-0.108, 1.017e-8
-0.109, 1.011e-8
-0.110, 1.006e-8
-0.111, 1.009e-8
-0.112, 9.981e-9
-0.113, 1.001e-8
-0.114, 9.963e-9
-0.115, 9.907e-9
-0.116, 9.946e-9
-0.117, 9.837e-9
-0.118, 9.868e-9
-0.119, 9.823e-9
-0.120, 9.768e-9
-0.121, 9.808e-9
-0.122, 9.699e-9
-0.123, 9.738e-9
-0.124, 9.696e-9
-0.125, 9.638e-9
-0.126, 9.679e-9
-0.127, 9.584e-9
-0.128, 9.620e-9
-0.129, 9.578e-9
-0.130, 9.530e-9
-0.131, 9.568e-9
-0.132, 9.476e-9
-0.133, 9.507e-9
-0.134, 9.470e-9
-0.135, 9.422e-9
-0.136, 9.465e-9
-0.137, 9.373e-9
-0.138, 9.406e-9
-0.139, 9.367e-9
-0.140, 9.327e-9
-0.141, 9.369e-9
-0.142, 9.280e-9
-0.143, 9.319e-9
-0.144, 9.278e-9
-0.145, 9.237e-9
-0.146, 9.282e-9
-0.147, 9.192e-9
-0.148, 9.238e-9
-0.149, 9.200e-9
-0.150, 9.158e-9
-0.151, 9.205e-9
-0.152, 9.114e-9
-0.153, 9.164e-9
-0.154, 9.130e-9
-0.155, 9.087e-9
-0.156, 9.139e-9
-0.157, 9.048e-9
-0.158, 9.093e-9
-0.159, 9.064e-9
-0.160, 9.018e-9
-0.161, 9.079e-9
-0.162, 8.991e-9
-0.163, 9.033e-9
-0.164, 9.012e-9
-0.165, 8.965e-9
-0.166, 9.023e-9
-0.167, 8.941e-9
-0.168, 8.986e-9
-0.169, 8.962e-9
-0.170, 8.918e-9
-0.171, 8.979e-9
-0.172, 8.899e-9
-0.173, 8.942e-9
-0.174, 8.921e-9
-0.175, 8.882e-9
-0.176, 8.938e-9
-0.177, 8.862e-9
-0.178, 8.910e-9
-0.179, 8.890e-9
-0.180, 8.859e-9
-0.181, 8.908e-9
-0.182, 8.835e-9
-0.183, 8.885e-9
-0.184, 8.865e-9
-0.185, 8.833e-9
-0.186, 8.890e-9
-0.187, 8.815e-9
-0.188, 8.869e-9
-0.189, 8.848e-9
-0.190, 8.815e-9
-0.191, 8.884e-9
-0.192, 8.806e-9
-0.193, 8.862e-9
-0.194, 8.840e-9
-0.195, 8.810e-9
-0.196, 8.881e-9
-0.197, 8.800e-9
-0.198, 8.860e-9
-0.199, 8.845e-9
