Mar. 16, 2023   09:22:28
Cyclic Voltammetry
File: c:/users/oliverrz/desktop/electrolab/data/2023_03_16\fcmeoh_macros_500_um\electrode4_cv_200mvs_500_um.bin
Data Source:  Experiment
Instrument Model:  CHI760E
Header: CV
Note: 

Init E (V) = -0.2
High E (V) = 0.3
Low E (V) = -0.2
Final E (V) = -0.2
Init P/N = P
Scan Rate (V/s) = 0.2
Segment = 3
Sample Interval (V) = 0.001
Quiet Time (sec) = 2
Sensitivity (A/V) = 1e-7

Results:

Channel 1:
Segment 1:
Ep = 0.071V
ip = -3.579e-8A
Ah = -1.122e-8C

Segment 2:
Ep = 0.008V
ip = 3.878e-8A
Ah = 1.195e-8C

Segment 3:

Potential/V, Current/A

-0.200, 1.582e-8
-0.199, 1.421e-8
-0.198, 1.401e-8
-0.197, 1.378e-8
-0.196, 1.327e-8
-0.195, 1.317e-8
-0.194, 1.308e-8
-0.193, 1.267e-8
-0.192, 1.243e-8
-0.191, 1.248e-8
-0.190, 1.216e-8
-0.189, 1.186e-8
-0.188, 1.185e-8
-0.187, 1.172e-8
-0.186, 1.133e-8
-0.185, 1.125e-8
-0.184, 1.124e-8
-0.183, 1.089e-8
-0.182, 1.067e-8
-0.181, 1.078e-8
-0.180, 1.047e-8
-0.179, 1.019e-8
-0.178, 1.023e-8
-0.177, 1.010e-8
-0.176, 9.761e-9
-0.175, 9.728e-9
-0.174, 9.686e-9
-0.173, 9.405e-9
-0.172, 9.198e-9
-0.171, 9.311e-9
-0.170, 9.056e-9
-0.169, 8.756e-9
-0.168, 8.843e-9
-0.167, 8.734e-9
-0.166, 8.354e-9
-0.165, 8.373e-9
-0.164, 8.349e-9
-0.163, 8.084e-9
-0.162, 7.906e-9
-0.161, 8.000e-9
-0.160, 7.774e-9
-0.159, 7.512e-9
-0.158, 7.577e-9
-0.157, 7.504e-9
-0.156, 7.156e-9
-0.155, 7.166e-9
-0.154, 7.176e-9
-0.153, 6.868e-9
-0.152, 6.741e-9
-0.151, 6.860e-9
-0.150, 6.617e-9
-0.149, 6.384e-9
-0.148, 6.446e-9
-0.147, 6.400e-9
-0.146, 6.064e-9
-0.145, 6.068e-9
-0.144, 6.112e-9
-0.143, 5.831e-9
-0.142, 5.651e-9
-0.141, 5.821e-9
-0.140, 5.574e-9
-0.139, 5.349e-9
-0.138, 5.449e-9
-0.137, 5.356e-9
-0.136, 5.062e-9
-0.135, 5.085e-9
-0.134, 5.099e-9
-0.133, 4.857e-9
-0.132, 4.679e-9
-0.131, 4.850e-9
-0.130, 4.630e-9
-0.129, 4.385e-9
-0.128, 4.488e-9
-0.127, 4.426e-9
-0.126, 4.115e-9
-0.125, 4.166e-9
-0.124, 4.179e-9
-0.123, 3.918e-9
-0.122, 3.801e-9
-0.121, 3.929e-9
-0.120, 3.728e-9
-0.119, 3.501e-9
-0.118, 3.603e-9
-0.117, 3.560e-9
-0.116, 3.228e-9
-0.115, 3.272e-9
-0.114, 3.320e-9
-0.113, 3.026e-9
-0.112, 2.931e-9
-0.111, 3.080e-9
-0.110, 2.843e-9
-0.109, 2.645e-9
-0.108, 2.746e-9
-0.107, 2.692e-9
-0.106, 2.392e-9
-0.105, 2.415e-9
-0.104, 2.472e-9
-0.103, 2.197e-9
-0.102, 2.062e-9
-0.101, 2.233e-9
-0.100, 1.991e-9
-0.099, 1.809e-9
-0.098, 1.905e-9
-0.097, 1.844e-9
-0.096, 1.550e-9
-0.095, 1.591e-9
-0.094, 1.599e-9
-0.093, 1.365e-9
-0.092, 1.219e-9
-0.091, 1.392e-9
-0.090, 1.152e-9
-0.089, 9.168e-10
-0.088, 1.061e-9
-0.087, 9.847e-10
-0.086, 6.519e-10
-0.085, 7.207e-10
-0.084, 7.190e-10
-0.083, 4.619e-10
-0.082, 3.397e-10
-0.081, 4.639e-10
-0.080, 2.540e-10
-0.079, 2.522e-11
-0.078, 1.202e-10
-0.077, 3.487e-11
-0.076, -2.838e-10
-0.075, -2.338e-10
-0.074, -2.176e-10
-0.073, -5.035e-10
-0.072, -6.347e-10
-0.071, -4.976e-10
-0.070, -7.587e-10
-0.069, -9.714e-10
-0.068, -9.067e-10
-0.067, -9.770e-10
-0.066, -1.303e-9
-0.065, -1.314e-9
-0.064, -1.296e-9
-0.063, -1.587e-9
-0.062, -1.760e-9
-0.061, -1.618e-9
-0.060, -1.907e-9
-0.059, -2.156e-9
-0.058, -2.071e-9
-0.057, -2.210e-9
-0.056, -2.528e-9
-0.055, -2.553e-9
-0.054, -2.575e-9
-0.053, -2.900e-9
-0.052, -3.092e-9
-0.051, -3.005e-9
-0.050, -3.279e-9
-0.049, -3.578e-9
-0.048, -3.503e-9
-0.047, -3.683e-9
-0.046, -4.074e-9
-0.045, -4.084e-9
-0.044, -4.174e-9
-0.043, -4.521e-9
-0.042, -4.738e-9
-0.041, -4.712e-9
-0.040, -5.021e-9
-0.039, -5.368e-9
-0.038, -5.367e-9
-0.037, -5.557e-9
-0.036, -5.997e-9
-0.035, -6.084e-9
-0.034, -6.188e-9
-0.033, -6.632e-9
-0.032, -6.860e-9
-0.031, -6.898e-9
-0.030, -7.292e-9
-0.029, -7.666e-9
-0.028, -7.751e-9
-0.027, -8.003e-9
-0.026, -8.512e-9
-0.025, -8.678e-9
-0.024, -8.844e-9
-0.023, -9.327e-9
-0.022, -9.676e-9
-0.021, -9.736e-9
-0.020, -1.024e-8
-0.019, -1.067e-8
-0.018, -1.082e-8
-0.017, -1.120e-8
-0.016, -1.172e-8
-0.015, -1.197e-8
-0.014, -1.226e-8
-0.013, -1.282e-8
-0.012, -1.326e-8
-0.011, -1.341e-8
-0.010, -1.395e-8
-0.009, -1.455e-8
-0.008, -1.471e-8
-0.007, -1.519e-8
-0.006, -1.586e-8
-0.005, -1.618e-8
-0.004, -1.656e-8
-0.003, -1.720e-8
-0.002, -1.771e-8
-0.001, -1.802e-8
-0.000, -1.887e-8
0.001, -1.936e-8
0.002, -1.969e-8
0.003, -2.018e-8
0.004, -2.094e-8
0.005, -2.133e-8
0.006, -2.176e-8
0.007, -2.256e-8
0.008, -2.310e-8
0.009, -2.350e-8
0.010, -2.423e-8
0.011, -2.489e-8
0.012, -2.533e-8
0.013, -2.592e-8
0.014, -2.672e-8
0.015, -2.723e-8
0.016, -2.768e-8
0.017, -2.851e-8
0.018, -2.913e-8
0.019, -2.951e-8
0.020, -3.031e-8
0.021, -3.100e-8
0.022, -3.143e-8
0.023, -3.211e-8
0.024, -3.284e-8
0.025, -3.338e-8
0.026, -3.391e-8
0.027, -3.464e-8
0.028, -3.527e-8
0.029, -3.563e-8
0.030, -3.635e-8
0.031, -3.706e-8
0.032, -3.737e-8
0.033, -3.797e-8
0.034, -3.872e-8
0.035, -3.911e-8
0.036, -3.959e-8
0.037, -4.024e-8
0.038, -4.077e-8
0.039, -4.110e-8
0.040, -4.166e-8
0.041, -4.225e-8
0.042, -4.250e-8
0.043, -4.293e-8
0.044, -4.355e-8
0.045, -4.381e-8
0.046, -4.408e-8
0.047, -4.468e-8
0.048, -4.497e-8
0.049, -4.511e-8
0.050, -4.560e-8
0.051, -4.601e-8
0.052, -4.609e-8
0.053, -4.636e-8
0.054, -4.679e-8
0.055, -4.692e-8
0.056, -4.699e-8
0.057, -4.738e-8
0.058, -4.756e-8
0.059, -4.750e-8
0.060, -4.781e-8
0.061, -4.799e-8
0.062, -4.790e-8
0.063, -4.805e-8
0.064, -4.826e-8
0.065, -4.824e-8
0.066, -4.818e-8
0.067, -4.834e-8
0.068, -4.840e-8
0.069, -4.817e-8
0.070, -4.830e-8
0.071, -4.841e-8
0.072, -4.811e-8
0.073, -4.812e-8
0.074, -4.824e-8
0.075, -4.801e-8
0.076, -4.788e-8
0.077, -4.795e-8
0.078, -4.782e-8
0.079, -4.753e-8
0.080, -4.750e-8
0.081, -4.753e-8
0.082, -4.715e-8
0.083, -4.700e-8
0.084, -4.709e-8
0.085, -4.677e-8
0.086, -4.646e-8
0.087, -4.652e-8
0.088, -4.631e-8
0.089, -4.595e-8
0.090, -4.589e-8
0.091, -4.581e-8
0.092, -4.542e-8
0.093, -4.523e-8
0.094, -4.521e-8
0.095, -4.491e-8
0.096, -4.455e-8
0.097, -4.456e-8
0.098, -4.435e-8
0.099, -4.391e-8
0.100, -4.387e-8
0.101, -4.374e-8
0.102, -4.333e-8
0.103, -4.317e-8
0.104, -4.310e-8
0.105, -4.277e-8
0.106, -4.245e-8
0.107, -4.242e-8
0.108, -4.221e-8
0.109, -4.177e-8
0.110, -4.170e-8
0.111, -4.164e-8
0.112, -4.116e-8
0.113, -4.101e-8
0.114, -4.099e-8
0.115, -4.065e-8
0.116, -4.033e-8
0.117, -4.033e-8
0.118, -4.010e-8
0.119, -3.974e-8
0.120, -3.964e-8
0.121, -3.957e-8
0.122, -3.916e-8
0.123, -3.898e-8
0.124, -3.900e-8
0.125, -3.867e-8
0.126, -3.837e-8
0.127, -3.841e-8
0.128, -3.818e-8
0.129, -3.782e-8
0.130, -3.779e-8
0.131, -3.771e-8
0.132, -3.733e-8
0.133, -3.718e-8
0.134, -3.720e-8
0.135, -3.692e-8
0.136, -3.662e-8
0.137, -3.668e-8
0.138, -3.650e-8
0.139, -3.614e-8
0.140, -3.614e-8
0.141, -3.612e-8
0.142, -3.571e-8
0.143, -3.563e-8
0.144, -3.565e-8
0.145, -3.539e-8
0.146, -3.513e-8
0.147, -3.521e-8
0.148, -3.506e-8
0.149, -3.471e-8
0.150, -3.472e-8
0.151, -3.473e-8
0.152, -3.436e-8
0.153, -3.429e-8
0.154, -3.436e-8
0.155, -3.409e-8
0.156, -3.387e-8
0.157, -3.394e-8
0.158, -3.382e-8
0.159, -3.353e-8
0.160, -3.354e-8
0.161, -3.356e-8
0.162, -3.323e-8
0.163, -3.316e-8
0.164, -3.326e-8
0.165, -3.300e-8
0.166, -3.280e-8
0.167, -3.295e-8
0.168, -3.280e-8
0.169, -3.251e-8
0.170, -3.258e-8
0.171, -3.259e-8
0.172, -3.229e-8
0.173, -3.224e-8
0.174, -3.235e-8
0.175, -3.215e-8
0.176, -3.193e-8
0.177, -3.208e-8
0.178, -3.199e-8
0.179, -3.172e-8
0.180, -3.180e-8
0.181, -3.185e-8
0.182, -3.152e-8
0.183, -3.154e-8
0.184, -3.163e-8
0.185, -3.143e-8
0.186, -3.128e-8
0.187, -3.143e-8
0.188, -3.135e-8
0.189, -3.109e-8
0.190, -3.118e-8
0.191, -3.125e-8
0.192, -3.095e-8
0.193, -3.097e-8
0.194, -3.112e-8
0.195, -3.091e-8
0.196, -3.077e-8
0.197, -3.094e-8
0.198, -3.086e-8
0.199, -3.066e-8
0.200, -3.074e-8
0.201, -3.082e-8
0.202, -3.058e-8
0.203, -3.056e-8
0.204, -3.074e-8
0.205, -3.058e-8
0.206, -3.043e-8
0.207, -3.064e-8
0.208, -3.057e-8
0.209, -3.036e-8
0.210, -3.049e-8
0.211, -3.057e-8
0.212, -3.034e-8
0.213, -3.036e-8
0.214, -3.053e-8
0.215, -3.039e-8
0.216, -3.026e-8
0.217, -3.048e-8
0.218, -3.046e-8
0.219, -3.022e-8
0.220, -3.038e-8
0.221, -3.050e-8
0.222, -3.025e-8
0.223, -3.033e-8
0.224, -3.049e-8
0.225, -3.035e-8
0.226, -3.026e-8
0.227, -3.048e-8
0.228, -3.046e-8
0.229, -3.028e-8
0.230, -3.042e-8
0.231, -3.058e-8
0.232, -3.033e-8
0.233, -3.040e-8
0.234, -3.062e-8
0.235, -3.048e-8
0.236, -3.039e-8
0.237, -3.063e-8
0.238, -3.060e-8
0.239, -3.047e-8
0.240, -3.060e-8
0.241, -3.076e-8
0.242, -3.056e-8
0.243, -3.062e-8
0.244, -3.086e-8
0.245, -3.071e-8
0.246, -3.065e-8
0.247, -3.093e-8
0.248, -3.089e-8
0.249, -3.073e-8
0.250, -3.094e-8
0.251, -3.107e-8
0.252, -3.088e-8
0.253, -3.096e-8
0.254, -3.119e-8
0.255, -3.109e-8
0.256, -3.103e-8
0.257, -3.129e-8
0.258, -3.130e-8
0.259, -3.112e-8
0.260, -3.135e-8
0.261, -3.148e-8
0.262, -3.128e-8
0.263, -3.142e-8
0.264, -3.162e-8
0.265, -3.151e-8
0.266, -3.151e-8
0.267, -3.173e-8
0.268, -3.176e-8
0.269, -3.162e-8
0.270, -3.182e-8
0.271, -3.200e-8
0.272, -3.179e-8
0.273, -3.192e-8
0.274, -3.217e-8
0.275, -3.204e-8
0.276, -3.204e-8
0.277, -3.230e-8
0.278, -3.231e-8
0.279, -3.222e-8
0.280, -3.243e-8
0.281, -3.260e-8
0.282, -3.245e-8
0.283, -3.255e-8
0.284, -3.284e-8
0.285, -3.273e-8
0.286, -3.273e-8
0.287, -3.303e-8
0.288, -3.305e-8
0.289, -3.294e-8
0.290, -3.321e-8
0.291, -3.336e-8
0.292, -3.324e-8
0.293, -3.336e-8
0.294, -3.365e-8
0.295, -3.360e-8
0.296, -3.358e-8
0.297, -3.389e-8
0.298, -3.397e-8
0.299, -3.383e-8
0.300, -3.020e-8
0.299, -2.659e-8
0.298, -2.529e-8
0.297, -2.458e-8
0.296, -2.418e-8
0.295, -2.345e-8
0.294, -2.293e-8
0.293, -2.272e-8
0.292, -2.226e-8
0.291, -2.176e-8
0.290, -2.159e-8
0.289, -2.136e-8
0.288, -2.088e-8
0.287, -2.063e-8
0.286, -2.059e-8
0.285, -2.017e-8
0.284, -1.986e-8
0.283, -1.987e-8
0.282, -1.960e-8
0.281, -1.920e-8
0.280, -1.920e-8
0.279, -1.909e-8
0.278, -1.870e-8
0.277, -1.858e-8
0.276, -1.859e-8
0.275, -1.827e-8
0.274, -1.805e-8
0.273, -1.808e-8
0.272, -1.792e-8
0.271, -1.756e-8
0.270, -1.762e-8
0.269, -1.756e-8
0.268, -1.719e-8
0.267, -1.714e-8
0.266, -1.722e-8
0.265, -1.690e-8
0.264, -1.674e-8
0.263, -1.681e-8
0.262, -1.667e-8
0.261, -1.636e-8
0.260, -1.641e-8
0.259, -1.642e-8
0.258, -1.608e-8
0.257, -1.603e-8
0.256, -1.613e-8
0.255, -1.584e-8
0.254, -1.569e-8
0.253, -1.581e-8
0.252, -1.565e-8
0.251, -1.539e-8
0.250, -1.548e-8
0.249, -1.546e-8
0.248, -1.515e-8
0.247, -1.511e-8
0.246, -1.525e-8
0.245, -1.498e-8
0.244, -1.481e-8
0.243, -1.494e-8
0.242, -1.483e-8
0.241, -1.455e-8
0.240, -1.467e-8
0.239, -1.464e-8
0.238, -1.436e-8
0.237, -1.434e-8
0.236, -1.446e-8
0.235, -1.421e-8
0.234, -1.409e-8
0.233, -1.420e-8
0.232, -1.410e-8
0.231, -1.382e-8
0.230, -1.394e-8
0.229, -1.395e-8
0.228, -1.364e-8
0.227, -1.367e-8
0.226, -1.378e-8
0.225, -1.352e-8
0.224, -1.342e-8
0.223, -1.353e-8
0.222, -1.342e-8
0.221, -1.319e-8
0.220, -1.327e-8
0.219, -1.330e-8
0.218, -1.302e-8
0.217, -1.299e-8
0.216, -1.315e-8
0.215, -1.290e-8
0.214, -1.277e-8
0.213, -1.292e-8
0.212, -1.280e-8
0.211, -1.256e-8
0.210, -1.268e-8
0.209, -1.266e-8
0.208, -1.243e-8
0.207, -1.239e-8
0.206, -1.254e-8
0.205, -1.227e-8
0.204, -1.216e-8
0.203, -1.232e-8
0.202, -1.221e-8
0.201, -1.195e-8
0.200, -1.209e-8
0.199, -1.208e-8
0.198, -1.181e-8
0.197, -1.182e-8
0.196, -1.193e-8
0.195, -1.172e-8
0.194, -1.159e-8
0.193, -1.172e-8
0.192, -1.162e-8
0.191, -1.135e-8
0.190, -1.150e-8
0.189, -1.151e-8
0.188, -1.122e-8
0.187, -1.124e-8
0.186, -1.136e-8
0.185, -1.110e-8
0.184, -1.100e-8
0.183, -1.114e-8
0.182, -1.102e-8
0.181, -1.078e-8
0.180, -1.088e-8
0.179, -1.090e-8
0.178, -1.063e-8
0.177, -1.061e-8
0.176, -1.077e-8
0.175, -1.048e-8
0.174, -1.039e-8
0.173, -1.053e-8
0.172, -1.039e-8
0.171, -1.016e-8
0.170, -1.027e-8
0.169, -1.025e-8
0.168, -9.995e-9
0.167, -9.962e-9
0.166, -1.010e-8
0.165, -9.832e-9
0.164, -9.704e-9
0.163, -9.856e-9
0.162, -9.726e-9
0.161, -9.448e-9
0.160, -9.588e-9
0.159, -9.552e-9
0.158, -9.271e-9
0.157, -9.273e-9
0.156, -9.352e-9
0.155, -9.101e-9
0.154, -8.976e-9
0.153, -9.081e-9
0.152, -8.966e-9
0.151, -8.675e-9
0.150, -8.796e-9
0.149, -8.758e-9
0.148, -8.448e-9
0.147, -8.447e-9
0.146, -8.521e-9
0.145, -8.230e-9
0.144, -8.110e-9
0.143, -8.190e-9
0.142, -8.048e-9
0.141, -7.755e-9
0.140, -7.820e-9
0.139, -7.810e-9
0.138, -7.468e-9
0.137, -7.414e-9
0.136, -7.493e-9
0.135, -7.171e-9
0.134, -7.004e-9
0.133, -7.095e-9
0.132, -6.886e-9
0.131, -6.612e-9
0.130, -6.646e-9
0.129, -6.552e-9
0.128, -6.193e-9
0.127, -6.130e-9
0.126, -6.173e-9
0.125, -5.837e-9
0.124, -5.602e-9
0.123, -5.687e-9
0.122, -5.447e-9
0.121, -5.089e-9
0.120, -5.119e-9
0.119, -4.979e-9
0.118, -4.607e-9
0.117, -4.485e-9
0.116, -4.443e-9
0.115, -4.078e-9
0.114, -3.824e-9
0.113, -3.806e-9
0.112, -3.557e-9
0.111, -3.140e-9
0.110, -3.105e-9
0.109, -2.935e-9
0.108, -2.442e-9
0.107, -2.301e-9
0.106, -2.229e-9
0.105, -1.751e-9
0.104, -1.451e-9
0.103, -1.356e-9
0.102, -1.013e-9
0.101, -5.632e-10
0.100, -4.175e-10
0.099, -2.043e-10
0.098, 3.426e-10
0.097, 6.003e-10
0.096, 7.540e-10
0.095, 1.294e-9
0.094, 1.674e-9
0.093, 1.824e-9
0.092, 2.307e-9
0.091, 2.797e-9
0.090, 3.037e-9
0.089, 3.368e-9
0.088, 3.985e-9
0.087, 4.333e-9
0.086, 4.585e-9
0.085, 5.181e-9
0.084, 5.697e-9
0.083, 5.914e-9
0.082, 6.457e-9
0.081, 7.111e-9
0.080, 7.376e-9
0.079, 7.845e-9
0.078, 8.554e-9
0.077, 8.963e-9
0.076, 9.367e-9
0.075, 1.001e-8
0.074, 1.061e-8
0.073, 1.096e-8
0.072, 1.155e-8
0.071, 1.229e-8
0.070, 1.264e-8
0.069, 1.314e-8
0.068, 1.400e-8
0.067, 1.442e-8
0.066, 1.489e-8
0.065, 1.566e-8
0.064, 1.627e-8
0.063, 1.672e-8
0.062, 1.737e-8
0.061, 1.811e-8
0.060, 1.861e-8
0.059, 1.910e-8
0.058, 1.995e-8
0.057, 2.045e-8
0.056, 2.089e-8
0.055, 2.169e-8
0.054, 2.234e-8
0.053, 2.275e-8
0.052, 2.345e-8
0.051, 2.417e-8
0.050, 2.462e-8
0.049, 2.513e-8
0.048, 2.592e-8
0.047, 2.640e-8
0.046, 2.681e-8
0.045, 2.750e-8
0.044, 2.813e-8
0.043, 2.844e-8
0.042, 2.904e-8
0.041, 2.972e-8
0.040, 3.004e-8
0.039, 3.050e-8
0.038, 3.120e-8
0.037, 3.151e-8
0.036, 3.188e-8
0.035, 3.243e-8
0.034, 3.290e-8
0.033, 3.311e-8
0.032, 3.355e-8
0.031, 3.412e-8
0.030, 3.427e-8
0.029, 3.455e-8
0.028, 3.513e-8
0.027, 3.528e-8
0.026, 3.549e-8
0.025, 3.592e-8
0.024, 3.617e-8
0.023, 3.626e-8
0.022, 3.650e-8
0.021, 3.688e-8
0.020, 3.694e-8
0.019, 3.695e-8
0.018, 3.738e-8
0.017, 3.742e-8
0.016, 3.738e-8
0.015, 3.769e-8
0.014, 3.779e-8
0.013, 3.767e-8
0.012, 3.786e-8
0.011, 3.796e-8
0.010, 3.788e-8
0.009, 3.784e-8
0.008, 3.807e-8
0.007, 3.796e-8
0.006, 3.780e-8
0.005, 3.794e-8
0.004, 3.796e-8
0.003, 3.766e-8
0.002, 3.771e-8
0.001, 3.779e-8
0.000, 3.774e-8
-0.001, 3.748e-8
-0.002, 3.755e-8
-0.003, 3.733e-8
-0.004, 3.712e-8
-0.005, 3.712e-8
-0.006, 3.704e-8
-0.007, 3.670e-8
-0.008, 3.666e-8
-0.009, 3.668e-8
-0.010, 3.633e-8
-0.011, 3.613e-8
-0.012, 3.622e-8
-0.013, 3.593e-8
-0.014, 3.564e-8
-0.015, 3.565e-8
-0.016, 3.550e-8
-0.017, 3.515e-8
-0.018, 3.505e-8
-0.019, 3.501e-8
-0.020, 3.470e-8
-0.021, 3.442e-8
-0.022, 3.451e-8
-0.023, 3.422e-8
-0.024, 3.388e-8
-0.025, 3.392e-8
-0.026, 3.376e-8
-0.027, 3.335e-8
-0.028, 3.330e-8
-0.029, 3.323e-8
-0.030, 3.290e-8
-0.031, 3.268e-8
-0.032, 3.271e-8
-0.033, 3.245e-8
-0.034, 3.211e-8
-0.035, 3.213e-8
-0.036, 3.202e-8
-0.037, 3.160e-8
-0.038, 3.156e-8
-0.039, 3.154e-8
-0.040, 3.119e-8
-0.041, 3.099e-8
-0.042, 3.106e-8
-0.043, 3.078e-8
-0.044, 3.050e-8
-0.045, 3.052e-8
-0.046, 3.041e-8
-0.047, 3.008e-8
-0.048, 3.000e-8
-0.049, 3.002e-8
-0.050, 2.970e-8
-0.051, 2.951e-8
-0.052, 2.964e-8
-0.053, 2.935e-8
-0.054, 2.910e-8
-0.055, 2.916e-8
-0.056, 2.908e-8
-0.057, 2.874e-8
-0.058, 2.873e-8
-0.059, 2.875e-8
-0.060, 2.849e-8
-0.061, 2.828e-8
-0.062, 2.843e-8
-0.063, 2.822e-8
-0.064, 2.797e-8
-0.065, 2.807e-8
-0.066, 2.800e-8
-0.067, 2.768e-8
-0.068, 2.773e-8
-0.069, 2.775e-8
-0.070, 2.749e-8
-0.071, 2.737e-8
-0.072, 2.751e-8
-0.073, 2.734e-8
-0.074, 2.710e-8
-0.075, 2.722e-8
-0.076, 2.722e-8
-0.077, 2.690e-8
-0.078, 2.694e-8
-0.079, 2.704e-8
-0.080, 2.678e-8
-0.081, 2.669e-8
-0.082, 2.686e-8
-0.083, 2.669e-8
-0.084, 2.651e-8
-0.085, 2.664e-8
-0.086, 2.662e-8
-0.087, 2.639e-8
-0.088, 2.643e-8
-0.089, 2.656e-8
-0.090, 2.633e-8
-0.091, 2.624e-8
-0.092, 2.648e-8
-0.093, 2.629e-8
-0.094, 2.613e-8
-0.095, 2.632e-8
-0.096, 2.630e-8
-0.097, 2.609e-8
-0.098, 2.616e-8
-0.099, 2.628e-8
-0.100, 2.611e-8
-0.101, 2.603e-8
-0.102, 2.627e-8
-0.103, 2.616e-8
-0.104, 2.597e-8
-0.105, 2.619e-8
-0.106, 2.620e-8
-0.107, 2.599e-8
-0.108, 2.612e-8
-0.109, 2.624e-8
-0.110, 2.605e-8
-0.111, 2.604e-8
-0.112, 2.626e-8
-0.113, 2.619e-8
-0.114, 2.603e-8
-0.115, 2.626e-8
-0.116, 2.631e-8
-0.117, 2.608e-8
-0.118, 2.622e-8
-0.119, 2.641e-8
-0.120, 2.622e-8
-0.121, 2.623e-8
-0.122, 2.647e-8
-0.123, 2.640e-8
-0.124, 2.629e-8
-0.125, 2.651e-8
-0.126, 2.657e-8
-0.127, 2.641e-8
-0.128, 2.653e-8
-0.129, 2.675e-8
-0.130, 2.658e-8
-0.131, 2.658e-8
-0.132, 2.688e-8
-0.133, 2.680e-8
-0.134, 2.668e-8
-0.135, 2.696e-8
-0.136, 2.702e-8
-0.137, 2.688e-8
-0.138, 2.702e-8
-0.139, 2.724e-8
-0.140, 2.711e-8
-0.141, 2.714e-8
-0.142, 2.742e-8
-0.143, 2.739e-8
-0.144, 2.728e-8
-0.145, 2.758e-8
-0.146, 2.765e-8
-0.147, 2.751e-8
-0.148, 2.771e-8
-0.149, 2.791e-8
-0.150, 2.779e-8
-0.151, 2.787e-8
-0.152, 2.814e-8
-0.153, 2.813e-8
-0.154, 2.806e-8
-0.155, 2.835e-8
-0.156, 2.847e-8
-0.157, 2.832e-8
-0.158, 2.852e-8
-0.159, 2.879e-8
-0.160, 2.866e-8
-0.161, 2.874e-8
-0.162, 2.906e-8
-0.163, 2.904e-8
-0.164, 2.901e-8
-0.165, 2.930e-8
-0.166, 2.943e-8
-0.167, 2.935e-8
-0.168, 2.954e-8
-0.169, 2.981e-8
-0.170, 2.972e-8
-0.171, 2.980e-8
-0.172, 3.017e-8
-0.173, 3.015e-8
-0.174, 3.012e-8
-0.175, 3.047e-8
-0.176, 3.058e-8
-0.177, 3.053e-8
-0.178, 3.075e-8
-0.179, 3.103e-8
-0.180, 3.097e-8
-0.181, 3.107e-8
-0.182, 3.142e-8
-0.183, 3.147e-8
-0.184, 3.143e-8
-0.185, 3.182e-8
-0.186, 3.194e-8
-0.187, 3.190e-8
-0.188, 3.217e-8
-0.189, 3.245e-8
-0.190, 3.240e-8
-0.191, 3.255e-8
-0.192, 3.292e-8
-0.193, 3.299e-8
-0.194, 3.299e-8
-0.195, 3.336e-8
-0.196, 3.356e-8
-0.197, 3.351e-8
-0.198, 3.378e-8
-0.199, 3.412e-8
