Mar. 16, 2023   09:23:09
Cyclic Voltammetry
File: c:/users/oliverrz/desktop/electrolab/data/2023_03_16\fcmeoh_macros_500_um\electrode5_cv_50mvs_500_um.bin
Data Source:  Experiment
Instrument Model:  CHI760E
Header: CV
Note: 

Init E (V) = -0.2
High E (V) = 0.3
Low E (V) = -0.2
Final E (V) = -0.2
Init P/N = P
Scan Rate (V/s) = 0.05
Segment = 3
Sample Interval (V) = 0.001
Quiet Time (sec) = 2
Sensitivity (A/V) = 1e-7

Results:

Channel 1:
Segment 1:
Ep = 0.081V
ip = -2.403e-8A
Ah = -3.111e-8C

Segment 2:
Ep = 0.012V
ip = 2.375e-8A
Ah = 3.085e-8C

Segment 3:

Potential/V, Current/A

-0.200, 3.332e-9
-0.199, 3.075e-9
-0.198, 3.021e-9
-0.197, 2.992e-9
-0.196, 2.966e-9
-0.195, 2.939e-9
-0.194, 2.910e-9
-0.193, 2.888e-9
-0.192, 2.868e-9
-0.191, 2.847e-9
-0.190, 2.824e-9
-0.189, 2.799e-9
-0.188, 2.783e-9
-0.187, 2.767e-9
-0.186, 2.744e-9
-0.185, 2.723e-9
-0.184, 2.703e-9
-0.183, 2.684e-9
-0.182, 2.671e-9
-0.181, 2.654e-9
-0.180, 2.634e-9
-0.179, 2.614e-9
-0.178, 2.598e-9
-0.177, 2.584e-9
-0.176, 2.572e-9
-0.175, 2.552e-9
-0.174, 2.534e-9
-0.173, 2.520e-9
-0.172, 2.506e-9
-0.171, 2.492e-9
-0.170, 2.476e-9
-0.169, 2.457e-9
-0.168, 2.444e-9
-0.167, 2.429e-9
-0.166, 2.417e-9
-0.165, 2.398e-9
-0.164, 2.382e-9
-0.163, 2.371e-9
-0.162, 2.359e-9
-0.161, 2.346e-9
-0.160, 2.331e-9
-0.159, 2.312e-9
-0.158, 2.304e-9
-0.157, 2.293e-9
-0.156, 2.280e-9
-0.155, 2.268e-9
-0.154, 2.249e-9
-0.153, 2.238e-9
-0.152, 2.228e-9
-0.151, 2.215e-9
-0.150, 2.201e-9
-0.149, 2.185e-9
-0.148, 2.172e-9
-0.147, 2.164e-9
-0.146, 2.151e-9
-0.145, 2.136e-9
-0.144, 2.122e-9
-0.143, 2.108e-9
-0.142, 2.100e-9
-0.141, 2.087e-9
-0.140, 2.068e-9
-0.139, 2.057e-9
-0.138, 2.045e-9
-0.137, 2.035e-9
-0.136, 2.026e-9
-0.135, 2.010e-9
-0.134, 1.997e-9
-0.133, 1.984e-9
-0.132, 1.976e-9
-0.131, 1.965e-9
-0.130, 1.947e-9
-0.129, 1.933e-9
-0.128, 1.920e-9
-0.127, 1.911e-9
-0.126, 1.901e-9
-0.125, 1.884e-9
-0.124, 1.867e-9
-0.123, 1.859e-9
-0.122, 1.848e-9
-0.121, 1.835e-9
-0.120, 1.820e-9
-0.119, 1.805e-9
-0.118, 1.794e-9
-0.117, 1.784e-9
-0.116, 1.771e-9
-0.115, 1.756e-9
-0.114, 1.741e-9
-0.113, 1.729e-9
-0.112, 1.720e-9
-0.111, 1.705e-9
-0.110, 1.689e-9
-0.109, 1.674e-9
-0.108, 1.660e-9
-0.107, 1.650e-9
-0.106, 1.632e-9
-0.105, 1.618e-9
-0.104, 1.600e-9
-0.103, 1.585e-9
-0.102, 1.570e-9
-0.101, 1.558e-9
-0.100, 1.539e-9
-0.099, 1.522e-9
-0.098, 1.505e-9
-0.097, 1.493e-9
-0.096, 1.478e-9
-0.095, 1.456e-9
-0.094, 1.439e-9
-0.093, 1.423e-9
-0.092, 1.406e-9
-0.091, 1.392e-9
-0.090, 1.367e-9
-0.089, 1.345e-9
-0.088, 1.330e-9
-0.087, 1.312e-9
-0.086, 1.294e-9
-0.085, 1.272e-9
-0.084, 1.250e-9
-0.083, 1.233e-9
-0.082, 1.213e-9
-0.081, 1.192e-9
-0.080, 1.169e-9
-0.079, 1.139e-9
-0.078, 1.120e-9
-0.077, 1.095e-9
-0.076, 1.069e-9
-0.075, 1.042e-9
-0.074, 1.014e-9
-0.073, 9.898e-10
-0.072, 9.648e-10
-0.071, 9.341e-10
-0.070, 9.061e-10
-0.069, 8.708e-10
-0.068, 8.408e-10
-0.067, 8.127e-10
-0.066, 7.778e-10
-0.065, 7.431e-10
-0.064, 7.081e-10
-0.063, 6.751e-10
-0.062, 6.424e-10
-0.061, 6.013e-10
-0.060, 5.581e-10
-0.059, 5.164e-10
-0.058, 4.792e-10
-0.057, 4.400e-10
-0.056, 3.973e-10
-0.055, 3.477e-10
-0.054, 3.014e-10
-0.053, 2.564e-10
-0.052, 2.067e-10
-0.051, 1.586e-10
-0.050, 1.018e-10
-0.049, 4.895e-11
-0.048, -4.115e-12
-0.047, -5.974e-11
-0.046, -1.154e-10
-0.045, -1.812e-10
-0.044, -2.467e-10
-0.043, -3.046e-10
-0.042, -3.733e-10
-0.041, -4.403e-10
-0.040, -5.128e-10
-0.039, -5.889e-10
-0.038, -6.617e-10
-0.037, -7.392e-10
-0.036, -8.213e-10
-0.035, -9.058e-10
-0.034, -9.928e-10
-0.033, -1.076e-9
-0.032, -1.162e-9
-0.031, -1.258e-9
-0.030, -1.356e-9
-0.029, -1.460e-9
-0.028, -1.562e-9
-0.027, -1.665e-9
-0.026, -1.779e-9
-0.025, -1.896e-9
-0.024, -2.014e-9
-0.023, -2.135e-9
-0.022, -2.254e-9
-0.021, -2.382e-9
-0.020, -2.517e-9
-0.019, -2.653e-9
-0.018, -2.794e-9
-0.017, -2.936e-9
-0.016, -3.085e-9
-0.015, -3.240e-9
-0.014, -3.401e-9
-0.013, -3.553e-9
-0.012, -3.721e-9
-0.011, -3.885e-9
-0.010, -4.069e-9
-0.009, -4.253e-9
-0.008, -4.433e-9
-0.007, -4.626e-9
-0.006, -4.818e-9
-0.005, -5.023e-9
-0.004, -5.232e-9
-0.003, -5.435e-9
-0.002, -5.654e-9
-0.001, -5.876e-9
-0.000, -6.147e-9
0.001, -6.386e-9
0.002, -6.600e-9
0.003, -6.840e-9
0.004, -7.083e-9
0.005, -7.340e-9
0.006, -7.602e-9
0.007, -7.862e-9
0.008, -8.129e-9
0.009, -8.408e-9
0.010, -8.679e-9
0.011, -8.967e-9
0.012, -9.252e-9
0.013, -9.540e-9
0.014, -9.844e-9
0.015, -1.014e-8
0.016, -1.045e-8
0.017, -1.076e-8
0.018, -1.106e-8
0.019, -1.138e-8
0.020, -1.170e-8
0.021, -1.201e-8
0.022, -1.234e-8
0.023, -1.266e-8
0.024, -1.299e-8
0.025, -1.333e-8
0.026, -1.366e-8
0.027, -1.399e-8
0.028, -1.432e-8
0.029, -1.465e-8
0.030, -1.499e-8
0.031, -1.532e-8
0.032, -1.565e-8
0.033, -1.598e-8
0.034, -1.631e-8
0.035, -1.664e-8
0.036, -1.697e-8
0.037, -1.728e-8
0.038, -1.761e-8
0.039, -1.792e-8
0.040, -1.823e-8
0.041, -1.854e-8
0.042, -1.883e-8
0.043, -1.913e-8
0.044, -1.941e-8
0.045, -1.970e-8
0.046, -1.999e-8
0.047, -2.025e-8
0.048, -2.052e-8
0.049, -2.078e-8
0.050, -2.103e-8
0.051, -2.128e-8
0.052, -2.153e-8
0.053, -2.175e-8
0.054, -2.197e-8
0.055, -2.218e-8
0.056, -2.238e-8
0.057, -2.259e-8
0.058, -2.275e-8
0.059, -2.294e-8
0.060, -2.312e-8
0.061, -2.328e-8
0.062, -2.343e-8
0.063, -2.357e-8
0.064, -2.371e-8
0.065, -2.384e-8
0.066, -2.395e-8
0.067, -2.406e-8
0.068, -2.416e-8
0.069, -2.425e-8
0.070, -2.433e-8
0.071, -2.441e-8
0.072, -2.447e-8
0.073, -2.453e-8
0.074, -2.458e-8
0.075, -2.463e-8
0.076, -2.467e-8
0.077, -2.470e-8
0.078, -2.472e-8
0.079, -2.474e-8
0.080, -2.475e-8
0.081, -2.475e-8
0.082, -2.474e-8
0.083, -2.474e-8
0.084, -2.472e-8
0.085, -2.470e-8
0.086, -2.469e-8
0.087, -2.466e-8
0.088, -2.462e-8
0.089, -2.459e-8
0.090, -2.455e-8
0.091, -2.451e-8
0.092, -2.445e-8
0.093, -2.440e-8
0.094, -2.434e-8
0.095, -2.429e-8
0.096, -2.423e-8
0.097, -2.417e-8
0.098, -2.409e-8
0.099, -2.403e-8
0.100, -2.396e-8
0.101, -2.388e-8
0.102, -2.381e-8
0.103, -2.374e-8
0.104, -2.366e-8
0.105, -2.359e-8
0.106, -2.350e-8
0.107, -2.342e-8
0.108, -2.334e-8
0.109, -2.326e-8
0.110, -2.318e-8
0.111, -2.310e-8
0.112, -2.301e-8
0.113, -2.292e-8
0.114, -2.283e-8
0.115, -2.275e-8
0.116, -2.267e-8
0.117, -2.258e-8
0.118, -2.250e-8
0.119, -2.241e-8
0.120, -2.233e-8
0.121, -2.225e-8
0.122, -2.216e-8
0.123, -2.208e-8
0.124, -2.200e-8
0.125, -2.192e-8
0.126, -2.184e-8
0.127, -2.175e-8
0.128, -2.167e-8
0.129, -2.160e-8
0.130, -2.152e-8
0.131, -2.145e-8
0.132, -2.137e-8
0.133, -2.129e-8
0.134, -2.121e-8
0.135, -2.114e-8
0.136, -2.107e-8
0.137, -2.099e-8
0.138, -2.091e-8
0.139, -2.084e-8
0.140, -2.078e-8
0.141, -2.071e-8
0.142, -2.064e-8
0.143, -2.057e-8
0.144, -2.050e-8
0.145, -2.044e-8
0.146, -2.037e-8
0.147, -2.030e-8
0.148, -2.024e-8
0.149, -2.017e-8
0.150, -2.012e-8
0.151, -2.006e-8
0.152, -1.999e-8
0.153, -1.994e-8
0.154, -1.988e-8
0.155, -1.982e-8
0.156, -1.977e-8
0.157, -1.970e-8
0.158, -1.965e-8
0.159, -1.960e-8
0.160, -1.954e-8
0.161, -1.949e-8
0.162, -1.943e-8
0.163, -1.938e-8
0.164, -1.933e-8
0.165, -1.928e-8
0.166, -1.924e-8
0.167, -1.919e-8
0.168, -1.914e-8
0.169, -1.910e-8
0.170, -1.905e-8
0.171, -1.901e-8
0.172, -1.896e-8
0.173, -1.891e-8
0.174, -1.887e-8
0.175, -1.883e-8
0.176, -1.879e-8
0.177, -1.875e-8
0.178, -1.871e-8
0.179, -1.867e-8
0.180, -1.863e-8
0.181, -1.859e-8
0.182, -1.855e-8
0.183, -1.851e-8
0.184, -1.848e-8
0.185, -1.844e-8
0.186, -1.841e-8
0.187, -1.837e-8
0.188, -1.834e-8
0.189, -1.830e-8
0.190, -1.827e-8
0.191, -1.824e-8
0.192, -1.820e-8
0.193, -1.817e-8
0.194, -1.814e-8
0.195, -1.811e-8
0.196, -1.808e-8
0.197, -1.804e-8
0.198, -1.801e-8
0.199, -1.799e-8
0.200, -1.796e-8
0.201, -1.793e-8
0.202, -1.790e-8
0.203, -1.787e-8
0.204, -1.785e-8
0.205, -1.783e-8
0.206, -1.780e-8
0.207, -1.777e-8
0.208, -1.775e-8
0.209, -1.772e-8
0.210, -1.770e-8
0.211, -1.767e-8
0.212, -1.765e-8
0.213, -1.762e-8
0.214, -1.760e-8
0.215, -1.758e-8
0.216, -1.756e-8
0.217, -1.753e-8
0.218, -1.751e-8
0.219, -1.749e-8
0.220, -1.747e-8
0.221, -1.745e-8
0.222, -1.743e-8
0.223, -1.741e-8
0.224, -1.739e-8
0.225, -1.738e-8
0.226, -1.736e-8
0.227, -1.734e-8
0.228, -1.732e-8
0.229, -1.730e-8
0.230, -1.729e-8
0.231, -1.727e-8
0.232, -1.725e-8
0.233, -1.723e-8
0.234, -1.721e-8
0.235, -1.720e-8
0.236, -1.719e-8
0.237, -1.717e-8
0.238, -1.715e-8
0.239, -1.714e-8
0.240, -1.713e-8
0.241, -1.711e-8
0.242, -1.709e-8
0.243, -1.708e-8
0.244, -1.707e-8
0.245, -1.706e-8
0.246, -1.704e-8
0.247, -1.703e-8
0.248, -1.701e-8
0.249, -1.700e-8
0.250, -1.699e-8
0.251, -1.698e-8
0.252, -1.697e-8
0.253, -1.695e-8
0.254, -1.694e-8
0.255, -1.693e-8
0.256, -1.692e-8
0.257, -1.691e-8
0.258, -1.690e-8
0.259, -1.689e-8
0.260, -1.688e-8
0.261, -1.687e-8
0.262, -1.685e-8
0.263, -1.684e-8
0.264, -1.683e-8
0.265, -1.683e-8
0.266, -1.682e-8
0.267, -1.681e-8
0.268, -1.680e-8
0.269, -1.679e-8
0.270, -1.679e-8
0.271, -1.678e-8
0.272, -1.677e-8
0.273, -1.676e-8
0.274, -1.675e-8
0.275, -1.675e-8
0.276, -1.674e-8
0.277, -1.673e-8
0.278, -1.672e-8
0.279, -1.672e-8
0.280, -1.671e-8
0.281, -1.671e-8
0.282, -1.670e-8
0.283, -1.669e-8
0.284, -1.669e-8
0.285, -1.669e-8
0.286, -1.668e-8
0.287, -1.667e-8
0.288, -1.666e-8
0.289, -1.666e-8
0.290, -1.666e-8
0.291, -1.665e-8
0.292, -1.664e-8
0.293, -1.664e-8
0.294, -1.664e-8
0.295, -1.664e-8
0.296, -1.663e-8
0.297, -1.663e-8
0.298, -1.662e-8
0.299, -1.662e-8
0.300, -1.641e-8
0.299, -1.582e-8
0.298, -1.563e-8
0.297, -1.553e-8
0.296, -1.545e-8
0.295, -1.539e-8
0.294, -1.532e-8
0.293, -1.526e-8
0.292, -1.521e-8
0.291, -1.516e-8
0.290, -1.511e-8
0.289, -1.506e-8
0.288, -1.502e-8
0.287, -1.498e-8
0.286, -1.494e-8
0.285, -1.491e-8
0.284, -1.487e-8
0.283, -1.483e-8
0.282, -1.480e-8
0.281, -1.476e-8
0.280, -1.473e-8
0.279, -1.470e-8
0.278, -1.467e-8
0.277, -1.464e-8
0.276, -1.461e-8
0.275, -1.458e-8
0.274, -1.456e-8
0.273, -1.453e-8
0.272, -1.450e-8
0.271, -1.448e-8
0.270, -1.446e-8
0.269, -1.443e-8
0.268, -1.440e-8
0.267, -1.438e-8
0.266, -1.436e-8
0.265, -1.434e-8
0.264, -1.432e-8
0.263, -1.429e-8
0.262, -1.427e-8
0.261, -1.425e-8
0.260, -1.423e-8
0.259, -1.421e-8
0.258, -1.419e-8
0.257, -1.417e-8
0.256, -1.415e-8
0.255, -1.413e-8
0.254, -1.411e-8
0.253, -1.408e-8
0.252, -1.406e-8
0.251, -1.405e-8
0.250, -1.403e-8
0.249, -1.401e-8
0.248, -1.399e-8
0.247, -1.397e-8
0.246, -1.395e-8
0.245, -1.394e-8
0.244, -1.392e-8
0.243, -1.390e-8
0.242, -1.388e-8
0.241, -1.387e-8
0.240, -1.385e-8
0.239, -1.383e-8
0.238, -1.382e-8
0.237, -1.380e-8
0.236, -1.378e-8
0.235, -1.377e-8
0.234, -1.375e-8
0.233, -1.373e-8
0.232, -1.371e-8
0.231, -1.370e-8
0.230, -1.368e-8
0.229, -1.366e-8
0.228, -1.365e-8
0.227, -1.363e-8
0.226, -1.361e-8
0.225, -1.360e-8
0.224, -1.358e-8
0.223, -1.356e-8
0.222, -1.355e-8
0.221, -1.353e-8
0.220, -1.352e-8
0.219, -1.350e-8
0.218, -1.348e-8
0.217, -1.346e-8
0.216, -1.345e-8
0.215, -1.343e-8
0.214, -1.341e-8
0.213, -1.339e-8
0.212, -1.338e-8
0.211, -1.336e-8
0.210, -1.335e-8
0.209, -1.333e-8
0.208, -1.331e-8
0.207, -1.329e-8
0.206, -1.328e-8
0.205, -1.326e-8
0.204, -1.325e-8
0.203, -1.323e-8
0.202, -1.321e-8
0.201, -1.319e-8
0.200, -1.318e-8
0.199, -1.316e-8
0.198, -1.314e-8
0.197, -1.312e-8
0.196, -1.310e-8
0.195, -1.308e-8
0.194, -1.306e-8
0.193, -1.304e-8
0.192, -1.302e-8
0.191, -1.300e-8
0.190, -1.299e-8
0.189, -1.297e-8
0.188, -1.294e-8
0.187, -1.292e-8
0.186, -1.290e-8
0.185, -1.288e-8
0.184, -1.286e-8
0.183, -1.284e-8
0.182, -1.281e-8
0.181, -1.279e-8
0.180, -1.277e-8
0.179, -1.274e-8
0.178, -1.272e-8
0.177, -1.269e-8
0.176, -1.267e-8
0.175, -1.264e-8
0.174, -1.262e-8
0.173, -1.259e-8
0.172, -1.256e-8
0.171, -1.254e-8
0.170, -1.251e-8
0.169, -1.249e-8
0.168, -1.245e-8
0.167, -1.242e-8
0.166, -1.239e-8
0.165, -1.236e-8
0.164, -1.233e-8
0.163, -1.230e-8
0.162, -1.226e-8
0.161, -1.223e-8
0.160, -1.220e-8
0.159, -1.216e-8
0.158, -1.212e-8
0.157, -1.208e-8
0.156, -1.205e-8
0.155, -1.201e-8
0.154, -1.197e-8
0.153, -1.192e-8
0.152, -1.187e-8
0.151, -1.183e-8
0.150, -1.179e-8
0.149, -1.174e-8
0.148, -1.169e-8
0.147, -1.164e-8
0.146, -1.159e-8
0.145, -1.155e-8
0.144, -1.149e-8
0.143, -1.143e-8
0.142, -1.138e-8
0.141, -1.132e-8
0.140, -1.127e-8
0.139, -1.120e-8
0.138, -1.113e-8
0.137, -1.107e-8
0.136, -1.100e-8
0.135, -1.093e-8
0.134, -1.086e-8
0.133, -1.078e-8
0.132, -1.070e-8
0.131, -1.063e-8
0.130, -1.055e-8
0.129, -1.046e-8
0.128, -1.037e-8
0.127, -1.027e-8
0.126, -1.019e-8
0.125, -1.009e-8
0.124, -9.994e-9
0.123, -9.891e-9
0.122, -9.783e-9
0.121, -9.680e-9
0.120, -9.572e-9
0.119, -9.457e-9
0.118, -9.340e-9
0.117, -9.218e-9
0.116, -9.094e-9
0.115, -8.966e-9
0.114, -8.830e-9
0.113, -8.694e-9
0.112, -8.553e-9
0.111, -8.410e-9
0.110, -8.266e-9
0.109, -8.109e-9
0.108, -7.949e-9
0.107, -7.787e-9
0.106, -7.620e-9
0.105, -7.458e-9
0.104, -7.277e-9
0.103, -7.088e-9
0.102, -6.897e-9
0.101, -6.709e-9
0.100, -6.517e-9
0.099, -6.318e-9
0.098, -6.109e-9
0.097, -5.901e-9
0.096, -5.685e-9
0.095, -5.467e-9
0.094, -5.243e-9
0.093, -5.002e-9
0.092, -4.771e-9
0.091, -4.530e-9
0.090, -4.280e-9
0.089, -4.024e-9
0.088, -3.763e-9
0.087, -3.501e-9
0.086, -3.246e-9
0.085, -2.971e-9
0.084, -2.692e-9
0.083, -2.408e-9
0.082, -2.119e-9
0.081, -1.833e-9
0.080, -1.538e-9
0.079, -1.236e-9
0.078, -9.352e-10
0.077, -6.142e-10
0.076, -3.045e-10
0.075, 4.745e-12
0.074, 3.275e-10
0.073, 6.492e-10
0.072, 9.860e-10
0.071, 1.317e-9
0.070, 1.635e-9
0.069, 1.972e-9
0.068, 2.301e-9
0.067, 2.631e-9
0.066, 2.972e-9
0.065, 3.303e-9
0.064, 3.646e-9
0.063, 3.981e-9
0.062, 4.311e-9
0.061, 4.645e-9
0.060, 4.966e-9
0.059, 5.301e-9
0.058, 5.641e-9
0.057, 5.956e-9
0.056, 6.287e-9
0.055, 6.600e-9
0.054, 6.910e-9
0.053, 7.234e-9
0.052, 7.536e-9
0.051, 7.845e-9
0.050, 8.147e-9
0.049, 8.427e-9
0.048, 8.725e-9
0.047, 9.006e-9
0.046, 9.268e-9
0.045, 9.540e-9
0.044, 9.793e-9
0.043, 1.005e-8
0.042, 1.030e-8
0.041, 1.052e-8
0.040, 1.075e-8
0.039, 1.097e-8
0.038, 1.118e-8
0.037, 1.139e-8
0.036, 1.158e-8
0.035, 1.176e-8
0.034, 1.194e-8
0.033, 1.211e-8
0.032, 1.227e-8
0.031, 1.241e-8
0.030, 1.255e-8
0.029, 1.269e-8
0.028, 1.281e-8
0.027, 1.293e-8
0.026, 1.304e-8
0.025, 1.314e-8
0.024, 1.323e-8
0.023, 1.331e-8
0.022, 1.337e-8
0.021, 1.344e-8
0.020, 1.350e-8
0.019, 1.355e-8
0.018, 1.360e-8
0.017, 1.363e-8
0.016, 1.366e-8
0.015, 1.368e-8
0.014, 1.369e-8
0.013, 1.372e-8
0.012, 1.372e-8
0.011, 1.372e-8
0.010, 1.371e-8
0.009, 1.369e-8
0.008, 1.368e-8
0.007, 1.366e-8
0.006, 1.363e-8
0.005, 1.360e-8
0.004, 1.357e-8
0.003, 1.353e-8
0.002, 1.349e-8
0.001, 1.344e-8
0.000, 1.342e-8
-0.001, 1.338e-8
-0.002, 1.331e-8
-0.003, 1.325e-8
-0.004, 1.318e-8
-0.005, 1.311e-8
-0.006, 1.306e-8
-0.007, 1.299e-8
-0.008, 1.292e-8
-0.009, 1.285e-8
-0.010, 1.277e-8
-0.011, 1.270e-8
-0.012, 1.262e-8
-0.013, 1.255e-8
-0.014, 1.248e-8
-0.015, 1.239e-8
-0.016, 1.232e-8
-0.017, 1.225e-8
-0.018, 1.217e-8
-0.019, 1.209e-8
-0.020, 1.200e-8
-0.021, 1.192e-8
-0.022, 1.185e-8
-0.023, 1.177e-8
-0.024, 1.169e-8
-0.025, 1.161e-8
-0.026, 1.153e-8
-0.027, 1.145e-8
-0.028, 1.138e-8
-0.029, 1.129e-8
-0.030, 1.121e-8
-0.031, 1.114e-8
-0.032, 1.106e-8
-0.033, 1.099e-8
-0.034, 1.090e-8
-0.035, 1.083e-8
-0.036, 1.076e-8
-0.037, 1.068e-8
-0.038, 1.061e-8
-0.039, 1.054e-8
-0.040, 1.046e-8
-0.041, 1.040e-8
-0.042, 1.033e-8
-0.043, 1.026e-8
-0.044, 1.018e-8
-0.045, 1.011e-8
-0.046, 1.005e-8
-0.047, 9.982e-9
-0.048, 9.917e-9
-0.049, 9.850e-9
-0.050, 9.782e-9
-0.051, 9.723e-9
-0.052, 9.662e-9
-0.053, 9.600e-9
-0.054, 9.541e-9
-0.055, 9.477e-9
-0.056, 9.418e-9
-0.057, 9.362e-9
-0.058, 9.303e-9
-0.059, 9.246e-9
-0.060, 9.186e-9
-0.061, 9.130e-9
-0.062, 9.080e-9
-0.063, 9.026e-9
-0.064, 8.973e-9
-0.065, 8.917e-9
-0.066, 8.866e-9
-0.067, 8.819e-9
-0.068, 8.769e-9
-0.069, 8.716e-9
-0.070, 8.667e-9
-0.071, 8.617e-9
-0.072, 8.574e-9
-0.073, 8.529e-9
-0.074, 8.476e-9
-0.075, 8.425e-9
-0.076, 8.381e-9
-0.077, 8.341e-9
-0.078, 8.301e-9
-0.079, 8.256e-9
-0.080, 8.216e-9
-0.081, 8.177e-9
-0.082, 8.135e-9
-0.083, 8.098e-9
-0.084, 8.057e-9
-0.085, 8.013e-9
-0.086, 7.978e-9
-0.087, 7.941e-9
-0.088, 7.906e-9
-0.089, 7.868e-9
-0.090, 7.829e-9
-0.091, 7.795e-9
-0.092, 7.763e-9
-0.093, 7.730e-9
-0.094, 7.696e-9
-0.095, 7.658e-9
-0.096, 7.628e-9
-0.097, 7.601e-9
-0.098, 7.567e-9
-0.099, 7.533e-9
-0.100, 7.500e-9
-0.101, 7.470e-9
-0.102, 7.445e-9
-0.103, 7.417e-9
-0.104, 7.383e-9
-0.105, 7.355e-9
-0.106, 7.327e-9
-0.107, 7.304e-9
-0.108, 7.277e-9
-0.109, 7.247e-9
-0.110, 7.219e-9
-0.111, 7.195e-9
-0.112, 7.172e-9
-0.113, 7.149e-9
-0.114, 7.120e-9
-0.115, 7.094e-9
-0.116, 7.073e-9
-0.117, 7.051e-9
-0.118, 7.027e-9
-0.119, 7.000e-9
-0.120, 6.974e-9
-0.121, 6.957e-9
-0.122, 6.934e-9
-0.123, 6.916e-9
-0.124, 6.892e-9
-0.125, 6.868e-9
-0.126, 6.850e-9
-0.127, 6.830e-9
-0.128, 6.814e-9
-0.129, 6.791e-9
-0.130, 6.767e-9
-0.131, 6.750e-9
-0.132, 6.736e-9
-0.133, 6.717e-9
-0.134, 6.697e-9
-0.135, 6.677e-9
-0.136, 6.661e-9
-0.137, 6.648e-9
-0.138, 6.628e-9
-0.139, 6.610e-9
-0.140, 6.590e-9
-0.141, 6.575e-9
-0.142, 6.564e-9
-0.143, 6.547e-9
-0.144, 6.528e-9
-0.145, 6.512e-9
-0.146, 6.497e-9
-0.147, 6.486e-9
-0.148, 6.473e-9
-0.149, 6.455e-9
-0.150, 6.440e-9
-0.151, 6.428e-9
-0.152, 6.417e-9
-0.153, 6.404e-9
-0.154, 6.389e-9
-0.155, 6.373e-9
-0.156, 6.363e-9
-0.157, 6.351e-9
-0.158, 6.341e-9
-0.159, 6.324e-9
-0.160, 6.309e-9
-0.161, 6.300e-9
-0.162, 6.289e-9
-0.163, 6.280e-9
-0.164, 6.265e-9
-0.165, 6.251e-9
-0.166, 6.245e-9
-0.167, 6.236e-9
-0.168, 6.225e-9
-0.169, 6.214e-9
-0.170, 6.199e-9
-0.171, 6.192e-9
-0.172, 6.185e-9
-0.173, 6.176e-9
-0.174, 6.166e-9
-0.175, 6.154e-9
-0.176, 6.147e-9
-0.177, 6.141e-9
-0.178, 6.130e-9
-0.179, 6.123e-9
-0.180, 6.113e-9
-0.181, 6.105e-9
-0.182, 6.102e-9
-0.183, 6.094e-9
-0.184, 6.083e-9
-0.185, 6.075e-9
-0.186, 6.067e-9
-0.187, 6.064e-9
-0.188, 6.059e-9
-0.189, 6.049e-9
-0.190, 6.041e-9
-0.191, 6.035e-9
-0.192, 6.034e-9
-0.193, 6.029e-9
-0.194, 6.017e-9
-0.195, 6.012e-9
-0.196, 6.009e-9
-0.197, 6.005e-9
-0.198, 6.003e-9
-0.199, 5.995e-9
