Mar. 16, 2023   09:20:30
Cyclic Voltammetry
File: c:/users/oliverrz/desktop/electrolab/data/2023_03_16\fcmeoh_macros_500_um\electrode3_cv_50mvs_500_um.bin
Data Source:  Experiment
Instrument Model:  CHI760E
Header: CV
Note: 

Init E (V) = -0.2
High E (V) = 0.3
Low E (V) = -0.2
Final E (V) = -0.2
Init P/N = P
Scan Rate (V/s) = 0.05
Segment = 3
Sample Interval (V) = 0.001
Quiet Time (sec) = 2
Sensitivity (A/V) = 1e-7

Results:

Channel 1:
Segment 1:
Ep = 0.092V
ip = -2.435e-8A
Ah = -3.145e-8C

Segment 2:
Ep = 0.021V
ip = 2.311e-8A
Ah = 2.984e-8C

Segment 3:

Potential/V, Current/A

-0.200, 2.699e-9
-0.199, 2.450e-9
-0.198, 2.393e-9
-0.197, 2.364e-9
-0.196, 2.339e-9
-0.195, 2.315e-9
-0.194, 2.288e-9
-0.193, 2.267e-9
-0.192, 2.248e-9
-0.191, 2.228e-9
-0.190, 2.209e-9
-0.189, 2.184e-9
-0.188, 2.163e-9
-0.187, 2.149e-9
-0.186, 2.131e-9
-0.185, 2.112e-9
-0.184, 2.093e-9
-0.183, 2.072e-9
-0.182, 2.060e-9
-0.181, 2.045e-9
-0.180, 2.028e-9
-0.179, 2.008e-9
-0.178, 1.991e-9
-0.177, 1.979e-9
-0.176, 1.969e-9
-0.175, 1.952e-9
-0.174, 1.936e-9
-0.173, 1.921e-9
-0.172, 1.909e-9
-0.171, 1.898e-9
-0.170, 1.884e-9
-0.169, 1.867e-9
-0.168, 1.855e-9
-0.167, 1.843e-9
-0.166, 1.832e-9
-0.165, 1.822e-9
-0.164, 1.806e-9
-0.163, 1.795e-9
-0.162, 1.785e-9
-0.161, 1.778e-9
-0.160, 1.766e-9
-0.159, 1.752e-9
-0.158, 1.741e-9
-0.157, 1.733e-9
-0.156, 1.723e-9
-0.155, 1.714e-9
-0.154, 1.698e-9
-0.153, 1.687e-9
-0.152, 1.680e-9
-0.151, 1.671e-9
-0.150, 1.663e-9
-0.149, 1.648e-9
-0.148, 1.637e-9
-0.147, 1.633e-9
-0.146, 1.624e-9
-0.145, 1.613e-9
-0.144, 1.601e-9
-0.143, 1.589e-9
-0.142, 1.586e-9
-0.141, 1.576e-9
-0.140, 1.566e-9
-0.139, 1.556e-9
-0.138, 1.545e-9
-0.137, 1.539e-9
-0.136, 1.533e-9
-0.135, 1.523e-9
-0.134, 1.513e-9
-0.133, 1.502e-9
-0.132, 1.496e-9
-0.131, 1.493e-9
-0.130, 1.482e-9
-0.129, 1.469e-9
-0.128, 1.459e-9
-0.127, 1.454e-9
-0.126, 1.448e-9
-0.125, 1.439e-9
-0.124, 1.425e-9
-0.123, 1.418e-9
-0.122, 1.412e-9
-0.121, 1.405e-9
-0.120, 1.395e-9
-0.119, 1.383e-9
-0.118, 1.373e-9
-0.117, 1.368e-9
-0.116, 1.359e-9
-0.115, 1.351e-9
-0.114, 1.339e-9
-0.113, 1.328e-9
-0.112, 1.324e-9
-0.111, 1.315e-9
-0.110, 1.306e-9
-0.109, 1.294e-9
-0.108, 1.284e-9
-0.107, 1.280e-9
-0.106, 1.271e-9
-0.105, 1.260e-9
-0.104, 1.250e-9
-0.103, 1.238e-9
-0.102, 1.231e-9
-0.101, 1.223e-9
-0.100, 1.213e-9
-0.099, 1.201e-9
-0.098, 1.187e-9
-0.097, 1.181e-9
-0.096, 1.172e-9
-0.095, 1.159e-9
-0.094, 1.147e-9
-0.093, 1.134e-9
-0.092, 1.124e-9
-0.091, 1.115e-9
-0.090, 1.101e-9
-0.089, 1.084e-9
-0.088, 1.073e-9
-0.087, 1.062e-9
-0.086, 1.053e-9
-0.085, 1.038e-9
-0.084, 1.020e-9
-0.083, 1.007e-9
-0.082, 9.951e-10
-0.081, 9.833e-10
-0.080, 9.687e-10
-0.079, 9.499e-10
-0.078, 9.345e-10
-0.077, 9.179e-10
-0.076, 9.035e-10
-0.075, 8.880e-10
-0.074, 8.638e-10
-0.073, 8.461e-10
-0.072, 8.310e-10
-0.071, 8.140e-10
-0.070, 7.938e-10
-0.069, 7.720e-10
-0.068, 7.504e-10
-0.067, 7.341e-10
-0.066, 7.160e-10
-0.065, 6.945e-10
-0.064, 6.679e-10
-0.063, 6.414e-10
-0.062, 6.214e-10
-0.061, 5.970e-10
-0.060, 5.680e-10
-0.059, 5.388e-10
-0.058, 5.107e-10
-0.057, 4.865e-10
-0.056, 4.606e-10
-0.055, 4.309e-10
-0.054, 3.992e-10
-0.053, 3.654e-10
-0.052, 3.353e-10
-0.051, 3.038e-10
-0.050, 2.678e-10
-0.049, 2.300e-10
-0.048, 1.950e-10
-0.047, 1.571e-10
-0.046, 1.216e-10
-0.045, 8.114e-11
-0.044, 3.585e-11
-0.043, -5.297e-12
-0.042, -4.566e-11
-0.041, -8.927e-11
-0.040, -1.359e-10
-0.039, -1.907e-10
-0.038, -2.423e-10
-0.037, -2.903e-10
-0.036, -3.431e-10
-0.035, -3.982e-10
-0.034, -4.616e-10
-0.033, -5.182e-10
-0.032, -5.762e-10
-0.031, -6.412e-10
-0.030, -7.054e-10
-0.029, -7.759e-10
-0.028, -8.490e-10
-0.027, -9.170e-10
-0.026, -9.912e-10
-0.025, -1.071e-9
-0.024, -1.147e-9
-0.023, -1.233e-9
-0.022, -1.313e-9
-0.021, -1.398e-9
-0.020, -1.492e-9
-0.019, -1.586e-9
-0.018, -1.687e-9
-0.017, -1.784e-9
-0.016, -1.883e-9
-0.015, -1.993e-9
-0.014, -2.103e-9
-0.013, -2.219e-9
-0.012, -2.337e-9
-0.011, -2.448e-9
-0.010, -2.576e-9
-0.009, -2.707e-9
-0.008, -2.837e-9
-0.007, -2.976e-9
-0.006, -3.112e-9
-0.005, -3.258e-9
-0.004, -3.413e-9
-0.003, -3.555e-9
-0.002, -3.713e-9
-0.001, -3.872e-9
-0.000, -4.072e-9
0.001, -4.251e-9
0.002, -4.411e-9
0.003, -4.592e-9
0.004, -4.775e-9
0.005, -4.960e-9
0.006, -5.166e-9
0.007, -5.363e-9
0.008, -5.567e-9
0.009, -5.779e-9
0.010, -5.997e-9
0.011, -6.222e-9
0.012, -6.451e-9
0.013, -6.683e-9
0.014, -6.925e-9
0.015, -7.165e-9
0.016, -7.422e-9
0.017, -7.680e-9
0.018, -7.931e-9
0.019, -8.198e-9
0.020, -8.470e-9
0.021, -8.741e-9
0.022, -9.028e-9
0.023, -9.304e-9
0.024, -9.592e-9
0.025, -9.890e-9
0.026, -1.019e-8
0.027, -1.049e-8
0.028, -1.080e-8
0.029, -1.110e-8
0.030, -1.142e-8
0.031, -1.173e-8
0.032, -1.204e-8
0.033, -1.237e-8
0.034, -1.268e-8
0.035, -1.301e-8
0.036, -1.334e-8
0.037, -1.367e-8
0.038, -1.401e-8
0.039, -1.434e-8
0.040, -1.467e-8
0.041, -1.501e-8
0.042, -1.533e-8
0.043, -1.567e-8
0.044, -1.600e-8
0.045, -1.632e-8
0.046, -1.665e-8
0.047, -1.698e-8
0.048, -1.729e-8
0.049, -1.761e-8
0.050, -1.792e-8
0.051, -1.824e-8
0.052, -1.856e-8
0.053, -1.885e-8
0.054, -1.915e-8
0.055, -1.943e-8
0.056, -1.972e-8
0.057, -2.001e-8
0.058, -2.027e-8
0.059, -2.054e-8
0.060, -2.080e-8
0.061, -2.106e-8
0.062, -2.131e-8
0.063, -2.154e-8
0.064, -2.177e-8
0.065, -2.200e-8
0.066, -2.221e-8
0.067, -2.241e-8
0.068, -2.260e-8
0.069, -2.279e-8
0.070, -2.298e-8
0.071, -2.315e-8
0.072, -2.332e-8
0.073, -2.347e-8
0.074, -2.361e-8
0.075, -2.374e-8
0.076, -2.388e-8
0.077, -2.400e-8
0.078, -2.411e-8
0.079, -2.420e-8
0.080, -2.429e-8
0.081, -2.438e-8
0.082, -2.445e-8
0.083, -2.452e-8
0.084, -2.457e-8
0.085, -2.462e-8
0.086, -2.468e-8
0.087, -2.471e-8
0.088, -2.474e-8
0.089, -2.476e-8
0.090, -2.478e-8
0.091, -2.480e-8
0.092, -2.480e-8
0.093, -2.479e-8
0.094, -2.479e-8
0.095, -2.477e-8
0.096, -2.476e-8
0.097, -2.474e-8
0.098, -2.471e-8
0.099, -2.467e-8
0.100, -2.464e-8
0.101, -2.459e-8
0.102, -2.456e-8
0.103, -2.451e-8
0.104, -2.445e-8
0.105, -2.440e-8
0.106, -2.434e-8
0.107, -2.428e-8
0.108, -2.422e-8
0.109, -2.415e-8
0.110, -2.408e-8
0.111, -2.401e-8
0.112, -2.394e-8
0.113, -2.387e-8
0.114, -2.379e-8
0.115, -2.371e-8
0.116, -2.364e-8
0.117, -2.356e-8
0.118, -2.348e-8
0.119, -2.339e-8
0.120, -2.331e-8
0.121, -2.323e-8
0.122, -2.315e-8
0.123, -2.306e-8
0.124, -2.297e-8
0.125, -2.289e-8
0.126, -2.281e-8
0.127, -2.272e-8
0.128, -2.264e-8
0.129, -2.255e-8
0.130, -2.247e-8
0.131, -2.239e-8
0.132, -2.231e-8
0.133, -2.222e-8
0.134, -2.214e-8
0.135, -2.205e-8
0.136, -2.198e-8
0.137, -2.190e-8
0.138, -2.181e-8
0.139, -2.173e-8
0.140, -2.166e-8
0.141, -2.158e-8
0.142, -2.150e-8
0.143, -2.143e-8
0.144, -2.135e-8
0.145, -2.127e-8
0.146, -2.120e-8
0.147, -2.113e-8
0.148, -2.105e-8
0.149, -2.098e-8
0.150, -2.091e-8
0.151, -2.084e-8
0.152, -2.077e-8
0.153, -2.070e-8
0.154, -2.064e-8
0.155, -2.057e-8
0.156, -2.051e-8
0.157, -2.044e-8
0.158, -2.038e-8
0.159, -2.031e-8
0.160, -2.025e-8
0.161, -2.019e-8
0.162, -2.013e-8
0.163, -2.007e-8
0.164, -2.001e-8
0.165, -1.995e-8
0.166, -1.990e-8
0.167, -1.984e-8
0.168, -1.978e-8
0.169, -1.973e-8
0.170, -1.968e-8
0.171, -1.963e-8
0.172, -1.958e-8
0.173, -1.952e-8
0.174, -1.947e-8
0.175, -1.942e-8
0.176, -1.938e-8
0.177, -1.933e-8
0.178, -1.928e-8
0.179, -1.923e-8
0.180, -1.919e-8
0.181, -1.915e-8
0.182, -1.911e-8
0.183, -1.907e-8
0.184, -1.902e-8
0.185, -1.898e-8
0.186, -1.894e-8
0.187, -1.890e-8
0.188, -1.886e-8
0.189, -1.882e-8
0.190, -1.878e-8
0.191, -1.875e-8
0.192, -1.871e-8
0.193, -1.867e-8
0.194, -1.863e-8
0.195, -1.860e-8
0.196, -1.856e-8
0.197, -1.853e-8
0.198, -1.849e-8
0.199, -1.846e-8
0.200, -1.842e-8
0.201, -1.840e-8
0.202, -1.836e-8
0.203, -1.833e-8
0.204, -1.830e-8
0.205, -1.827e-8
0.206, -1.825e-8
0.207, -1.822e-8
0.208, -1.818e-8
0.209, -1.816e-8
0.210, -1.813e-8
0.211, -1.811e-8
0.212, -1.808e-8
0.213, -1.805e-8
0.214, -1.803e-8
0.215, -1.800e-8
0.216, -1.798e-8
0.217, -1.796e-8
0.218, -1.793e-8
0.219, -1.791e-8
0.220, -1.789e-8
0.221, -1.787e-8
0.222, -1.785e-8
0.223, -1.782e-8
0.224, -1.780e-8
0.225, -1.778e-8
0.226, -1.776e-8
0.227, -1.774e-8
0.228, -1.772e-8
0.229, -1.770e-8
0.230, -1.768e-8
0.231, -1.767e-8
0.232, -1.765e-8
0.233, -1.763e-8
0.234, -1.760e-8
0.235, -1.759e-8
0.236, -1.757e-8
0.237, -1.756e-8
0.238, -1.754e-8
0.239, -1.752e-8
0.240, -1.751e-8
0.241, -1.750e-8
0.242, -1.748e-8
0.243, -1.747e-8
0.244, -1.745e-8
0.245, -1.743e-8
0.246, -1.742e-8
0.247, -1.741e-8
0.248, -1.739e-8
0.249, -1.738e-8
0.250, -1.736e-8
0.251, -1.736e-8
0.252, -1.734e-8
0.253, -1.733e-8
0.254, -1.731e-8
0.255, -1.730e-8
0.256, -1.730e-8
0.257, -1.729e-8
0.258, -1.727e-8
0.259, -1.726e-8
0.260, -1.725e-8
0.261, -1.724e-8
0.262, -1.724e-8
0.263, -1.722e-8
0.264, -1.721e-8
0.265, -1.720e-8
0.266, -1.720e-8
0.267, -1.719e-8
0.268, -1.718e-8
0.269, -1.717e-8
0.270, -1.716e-8
0.271, -1.716e-8
0.272, -1.715e-8
0.273, -1.714e-8
0.274, -1.713e-8
0.275, -1.713e-8
0.276, -1.712e-8
0.277, -1.712e-8
0.278, -1.711e-8
0.279, -1.710e-8
0.280, -1.709e-8
0.281, -1.710e-8
0.282, -1.709e-8
0.283, -1.708e-8
0.284, -1.708e-8
0.285, -1.707e-8
0.286, -1.707e-8
0.287, -1.707e-8
0.288, -1.706e-8
0.289, -1.706e-8
0.290, -1.705e-8
0.291, -1.705e-8
0.292, -1.705e-8
0.293, -1.705e-8
0.294, -1.704e-8
0.295, -1.704e-8
0.296, -1.704e-8
0.297, -1.704e-8
0.298, -1.703e-8
0.299, -1.703e-8
0.300, -1.682e-8
0.299, -1.621e-8
0.298, -1.602e-8
0.297, -1.591e-8
0.296, -1.582e-8
0.295, -1.575e-8
0.294, -1.569e-8
0.293, -1.563e-8
0.292, -1.557e-8
0.291, -1.552e-8
0.290, -1.546e-8
0.289, -1.542e-8
0.288, -1.538e-8
0.287, -1.533e-8
0.286, -1.529e-8
0.285, -1.525e-8
0.284, -1.521e-8
0.283, -1.517e-8
0.282, -1.513e-8
0.281, -1.509e-8
0.280, -1.506e-8
0.279, -1.503e-8
0.278, -1.499e-8
0.277, -1.496e-8
0.276, -1.493e-8
0.275, -1.490e-8
0.274, -1.487e-8
0.273, -1.484e-8
0.272, -1.481e-8
0.271, -1.478e-8
0.270, -1.476e-8
0.269, -1.474e-8
0.268, -1.471e-8
0.267, -1.469e-8
0.266, -1.466e-8
0.265, -1.464e-8
0.264, -1.462e-8
0.263, -1.459e-8
0.262, -1.456e-8
0.261, -1.454e-8
0.260, -1.452e-8
0.259, -1.450e-8
0.258, -1.448e-8
0.257, -1.445e-8
0.256, -1.443e-8
0.255, -1.441e-8
0.254, -1.439e-8
0.253, -1.437e-8
0.252, -1.435e-8
0.251, -1.433e-8
0.250, -1.431e-8
0.249, -1.430e-8
0.248, -1.428e-8
0.247, -1.426e-8
0.246, -1.424e-8
0.245, -1.422e-8
0.244, -1.420e-8
0.243, -1.418e-8
0.242, -1.416e-8
0.241, -1.415e-8
0.240, -1.413e-8
0.239, -1.411e-8
0.238, -1.409e-8
0.237, -1.407e-8
0.236, -1.405e-8
0.235, -1.403e-8
0.234, -1.402e-8
0.233, -1.400e-8
0.232, -1.397e-8
0.231, -1.395e-8
0.230, -1.393e-8
0.229, -1.392e-8
0.228, -1.391e-8
0.227, -1.389e-8
0.226, -1.387e-8
0.225, -1.385e-8
0.224, -1.384e-8
0.223, -1.382e-8
0.222, -1.380e-8
0.221, -1.378e-8
0.220, -1.376e-8
0.219, -1.375e-8
0.218, -1.373e-8
0.217, -1.371e-8
0.216, -1.369e-8
0.215, -1.367e-8
0.214, -1.366e-8
0.213, -1.364e-8
0.212, -1.362e-8
0.211, -1.360e-8
0.210, -1.358e-8
0.209, -1.357e-8
0.208, -1.355e-8
0.207, -1.352e-8
0.206, -1.350e-8
0.205, -1.348e-8
0.204, -1.346e-8
0.203, -1.344e-8
0.202, -1.342e-8
0.201, -1.341e-8
0.200, -1.339e-8
0.199, -1.337e-8
0.198, -1.335e-8
0.197, -1.333e-8
0.196, -1.331e-8
0.195, -1.329e-8
0.194, -1.327e-8
0.193, -1.325e-8
0.192, -1.322e-8
0.191, -1.320e-8
0.190, -1.318e-8
0.189, -1.316e-8
0.188, -1.313e-8
0.187, -1.310e-8
0.186, -1.308e-8
0.185, -1.305e-8
0.184, -1.303e-8
0.183, -1.301e-8
0.182, -1.298e-8
0.181, -1.295e-8
0.180, -1.292e-8
0.179, -1.290e-8
0.178, -1.287e-8
0.177, -1.284e-8
0.176, -1.281e-8
0.175, -1.278e-8
0.174, -1.275e-8
0.173, -1.272e-8
0.172, -1.268e-8
0.171, -1.265e-8
0.170, -1.261e-8
0.169, -1.258e-8
0.168, -1.255e-8
0.167, -1.251e-8
0.166, -1.247e-8
0.165, -1.243e-8
0.164, -1.240e-8
0.163, -1.236e-8
0.162, -1.231e-8
0.161, -1.227e-8
0.160, -1.222e-8
0.159, -1.218e-8
0.158, -1.214e-8
0.157, -1.208e-8
0.156, -1.203e-8
0.155, -1.199e-8
0.154, -1.193e-8
0.153, -1.188e-8
0.152, -1.182e-8
0.151, -1.176e-8
0.150, -1.171e-8
0.149, -1.165e-8
0.148, -1.159e-8
0.147, -1.153e-8
0.146, -1.146e-8
0.145, -1.139e-8
0.144, -1.133e-8
0.143, -1.126e-8
0.142, -1.118e-8
0.141, -1.110e-8
0.140, -1.102e-8
0.139, -1.095e-8
0.138, -1.086e-8
0.137, -1.077e-8
0.136, -1.068e-8
0.135, -1.059e-8
0.134, -1.051e-8
0.133, -1.040e-8
0.132, -1.030e-8
0.131, -1.019e-8
0.130, -1.009e-8
0.129, -9.985e-9
0.128, -9.867e-9
0.127, -9.747e-9
0.126, -9.632e-9
0.125, -9.508e-9
0.124, -9.387e-9
0.123, -9.253e-9
0.122, -9.116e-9
0.121, -8.981e-9
0.120, -8.839e-9
0.119, -8.693e-9
0.118, -8.542e-9
0.117, -8.382e-9
0.116, -8.223e-9
0.115, -8.058e-9
0.114, -7.890e-9
0.113, -7.721e-9
0.112, -7.541e-9
0.111, -7.356e-9
0.110, -7.168e-9
0.109, -6.974e-9
0.108, -6.775e-9
0.107, -6.571e-9
0.106, -6.357e-9
0.105, -6.153e-9
0.104, -5.933e-9
0.103, -5.701e-9
0.102, -5.471e-9
0.101, -5.234e-9
0.100, -5.001e-9
0.099, -4.771e-9
0.098, -4.516e-9
0.097, -4.265e-9
0.096, -4.005e-9
0.095, -3.742e-9
0.094, -3.490e-9
0.093, -3.210e-9
0.092, -2.932e-9
0.091, -2.651e-9
0.090, -2.359e-9
0.089, -2.073e-9
0.088, -1.775e-9
0.087, -1.469e-9
0.086, -1.174e-9
0.085, -8.681e-10
0.084, -5.606e-10
0.083, -2.485e-10
0.082, 7.307e-11
0.081, 3.918e-10
0.080, 7.194e-10
0.079, 1.046e-9
0.078, 1.370e-9
0.077, 1.709e-9
0.076, 2.036e-9
0.075, 2.359e-9
0.074, 2.688e-9
0.073, 3.009e-9
0.072, 3.351e-9
0.071, 3.680e-9
0.070, 3.995e-9
0.069, 4.324e-9
0.068, 4.649e-9
0.067, 4.968e-9
0.066, 5.298e-9
0.065, 5.600e-9
0.064, 5.922e-9
0.063, 6.244e-9
0.062, 6.538e-9
0.061, 6.841e-9
0.060, 7.134e-9
0.059, 7.425e-9
0.058, 7.714e-9
0.057, 7.990e-9
0.056, 8.272e-9
0.055, 8.541e-9
0.054, 8.793e-9
0.053, 9.063e-9
0.052, 9.308e-9
0.051, 9.555e-9
0.050, 9.792e-9
0.049, 1.000e-8
0.048, 1.022e-8
0.047, 1.043e-8
0.046, 1.062e-8
0.045, 1.082e-8
0.044, 1.100e-8
0.043, 1.117e-8
0.042, 1.135e-8
0.041, 1.150e-8
0.040, 1.165e-8
0.039, 1.179e-8
0.038, 1.192e-8
0.037, 1.205e-8
0.036, 1.217e-8
0.035, 1.227e-8
0.034, 1.236e-8
0.033, 1.244e-8
0.032, 1.253e-8
0.031, 1.261e-8
0.030, 1.266e-8
0.029, 1.273e-8
0.028, 1.278e-8
0.027, 1.282e-8
0.026, 1.287e-8
0.025, 1.290e-8
0.024, 1.292e-8
0.023, 1.294e-8
0.022, 1.295e-8
0.021, 1.296e-8
0.020, 1.296e-8
0.019, 1.294e-8
0.018, 1.294e-8
0.017, 1.292e-8
0.016, 1.290e-8
0.015, 1.288e-8
0.014, 1.284e-8
0.013, 1.282e-8
0.012, 1.278e-8
0.011, 1.274e-8
0.010, 1.270e-8
0.009, 1.264e-8
0.008, 1.259e-8
0.007, 1.255e-8
0.006, 1.249e-8
0.005, 1.243e-8
0.004, 1.236e-8
0.003, 1.230e-8
0.002, 1.225e-8
0.001, 1.218e-8
0.000, 1.214e-8
-0.001, 1.208e-8
-0.002, 1.199e-8
-0.003, 1.191e-8
-0.004, 1.184e-8
-0.005, 1.176e-8
-0.006, 1.169e-8
-0.007, 1.161e-8
-0.008, 1.153e-8
-0.009, 1.146e-8
-0.010, 1.137e-8
-0.011, 1.130e-8
-0.012, 1.122e-8
-0.013, 1.114e-8
-0.014, 1.107e-8
-0.015, 1.098e-8
-0.016, 1.090e-8
-0.017, 1.083e-8
-0.018, 1.075e-8
-0.019, 1.068e-8
-0.020, 1.060e-8
-0.021, 1.052e-8
-0.022, 1.045e-8
-0.023, 1.037e-8
-0.024, 1.030e-8
-0.025, 1.022e-8
-0.026, 1.014e-8
-0.027, 1.007e-8
-0.028, 1.000e-8
-0.029, 9.926e-9
-0.030, 9.853e-9
-0.031, 9.779e-9
-0.032, 9.711e-9
-0.033, 9.644e-9
-0.034, 9.574e-9
-0.035, 9.507e-9
-0.036, 9.436e-9
-0.037, 9.371e-9
-0.038, 9.310e-9
-0.039, 9.245e-9
-0.040, 9.176e-9
-0.041, 9.111e-9
-0.042, 9.048e-9
-0.043, 8.992e-9
-0.044, 8.929e-9
-0.045, 8.864e-9
-0.046, 8.804e-9
-0.047, 8.744e-9
-0.048, 8.690e-9
-0.049, 8.635e-9
-0.050, 8.572e-9
-0.051, 8.515e-9
-0.052, 8.460e-9
-0.053, 8.405e-9
-0.054, 8.353e-9
-0.055, 8.296e-9
-0.056, 8.243e-9
-0.057, 8.198e-9
-0.058, 8.149e-9
-0.059, 8.100e-9
-0.060, 8.046e-9
-0.061, 7.995e-9
-0.062, 7.953e-9
-0.063, 7.906e-9
-0.064, 7.862e-9
-0.065, 7.813e-9
-0.066, 7.763e-9
-0.067, 7.725e-9
-0.068, 7.684e-9
-0.069, 7.640e-9
-0.070, 7.595e-9
-0.071, 7.550e-9
-0.072, 7.513e-9
-0.073, 7.476e-9
-0.074, 7.434e-9
-0.075, 7.393e-9
-0.076, 7.353e-9
-0.077, 7.320e-9
-0.078, 7.284e-9
-0.079, 7.247e-9
-0.080, 7.208e-9
-0.081, 7.173e-9
-0.082, 7.140e-9
-0.083, 7.109e-9
-0.084, 7.072e-9
-0.085, 7.034e-9
-0.086, 7.001e-9
-0.087, 6.971e-9
-0.088, 6.940e-9
-0.089, 6.912e-9
-0.090, 6.877e-9
-0.091, 6.846e-9
-0.092, 6.819e-9
-0.093, 6.788e-9
-0.094, 6.760e-9
-0.095, 6.726e-9
-0.096, 6.697e-9
-0.097, 6.672e-9
-0.098, 6.647e-9
-0.099, 6.620e-9
-0.100, 6.591e-9
-0.101, 6.562e-9
-0.102, 6.541e-9
-0.103, 6.517e-9
-0.104, 6.492e-9
-0.105, 6.466e-9
-0.106, 6.440e-9
-0.107, 6.422e-9
-0.108, 6.401e-9
-0.109, 6.376e-9
-0.110, 6.351e-9
-0.111, 6.324e-9
-0.112, 6.306e-9
-0.113, 6.287e-9
-0.114, 6.263e-9
-0.115, 6.239e-9
-0.116, 6.218e-9
-0.117, 6.200e-9
-0.118, 6.183e-9
-0.119, 6.162e-9
-0.120, 6.139e-9
-0.121, 6.119e-9
-0.122, 6.101e-9
-0.123, 6.086e-9
-0.124, 6.065e-9
-0.125, 6.042e-9
-0.126, 6.025e-9
-0.127, 6.008e-9
-0.128, 5.995e-9
-0.129, 5.979e-9
-0.130, 5.956e-9
-0.131, 5.940e-9
-0.132, 5.928e-9
-0.133, 5.913e-9
-0.134, 5.900e-9
-0.135, 5.880e-9
-0.136, 5.863e-9
-0.137, 5.852e-9
-0.138, 5.834e-9
-0.139, 5.822e-9
-0.140, 5.806e-9
-0.141, 5.791e-9
-0.142, 5.779e-9
-0.143, 5.764e-9
-0.144, 5.751e-9
-0.145, 5.735e-9
-0.146, 5.719e-9
-0.147, 5.711e-9
-0.148, 5.701e-9
-0.149, 5.687e-9
-0.150, 5.674e-9
-0.151, 5.661e-9
-0.152, 5.651e-9
-0.153, 5.644e-9
-0.154, 5.632e-9
-0.155, 5.617e-9
-0.156, 5.606e-9
-0.157, 5.596e-9
-0.158, 5.591e-9
-0.159, 5.577e-9
-0.160, 5.563e-9
-0.161, 5.556e-9
-0.162, 5.545e-9
-0.163, 5.540e-9
-0.164, 5.530e-9
-0.165, 5.516e-9
-0.166, 5.509e-9
-0.167, 5.502e-9
-0.168, 5.495e-9
-0.169, 5.489e-9
-0.170, 5.475e-9
-0.171, 5.469e-9
-0.172, 5.466e-9
-0.173, 5.460e-9
-0.174, 5.453e-9
-0.175, 5.443e-9
-0.176, 5.436e-9
-0.177, 5.434e-9
-0.178, 5.428e-9
-0.179, 5.424e-9
-0.180, 5.417e-9
-0.181, 5.408e-9
-0.182, 5.408e-9
-0.183, 5.403e-9
-0.184, 5.398e-9
-0.185, 5.392e-9
-0.186, 5.387e-9
-0.187, 5.388e-9
-0.188, 5.387e-9
-0.189, 5.381e-9
-0.190, 5.377e-9
-0.191, 5.373e-9
-0.192, 5.376e-9
-0.193, 5.376e-9
-0.194, 5.372e-9
-0.195, 5.369e-9
-0.196, 5.367e-9
-0.197, 5.369e-9
-0.198, 5.370e-9
-0.199, 5.368e-9
