May 24, 2023   22:33:49
Cyclic Voltammetry
File: c:/users/mapence2/desktop/data/2023_05_24\expt2\mix_6\cv_1.bin
Data Source:  Experiment
Instrument Model:  CHI760E
Header: CV
Note: 

Init E (V) = 0
High E (V) = 0.7
Low E (V) = 0
Final E (V) = 0
Init P/N = P
Scan Rate (V/s) = 0.005
Segment = 3
Sample Interval (V) = 0.001
Quiet Time (sec) = 2
Sensitivity (A/V) = 1e-9

Results:

Channel 1:
Segment 1:

Segment 2:

Segment 3:

Potential/V, Current/A

0.000, 5.308e-12
0.001, 4.066e-12
0.002, 3.161e-12
0.003, 2.524e-12
0.004, 2.049e-12
0.005, 1.718e-12
0.006, 1.432e-12
0.007, 1.142e-12
0.008, 9.672e-13
0.009, 8.278e-13
0.010, 6.490e-13
0.011, 4.710e-13
0.012, 3.969e-13
0.013, 2.426e-13
0.014, 1.945e-13
0.015, 1.756e-13
0.016, 8.191e-14
0.017, 1.654e-14
0.018, -1.496e-14
0.019, -1.315e-13
0.020, -1.874e-13
0.021, -3.205e-13
0.022, -4.458e-13
0.023, -3.402e-13
0.024, -4.442e-13
0.025, -5.104e-13
0.026, -5.860e-13
0.027, -6.561e-13
0.028, -6.230e-13
0.029, -6.033e-13
0.030, -6.372e-13
0.031, -7.049e-13
0.032, -7.963e-13
0.033, -8.396e-13
0.034, -8.813e-13
0.035, -9.168e-13
0.036, -9.372e-13
0.037, -9.719e-13
0.038, -9.955e-13
0.039, -1.010e-12
0.040, -1.055e-12
0.041, -1.180e-12
0.042, -1.225e-12
0.043, -1.292e-12
0.044, -1.312e-12
0.045, -1.361e-12
0.046, -1.348e-12
0.047, -1.444e-12
0.048, -1.480e-12
0.049, -1.466e-12
0.050, -1.518e-12
0.051, -1.513e-12
0.052, -1.533e-12
0.053, -1.596e-12
0.054, -1.677e-12
0.055, -1.757e-12
0.056, -1.837e-12
0.057, -1.807e-12
0.058, -1.837e-12
0.059, -1.916e-12
0.060, -1.939e-12
0.061, -2.069e-12
0.062, -2.145e-12
0.063, -2.038e-12
0.064, -2.107e-12
0.065, -2.141e-12
0.066, -2.185e-12
0.067, -2.160e-12
0.068, -2.107e-12
0.069, -2.233e-12
0.070, -2.297e-12
0.071, -2.298e-12
0.072, -2.323e-12
0.073, -2.403e-12
0.074, -2.398e-12
0.075, -2.388e-12
0.076, -2.559e-12
0.077, -2.534e-12
0.078, -2.611e-12
0.079, -2.572e-12
0.080, -2.581e-12
0.081, -2.585e-12
0.082, -2.653e-12
0.083, -2.683e-12
0.084, -2.766e-12
0.085, -2.775e-12
0.086, -2.779e-12
0.087, -2.816e-12
0.088, -2.848e-12
0.089, -2.860e-12
0.090, -2.873e-12
0.091, -2.917e-12
0.092, -2.942e-12
0.093, -3.016e-12
0.094, -3.075e-12
0.095, -3.090e-12
0.096, -3.139e-12
0.097, -3.261e-12
0.098, -3.231e-12
0.099, -3.228e-12
0.100, -3.257e-12
0.101, -3.316e-12
0.102, -3.463e-12
0.103, -3.490e-12
0.104, -3.497e-12
0.105, -3.520e-12
0.106, -3.598e-12
0.107, -3.649e-12
0.108, -3.669e-12
0.109, -3.709e-12
0.110, -3.771e-12
0.111, -3.831e-12
0.112, -3.865e-12
0.113, -3.910e-12
0.114, -3.934e-12
0.115, -3.985e-12
0.116, -4.017e-12
0.117, -4.047e-12
0.118, -4.062e-12
0.119, -4.105e-12
0.120, -4.192e-12
0.121, -4.211e-12
0.122, -4.202e-12
0.123, -4.307e-12
0.124, -4.336e-12
0.125, -4.425e-12
0.126, -4.503e-12
0.127, -4.550e-12
0.128, -4.574e-12
0.129, -4.625e-12
0.130, -4.666e-12
0.131, -4.694e-12
0.132, -4.761e-12
0.133, -4.800e-12
0.134, -4.788e-12
0.135, -4.872e-12
0.136, -4.937e-12
0.137, -4.952e-12
0.138, -5.001e-12
0.139, -5.022e-12
0.140, -5.070e-12
0.141, -5.085e-12
0.142, -5.207e-12
0.143, -5.272e-12
0.144, -5.296e-12
0.145, -5.365e-12
0.146, -5.427e-12
0.147, -5.457e-12
0.148, -5.512e-12
0.149, -5.537e-12
0.150, -5.547e-12
0.151, -5.605e-12
0.152, -5.650e-12
0.153, -5.734e-12
0.154, -5.802e-12
0.155, -5.831e-12
0.156, -5.922e-12
0.157, -5.943e-12
0.158, -6.018e-12
0.159, -6.078e-12
0.160, -6.164e-12
0.161, -6.229e-12
0.162, -6.253e-12
0.163, -6.320e-12
0.164, -6.353e-12
0.165, -6.466e-12
0.166, -6.579e-12
0.167, -6.638e-12
0.168, -6.657e-12
0.169, -6.719e-12
0.170, -6.821e-12
0.171, -6.943e-12
0.172, -6.911e-12
0.173, -6.958e-12
0.174, -7.088e-12
0.175, -7.083e-12
0.176, -7.115e-12
0.177, -7.199e-12
0.178, -7.351e-12
0.179, -7.422e-12
0.180, -7.548e-12
0.181, -7.593e-12
0.182, -7.651e-12
0.183, -7.579e-12
0.184, -7.775e-12
0.185, -7.821e-12
0.186, -7.804e-12
0.187, -7.899e-12
0.188, -8.021e-12
0.189, -8.070e-12
0.190, -8.098e-12
0.191, -8.152e-12
0.192, -8.281e-12
0.193, -8.327e-12
0.194, -8.386e-12
0.195, -8.404e-12
0.196, -8.507e-12
0.197, -8.661e-12
0.198, -8.719e-12
0.199, -8.800e-12
0.200, -8.895e-12
0.201, -9.073e-12
0.202, -9.092e-12
0.203, -9.164e-12
0.204, -9.309e-12
0.205, -9.302e-12
0.206, -9.331e-12
0.207, -9.401e-12
0.208, -9.428e-12
0.209, -9.557e-12
0.210, -9.663e-12
0.211, -9.720e-12
0.212, -9.843e-12
0.213, -9.967e-12
0.214, -1.004e-11
0.215, -1.009e-11
0.216, -1.024e-11
0.217, -1.022e-11
0.218, -1.035e-11
0.219, -1.041e-11
0.220, -1.044e-11
0.221, -1.059e-11
0.222, -1.073e-11
0.223, -1.074e-11
0.224, -1.080e-11
0.225, -1.083e-11
0.226, -1.096e-11
0.227, -1.106e-11
0.228, -1.112e-11
0.229, -1.116e-11
0.230, -1.125e-11
0.231, -1.134e-11
0.232, -1.139e-11
0.233, -1.154e-11
0.234, -1.165e-11
0.235, -1.171e-11
0.236, -1.186e-11
0.237, -1.191e-11
0.238, -1.199e-11
0.239, -1.212e-11
0.240, -1.220e-11
0.241, -1.228e-11
0.242, -1.238e-11
0.243, -1.248e-11
0.244, -1.257e-11
0.245, -1.268e-11
0.246, -1.276e-11
0.247, -1.292e-11
0.248, -1.303e-11
0.249, -1.313e-11
0.250, -1.324e-11
0.251, -1.329e-11
0.252, -1.344e-11
0.253, -1.357e-11
0.254, -1.364e-11
0.255, -1.376e-11
0.256, -1.394e-11
0.257, -1.406e-11
0.258, -1.416e-11
0.259, -1.422e-11
0.260, -1.438e-11
0.261, -1.445e-11
0.262, -1.452e-11
0.263, -1.462e-11
0.264, -1.476e-11
0.265, -1.500e-11
0.266, -1.505e-11
0.267, -1.512e-11
0.268, -1.540e-11
0.269, -1.534e-11
0.270, -1.548e-11
0.271, -1.557e-11
0.272, -1.570e-11
0.273, -1.582e-11
0.274, -1.584e-11
0.275, -1.593e-11
0.276, -1.611e-11
0.277, -1.614e-11
0.278, -1.625e-11
0.279, -1.637e-11
0.280, -1.650e-11
0.281, -1.667e-11
0.282, -1.687e-11
0.283, -1.703e-11
0.284, -1.725e-11
0.285, -1.726e-11
0.286, -1.735e-11
0.287, -1.752e-11
0.288, -1.767e-11
0.289, -1.778e-11
0.290, -1.786e-11
0.291, -1.812e-11
0.292, -1.827e-11
0.293, -1.824e-11
0.294, -1.835e-11
0.295, -1.850e-11
0.296, -1.870e-11
0.297, -1.881e-11
0.298, -1.900e-11
0.299, -1.903e-11
0.300, -1.925e-11
0.301, -1.937e-11
0.302, -1.949e-11
0.303, -1.970e-11
0.304, -1.988e-11
0.305, -1.999e-11
0.306, -2.017e-11
0.307, -2.031e-11
0.308, -2.053e-11
0.309, -2.077e-11
0.310, -2.099e-11
0.311, -2.109e-11
0.312, -2.124e-11
0.313, -2.144e-11
0.314, -2.160e-11
0.315, -2.170e-11
0.316, -2.191e-11
0.317, -2.208e-11
0.318, -2.237e-11
0.319, -2.250e-11
0.320, -2.274e-11
0.321, -2.293e-11
0.322, -2.309e-11
0.323, -2.331e-11
0.324, -2.349e-11
0.325, -2.375e-11
0.326, -2.396e-11
0.327, -2.411e-11
0.328, -2.449e-11
0.329, -2.461e-11
0.330, -2.476e-11
0.331, -2.499e-11
0.332, -2.531e-11
0.333, -2.547e-11
0.334, -2.570e-11
0.335, -2.595e-11
0.336, -2.626e-11
0.337, -2.651e-11
0.338, -2.670e-11
0.339, -2.695e-11
0.340, -2.725e-11
0.341, -2.753e-11
0.342, -2.783e-11
0.343, -2.807e-11
0.344, -2.843e-11
0.345, -2.871e-11
0.346, -2.893e-11
0.347, -2.923e-11
0.348, -2.959e-11
0.349, -2.993e-11
0.350, -3.026e-11
0.351, -3.055e-11
0.352, -3.083e-11
0.353, -3.119e-11
0.354, -3.165e-11
0.355, -3.196e-11
0.356, -3.225e-11
0.357, -3.259e-11
0.358, -3.296e-11
0.359, -3.337e-11
0.360, -3.375e-11
0.361, -3.418e-11
0.362, -3.455e-11
0.363, -3.501e-11
0.364, -3.561e-11
0.365, -3.609e-11
0.366, -3.642e-11
0.367, -3.694e-11
0.368, -3.744e-11
0.369, -3.790e-11
0.370, -3.839e-11
0.371, -3.894e-11
0.372, -3.956e-11
0.373, -3.999e-11
0.374, -4.074e-11
0.375, -4.144e-11
0.376, -4.208e-11
0.377, -4.266e-11
0.378, -4.330e-11
0.379, -4.362e-11
0.380, -4.405e-11
0.381, -4.465e-11
0.382, -4.536e-11
0.383, -4.607e-11
0.384, -4.662e-11
0.385, -4.727e-11
0.386, -4.790e-11
0.387, -4.857e-11
0.388, -4.922e-11
0.389, -4.974e-11
0.390, -5.045e-11
0.391, -5.116e-11
0.392, -5.206e-11
0.393, -5.281e-11
0.394, -5.348e-11
0.395, -5.419e-11
0.396, -5.493e-11
0.397, -5.586e-11
0.398, -5.676e-11
0.399, -5.790e-11
0.400, -5.874e-11
0.401, -5.950e-11
0.402, -6.047e-11
0.403, -6.172e-11
0.404, -6.282e-11
0.405, -6.365e-11
0.406, -6.452e-11
0.407, -6.555e-11
0.408, -6.658e-11
0.409, -6.765e-11
0.410, -6.877e-11
0.411, -6.985e-11
0.412, -7.109e-11
0.413, -7.231e-11
0.414, -7.360e-11
0.415, -7.480e-11
0.416, -7.609e-11
0.417, -7.730e-11
0.418, -7.875e-11
0.419, -8.025e-11
0.420, -8.167e-11
0.421, -8.294e-11
0.422, -8.427e-11
0.423, -8.555e-11
0.424, -8.705e-11
0.425, -8.824e-11
0.426, -8.940e-11
0.427, -9.069e-11
0.428, -9.231e-11
0.429, -9.375e-11
0.430, -9.514e-11
0.431, -9.644e-11
0.432, -9.778e-11
0.433, -9.925e-11
0.434, -1.009e-10
0.435, -1.023e-10
0.436, -1.037e-10
0.437, -1.052e-10
0.438, -1.067e-10
0.439, -1.080e-10
0.440, -1.095e-10
0.441, -1.110e-10
0.442, -1.124e-10
0.443, -1.137e-10
0.444, -1.152e-10
0.445, -1.166e-10
0.446, -1.181e-10
0.447, -1.194e-10
0.448, -1.207e-10
0.449, -1.221e-10
0.450, -1.234e-10
0.451, -1.247e-10
0.452, -1.261e-10
0.453, -1.275e-10
0.454, -1.288e-10
0.455, -1.301e-10
0.456, -1.314e-10
0.457, -1.329e-10
0.458, -1.344e-10
0.459, -1.358e-10
0.460, -1.380e-10
0.461, -1.391e-10
0.462, -1.400e-10
0.463, -1.411e-10
0.464, -1.423e-10
0.465, -1.437e-10
0.466, -1.450e-10
0.467, -1.460e-10
0.468, -1.472e-10
0.469, -1.484e-10
0.470, -1.494e-10
0.471, -1.506e-10
0.472, -1.520e-10
0.473, -1.533e-10
0.474, -1.544e-10
0.475, -1.554e-10
0.476, -1.563e-10
0.477, -1.575e-10
0.478, -1.587e-10
0.479, -1.601e-10
0.480, -1.610e-10
0.481, -1.619e-10
0.482, -1.629e-10
0.483, -1.638e-10
0.484, -1.648e-10
0.485, -1.656e-10
0.486, -1.664e-10
0.487, -1.673e-10
0.488, -1.681e-10
0.489, -1.690e-10
0.490, -1.697e-10
0.491, -1.704e-10
0.492, -1.712e-10
0.493, -1.719e-10
0.494, -1.728e-10
0.495, -1.736e-10
0.496, -1.745e-10
0.497, -1.753e-10
0.498, -1.761e-10
0.499, -1.770e-10
0.500, -1.779e-10
0.501, -1.787e-10
0.502, -1.798e-10
0.503, -1.808e-10
0.504, -1.817e-10
0.505, -1.824e-10
0.506, -1.832e-10
0.507, -1.838e-10
0.508, -1.846e-10
0.509, -1.855e-10
0.510, -1.862e-10
0.511, -1.869e-10
0.512, -1.875e-10
0.513, -1.881e-10
0.514, -1.886e-10
0.515, -1.893e-10
0.516, -1.899e-10
0.517, -1.905e-10
0.518, -1.909e-10
0.519, -1.913e-10
0.520, -1.918e-10
0.521, -1.922e-10
0.522, -1.926e-10
0.523, -1.931e-10
0.524, -1.935e-10
0.525, -1.938e-10
0.526, -1.943e-10
0.527, -1.948e-10
0.528, -1.953e-10
0.529, -1.959e-10
0.530, -1.966e-10
0.531, -1.972e-10
0.532, -1.979e-10
0.533, -1.984e-10
0.534, -1.991e-10
0.535, -1.995e-10
0.536, -1.998e-10
0.537, -2.000e-10
0.538, -2.002e-10
0.539, -2.005e-10
0.540, -2.007e-10
0.541, -2.010e-10
0.542, -2.013e-10
0.543, -2.015e-10
0.544, -2.017e-10
0.545, -2.020e-10
0.546, -2.023e-10
0.547, -2.025e-10
0.548, -2.027e-10
0.549, -2.030e-10
0.550, -2.033e-10
0.551, -2.037e-10
0.552, -2.041e-10
0.553, -2.045e-10
0.554, -2.047e-10
0.555, -2.051e-10
0.556, -2.054e-10
0.557, -2.056e-10
0.558, -2.059e-10
0.559, -2.062e-10
0.560, -2.064e-10
0.561, -2.067e-10
0.562, -2.070e-10
0.563, -2.073e-10
0.564, -2.076e-10
0.565, -2.079e-10
0.566, -2.083e-10
0.567, -2.086e-10
0.568, -2.089e-10
0.569, -2.093e-10
0.570, -2.097e-10
0.571, -2.097e-10
0.572, -2.097e-10
0.573, -2.100e-10
0.574, -2.103e-10
0.575, -2.104e-10
0.576, -2.106e-10
0.577, -2.109e-10
0.578, -2.109e-10
0.579, -2.110e-10
0.580, -2.112e-10
0.581, -2.115e-10
0.582, -2.116e-10
0.583, -2.117e-10
0.584, -2.118e-10
0.585, -2.119e-10
0.586, -2.122e-10
0.587, -2.127e-10
0.588, -2.132e-10
0.589, -2.136e-10
0.590, -2.141e-10
0.591, -2.144e-10
0.592, -2.148e-10
0.593, -2.151e-10
0.594, -2.154e-10
0.595, -2.155e-10
0.596, -2.158e-10
0.597, -2.161e-10
0.598, -2.165e-10
0.599, -2.168e-10
0.600, -2.173e-10
0.601, -2.176e-10
0.602, -2.179e-10
0.603, -2.182e-10
0.604, -2.184e-10
0.605, -2.186e-10
0.606, -2.188e-10
0.607, -2.191e-10
0.608, -2.193e-10
0.609, -2.194e-10
0.610, -2.197e-10
0.611, -2.199e-10
0.612, -2.201e-10
0.613, -2.203e-10
0.614, -2.206e-10
0.615, -2.209e-10
0.616, -2.211e-10
0.617, -2.213e-10
0.618, -2.214e-10
0.619, -2.216e-10
0.620, -2.217e-10
0.621, -2.220e-10
0.622, -2.221e-10
0.623, -2.224e-10
0.624, -2.225e-10
0.625, -2.226e-10
0.626, -2.229e-10
0.627, -2.231e-10
0.628, -2.233e-10
0.629, -2.236e-10
0.630, -2.238e-10
0.631, -2.241e-10
0.632, -2.243e-10
0.633, -2.245e-10
0.634, -2.248e-10
0.635, -2.251e-10
0.636, -2.253e-10
0.637, -2.254e-10
0.638, -2.257e-10
0.639, -2.258e-10
0.640, -2.260e-10
0.641, -2.261e-10
0.642, -2.264e-10
0.643, -2.268e-10
0.644, -2.272e-10
0.645, -2.274e-10
0.646, -2.277e-10
0.647, -2.279e-10
0.648, -2.282e-10
0.649, -2.284e-10
0.650, -2.286e-10
0.651, -2.289e-10
0.652, -2.293e-10
0.653, -2.298e-10
0.654, -2.303e-10
0.655, -2.304e-10
0.656, -2.307e-10
0.657, -2.311e-10
0.658, -2.317e-10
0.659, -2.322e-10
0.660, -2.325e-10
0.661, -2.328e-10
0.662, -2.331e-10
0.663, -2.337e-10
0.664, -2.343e-10
0.665, -2.347e-10
0.666, -2.351e-10
0.667, -2.353e-10
0.668, -2.355e-10
0.669, -2.356e-10
0.670, -2.358e-10
0.671, -2.359e-10
0.672, -2.359e-10
0.673, -2.361e-10
0.674, -2.363e-10
0.675, -2.367e-10
0.676, -2.369e-10
0.677, -2.372e-10
0.678, -2.376e-10
0.679, -2.379e-10
0.680, -2.383e-10
0.681, -2.386e-10
0.682, -2.389e-10
0.683, -2.393e-10
0.684, -2.396e-10
0.685, -2.399e-10
0.686, -2.402e-10
0.687, -2.405e-10
0.688, -2.408e-10
0.689, -2.410e-10
0.690, -2.412e-10
0.691, -2.414e-10
0.692, -2.418e-10
0.693, -2.420e-10
0.694, -2.421e-10
0.695, -2.423e-10
0.696, -2.424e-10
0.697, -2.427e-10
0.698, -2.429e-10
0.699, -2.432e-10
0.700, -2.430e-10
0.699, -2.417e-10
0.698, -2.407e-10
0.697, -2.398e-10
0.696, -2.392e-10
0.695, -2.386e-10
0.694, -2.381e-10
0.693, -2.376e-10
0.692, -2.369e-10
0.691, -2.362e-10
0.690, -2.357e-10
0.689, -2.353e-10
0.688, -2.350e-10
0.687, -2.346e-10
0.686, -2.342e-10
0.685, -2.337e-10
0.684, -2.332e-10
0.683, -2.326e-10
0.682, -2.320e-10
0.681, -2.315e-10
0.680, -2.310e-10
0.679, -2.303e-10
0.678, -2.296e-10
0.677, -2.290e-10
0.676, -2.285e-10
0.675, -2.278e-10
0.674, -2.272e-10
0.673, -2.265e-10
0.672, -2.260e-10
0.671, -2.255e-10
0.670, -2.249e-10
0.669, -2.244e-10
0.668, -2.238e-10
0.667, -2.232e-10
0.666, -2.227e-10
0.665, -2.222e-10
0.664, -2.216e-10
0.663, -2.211e-10
0.662, -2.206e-10
0.661, -2.201e-10
0.660, -2.196e-10
0.659, -2.191e-10
0.658, -2.186e-10
0.657, -2.182e-10
0.656, -2.177e-10
0.655, -2.172e-10
0.654, -2.167e-10
0.653, -2.162e-10
0.652, -2.156e-10
0.651, -2.151e-10
0.650, -2.146e-10
0.649, -2.141e-10
0.648, -2.136e-10
0.647, -2.131e-10
0.646, -2.126e-10
0.645, -2.121e-10
0.644, -2.117e-10
0.643, -2.112e-10
0.642, -2.108e-10
0.641, -2.104e-10
0.640, -2.100e-10
0.639, -2.095e-10
0.638, -2.092e-10
0.637, -2.088e-10
0.636, -2.083e-10
0.635, -2.078e-10
0.634, -2.073e-10
0.633, -2.068e-10
0.632, -2.062e-10
0.631, -2.056e-10
0.630, -2.052e-10
0.629, -2.049e-10
0.628, -2.044e-10
0.627, -2.036e-10
0.626, -2.030e-10
0.625, -2.026e-10
0.624, -2.020e-10
0.623, -2.015e-10
0.622, -2.009e-10
0.621, -2.004e-10
0.620, -1.998e-10
0.619, -1.994e-10
0.618, -1.988e-10
0.617, -1.984e-10
0.616, -1.981e-10
0.615, -1.978e-10
0.614, -1.976e-10
0.613, -1.972e-10
0.612, -1.968e-10
0.611, -1.964e-10
0.610, -1.958e-10
0.609, -1.954e-10
0.608, -1.951e-10
0.607, -1.945e-10
0.606, -1.940e-10
0.605, -1.933e-10
0.604, -1.928e-10
0.603, -1.925e-10
0.602, -1.922e-10
0.601, -1.920e-10
0.600, -1.917e-10
0.599, -1.913e-10
0.598, -1.910e-10
0.597, -1.903e-10
0.596, -1.899e-10
0.595, -1.893e-10
0.594, -1.886e-10
0.593, -1.881e-10
0.592, -1.875e-10
0.591, -1.868e-10
0.590, -1.862e-10
0.589, -1.857e-10
0.588, -1.852e-10
0.587, -1.844e-10
0.586, -1.838e-10
0.585, -1.831e-10
0.584, -1.824e-10
0.583, -1.822e-10
0.582, -1.820e-10
0.581, -1.814e-10
0.580, -1.809e-10
0.579, -1.802e-10
0.578, -1.795e-10
0.577, -1.788e-10
0.576, -1.782e-10
0.575, -1.776e-10
0.574, -1.769e-10
0.573, -1.763e-10
0.572, -1.757e-10
0.571, -1.751e-10
0.570, -1.744e-10
0.569, -1.737e-10
0.568, -1.730e-10
0.567, -1.724e-10
0.566, -1.720e-10
0.565, -1.715e-10
0.564, -1.709e-10
0.563, -1.704e-10
0.562, -1.699e-10
0.561, -1.696e-10
0.560, -1.692e-10
0.559, -1.688e-10
0.558, -1.685e-10
0.557, -1.680e-10
0.556, -1.675e-10
0.555, -1.669e-10
0.554, -1.663e-10
0.553, -1.656e-10
0.552, -1.651e-10
0.551, -1.646e-10
0.550, -1.639e-10
0.549, -1.632e-10
0.548, -1.628e-10
0.547, -1.622e-10
0.546, -1.614e-10
0.545, -1.608e-10
0.544, -1.601e-10
0.543, -1.594e-10
0.542, -1.588e-10
0.541, -1.582e-10
0.540, -1.577e-10
0.539, -1.571e-10
0.538, -1.563e-10
0.537, -1.558e-10
0.536, -1.551e-10
0.535, -1.544e-10
0.534, -1.538e-10
0.533, -1.531e-10
0.532, -1.523e-10
0.531, -1.515e-10
0.530, -1.508e-10
0.529, -1.501e-10
0.528, -1.494e-10
0.527, -1.487e-10
0.526, -1.480e-10
0.525, -1.473e-10
0.524, -1.465e-10
0.523, -1.458e-10
0.522, -1.450e-10
0.521, -1.443e-10
0.520, -1.435e-10
0.519, -1.428e-10
0.518, -1.420e-10
0.517, -1.412e-10
0.516, -1.404e-10
0.515, -1.397e-10
0.514, -1.389e-10
0.513, -1.382e-10
0.512, -1.376e-10
0.511, -1.369e-10
0.510, -1.364e-10
0.509, -1.359e-10
0.508, -1.352e-10
0.507, -1.343e-10
0.506, -1.335e-10
0.505, -1.328e-10
0.504, -1.322e-10
0.503, -1.315e-10
0.502, -1.307e-10
0.501, -1.299e-10
0.500, -1.292e-10
0.499, -1.286e-10
0.498, -1.281e-10
0.497, -1.276e-10
0.496, -1.267e-10
0.495, -1.260e-10
0.494, -1.254e-10
0.493, -1.248e-10
0.492, -1.241e-10
0.491, -1.232e-10
0.490, -1.225e-10
0.489, -1.218e-10
0.488, -1.211e-10
0.487, -1.203e-10
0.486, -1.194e-10
0.485, -1.185e-10
0.484, -1.178e-10
0.483, -1.170e-10
0.482, -1.163e-10
0.481, -1.156e-10
0.480, -1.148e-10
0.479, -1.142e-10
0.478, -1.134e-10
0.477, -1.127e-10
0.476, -1.120e-10
0.475, -1.113e-10
0.474, -1.106e-10
0.473, -1.098e-10
0.472, -1.091e-10
0.471, -1.084e-10
0.470, -1.077e-10
0.469, -1.070e-10
0.468, -1.063e-10
0.467, -1.057e-10
0.466, -1.049e-10
0.465, -1.043e-10
0.464, -1.036e-10
0.463, -1.029e-10
0.462, -1.023e-10
0.461, -1.016e-10
0.460, -1.009e-10
0.459, -1.002e-10
0.458, -9.951e-11
0.457, -9.885e-11
0.456, -9.822e-11
0.455, -9.753e-11
0.454, -9.691e-11
0.453, -9.626e-11
0.452, -9.559e-11
0.451, -9.489e-11
0.450, -9.428e-11
0.449, -9.366e-11
0.448, -9.307e-11
0.447, -9.244e-11
0.446, -9.169e-11
0.445, -9.097e-11
0.444, -9.039e-11
0.443, -8.986e-11
0.442, -8.917e-11
0.441, -8.849e-11
0.440, -8.796e-11
0.439, -8.733e-11
0.438, -8.669e-11
0.437, -8.605e-11
0.436, -8.536e-11
0.435, -8.478e-11
0.434, -8.425e-11
0.433, -8.355e-11
0.432, -8.291e-11
0.431, -8.230e-11
0.430, -8.187e-11
0.429, -8.160e-11
0.428, -8.088e-11
0.427, -8.007e-11
0.426, -7.933e-11
0.425, -7.864e-11
0.424, -7.806e-11
0.423, -7.743e-11
0.422, -7.672e-11
0.421, -7.608e-11
0.420, -7.559e-11
0.419, -7.531e-11
0.418, -7.471e-11
0.417, -7.399e-11
0.416, -7.334e-11
0.415, -7.277e-11
0.414, -7.218e-11
0.413, -7.156e-11
0.412, -7.096e-11
0.411, -7.030e-11
0.410, -6.966e-11
0.409, -6.904e-11
0.408, -6.847e-11
0.407, -6.801e-11
0.406, -6.748e-11
0.405, -6.684e-11
0.404, -6.619e-11
0.403, -6.563e-11
0.402, -6.507e-11
0.401, -6.445e-11
0.400, -6.389e-11
0.399, -6.334e-11
0.398, -6.275e-11
0.397, -6.213e-11
0.396, -6.163e-11
0.395, -6.112e-11
0.394, -6.054e-11
0.393, -5.996e-11
0.392, -5.945e-11
0.391, -5.891e-11
0.390, -5.844e-11
0.389, -5.800e-11
0.388, -5.751e-11
0.387, -5.699e-11
0.386, -5.643e-11
0.385, -5.590e-11
0.384, -5.528e-11
0.383, -5.471e-11
0.382, -5.418e-11
0.381, -5.361e-11
0.380, -5.310e-11
0.379, -5.261e-11
0.378, -5.206e-11
0.377, -5.153e-11
0.376, -5.101e-11
0.375, -5.049e-11
0.374, -4.994e-11
0.373, -4.948e-11
0.372, -4.900e-11
0.371, -4.868e-11
0.370, -4.816e-11
0.369, -4.766e-11
0.368, -4.728e-11
0.367, -4.682e-11
0.366, -4.635e-11
0.365, -4.588e-11
0.364, -4.537e-11
0.363, -4.484e-11
0.362, -4.432e-11
0.361, -4.380e-11
0.360, -4.325e-11
0.359, -4.287e-11
0.358, -4.242e-11
0.357, -4.195e-11
0.356, -4.150e-11
0.355, -4.102e-11
0.354, -4.046e-11
0.353, -3.997e-11
0.352, -3.956e-11
0.351, -3.909e-11
0.350, -3.857e-11
0.349, -3.812e-11
0.348, -3.766e-11
0.347, -3.716e-11
0.346, -3.672e-11
0.345, -3.632e-11
0.344, -3.587e-11
0.343, -3.545e-11
0.342, -3.505e-11
0.341, -3.460e-11
0.340, -3.425e-11
0.339, -3.386e-11
0.338, -3.348e-11
0.337, -3.303e-11
0.336, -3.264e-11
0.335, -3.233e-11
0.334, -3.197e-11
0.333, -3.153e-11
0.332, -3.110e-11
0.331, -3.061e-11
0.330, -3.021e-11
0.329, -2.987e-11
0.328, -2.946e-11
0.327, -2.907e-11
0.326, -2.873e-11
0.325, -2.842e-11
0.324, -2.806e-11
0.323, -2.768e-11
0.322, -2.732e-11
0.321, -2.702e-11
0.320, -2.681e-11
0.319, -2.656e-11
0.318, -2.620e-11
0.317, -2.583e-11
0.316, -2.559e-11
0.315, -2.532e-11
0.314, -2.489e-11
0.313, -2.460e-11
0.312, -2.435e-11
0.311, -2.397e-11
0.310, -2.372e-11
0.309, -2.347e-11
0.308, -2.308e-11
0.307, -2.273e-11
0.306, -2.249e-11
0.305, -2.215e-11
0.304, -2.186e-11
0.303, -2.159e-11
0.302, -2.131e-11
0.301, -2.108e-11
0.300, -2.080e-11
0.299, -2.051e-11
0.298, -2.019e-11
0.297, -1.996e-11
0.296, -1.966e-11
0.295, -1.937e-11
0.294, -1.912e-11
0.293, -1.889e-11
0.292, -1.863e-11
0.291, -1.835e-11
0.290, -1.812e-11
0.289, -1.786e-11
0.288, -1.764e-11
0.287, -1.744e-11
0.286, -1.715e-11
0.285, -1.696e-11
0.284, -1.671e-11
0.283, -1.652e-11
0.282, -1.625e-11
0.281, -1.602e-11
0.280, -1.580e-11
0.279, -1.561e-11
0.278, -1.541e-11
0.277, -1.516e-11
0.276, -1.496e-11
0.275, -1.477e-11
0.274, -1.453e-11
0.273, -1.449e-11
0.272, -1.442e-11
0.271, -1.431e-11
0.270, -1.414e-11
0.269, -1.379e-11
0.268, -1.352e-11
0.267, -1.340e-11
0.266, -1.320e-11
0.265, -1.298e-11
0.264, -1.283e-11
0.263, -1.275e-11
0.262, -1.267e-11
0.261, -1.230e-11
0.260, -1.213e-11
0.259, -1.207e-11
0.258, -1.187e-11
0.257, -1.165e-11
0.256, -1.143e-11
0.255, -1.126e-11
0.254, -1.108e-11
0.253, -1.102e-11
0.252, -1.093e-11
0.251, -1.070e-11
0.250, -1.046e-11
0.249, -1.029e-11
0.248, -1.014e-11
0.247, -1.001e-11
0.246, -9.862e-12
0.245, -9.653e-12
0.244, -9.483e-12
0.243, -9.386e-12
0.242, -9.224e-12
0.241, -9.160e-12
0.240, -9.044e-12
0.239, -8.949e-12
0.238, -8.838e-12
0.237, -8.619e-12
0.236, -8.419e-12
0.235, -8.326e-12
0.234, -8.219e-12
0.233, -8.126e-12
0.232, -7.994e-12
0.231, -7.821e-12
0.230, -7.735e-12
0.229, -7.627e-12
0.228, -7.513e-12
0.227, -7.371e-12
0.226, -7.334e-12
0.225, -7.206e-12
0.224, -7.086e-12
0.223, -6.991e-12
0.222, -6.843e-12
0.221, -6.585e-12
0.220, -6.500e-12
0.219, -6.410e-12
0.218, -6.320e-12
0.217, -6.336e-12
0.216, -6.182e-12
0.215, -6.031e-12
0.214, -5.913e-12
0.213, -5.831e-12
0.212, -5.712e-12
0.211, -5.643e-12
0.210, -5.583e-12
0.209, -5.493e-12
0.208, -5.426e-12
0.207, -5.364e-12
0.206, -5.231e-12
0.205, -5.111e-12
0.204, -5.007e-12
0.203, -4.885e-12
0.202, -4.720e-12
0.201, -4.629e-12
0.200, -4.640e-12
0.199, -4.489e-12
0.198, -4.421e-12
0.197, -4.348e-12
0.196, -4.213e-12
0.195, -4.204e-12
0.194, -4.043e-12
0.193, -4.003e-12
0.192, -3.965e-12
0.191, -3.833e-12
0.190, -3.814e-12
0.189, -3.669e-12
0.188, -3.540e-12
0.187, -3.485e-12
0.186, -3.402e-12
0.185, -3.401e-12
0.184, -3.351e-12
0.183, -3.217e-12
0.182, -3.179e-12
0.181, -3.130e-12
0.180, -3.038e-12
0.179, -2.973e-12
0.178, -2.938e-12
0.177, -2.846e-12
0.176, -2.725e-12
0.175, -2.665e-12
0.174, -2.627e-12
0.173, -2.568e-12
0.172, -2.579e-12
0.171, -2.458e-12
0.170, -2.376e-12
0.169, -2.261e-12
0.168, -2.185e-12
0.167, -2.098e-12
0.166, -2.022e-12
0.165, -1.968e-12
0.164, -1.782e-12
0.163, -1.780e-12
0.162, -1.898e-12
0.161, -1.752e-12
0.160, -1.630e-12
0.159, -1.617e-12
0.158, -1.617e-12
0.157, -1.607e-12
0.156, -1.557e-12
0.155, -1.448e-12
0.154, -1.295e-12
0.153, -1.270e-12
0.152, -1.271e-12
0.151, -1.140e-12
0.150, -9.687e-13
0.149, -9.577e-13
0.148, -9.908e-13
0.147, -1.018e-12
0.146, -9.601e-13
0.145, -9.987e-13
0.144, -8.522e-13
0.143, -7.860e-13
0.142, -6.931e-13
0.141, -7.151e-13
0.140, -5.938e-13
0.139, -5.860e-13
0.138, -5.111e-13
0.137, -5.458e-13
0.136, -5.001e-13
0.135, -4.158e-13
0.134, -3.623e-13
0.133, -2.646e-13
0.132, -2.071e-13
0.131, -1.953e-13
0.130, -1.252e-13
0.129, -3.780e-14
0.128, 3.702e-14
0.127, 2.205e-14
0.126, -4.017e-14
0.125, 1.496e-14
0.124, 9.136e-14
0.123, 1.733e-13
0.122, 2.339e-13
0.121, 2.906e-13
0.120, 2.197e-13
0.119, 1.725e-13
0.118, 1.756e-13
0.117, 2.481e-13
0.116, 3.930e-13
0.115, 4.544e-13
0.114, 4.127e-13
0.113, 4.332e-13
0.112, 5.009e-13
0.111, 4.489e-13
0.110, 5.552e-13
0.109, 6.151e-13
0.108, 6.844e-13
0.107, 6.702e-13
0.106, 7.663e-13
0.105, 7.608e-13
0.104, 7.829e-13
0.103, 7.474e-13
0.102, 8.695e-13
0.101, 1.100e-12
0.100, 1.135e-12
0.099, 1.066e-12
0.098, 1.086e-12
0.097, 1.125e-12
0.096, 1.103e-12
0.095, 1.162e-12
0.094, 1.204e-12
0.093, 1.218e-12
0.092, 1.242e-12
0.091, 1.284e-12
0.090, 1.374e-12
0.089, 1.379e-12
0.088, 1.355e-12
0.087, 1.326e-12
0.086, 1.419e-12
0.085, 1.444e-12
0.084, 1.490e-12
0.083, 1.547e-12
0.082, 1.593e-12
0.081, 1.674e-12
0.080, 1.682e-12
0.079, 1.581e-12
0.078, 1.637e-12
0.077, 1.747e-12
0.076, 1.772e-12
0.075, 1.822e-12
0.074, 1.851e-12
0.073, 1.893e-12
0.072, 1.937e-12
0.071, 1.962e-12
0.070, 2.031e-12
0.069, 1.979e-12
0.068, 2.019e-12
0.067, 2.056e-12
0.066, 2.142e-12
0.065, 2.205e-12
0.064, 2.175e-12
0.063, 2.157e-12
0.062, 2.192e-12
0.061, 2.243e-12
0.060, 2.251e-12
0.059, 2.278e-12
0.058, 2.312e-12
0.057, 2.378e-12
0.056, 2.443e-12
0.055, 2.480e-12
0.054, 2.489e-12
0.053, 2.489e-12
0.052, 2.495e-12
0.051, 2.538e-12
0.050, 2.549e-12
0.049, 2.617e-12
0.048, 2.656e-12
0.047, 2.716e-12
0.046, 2.675e-12
0.045, 2.582e-12
0.044, 2.590e-12
0.043, 2.598e-12
0.042, 2.667e-12
0.041, 2.737e-12
0.040, 2.872e-12
0.039, 2.883e-12
0.038, 2.899e-12
0.037, 2.950e-12
0.036, 2.927e-12
0.035, 2.842e-12
0.034, 2.940e-12
0.033, 3.064e-12
0.032, 3.093e-12
0.031, 3.091e-12
0.030, 3.167e-12
0.029, 3.261e-12
0.028, 3.141e-12
0.027, 3.123e-12
0.026, 3.236e-12
0.025, 3.355e-12
0.024, 3.340e-12
0.023, 3.363e-12
0.022, 3.409e-12
0.021, 3.410e-12
0.020, 3.495e-12
0.019, 3.502e-12
0.018, 3.542e-12
0.017, 3.591e-12
0.016, 3.582e-12
0.015, 3.610e-12
0.014, 3.686e-12
0.013, 3.673e-12
0.012, 3.660e-12
0.011, 3.764e-12
0.010, 3.759e-12
0.009, 3.762e-12
0.008, 3.857e-12
0.007, 3.902e-12
0.006, 3.876e-12
0.005, 3.850e-12
0.004, 3.923e-12
0.003, 3.969e-12
0.002, 3.941e-12
0.001, 3.966e-12
