May 25, 2023   21:51:00
Cyclic Voltammetry
File: c:/users/mapence2/desktop/data/2023_05_24\expt5\mix_5\cv_1.bin
Data Source:  Experiment
Instrument Model:  CHI760E
Header: CV
Note: 

Init E (V) = 0
High E (V) = 0.7
Low E (V) = 0
Final E (V) = 0
Init P/N = P
Scan Rate (V/s) = 0.005
Segment = 3
Sample Interval (V) = 0.001
Quiet Time (sec) = 2
Sensitivity (A/V) = 1e-9

Results:

Channel 1:
Segment 1:

Segment 2:

Segment 3:

Potential/V, Current/A

0.000, 1.570e-11
0.001, 1.293e-11
0.002, 1.119e-11
0.003, 9.957e-12
0.004, 8.815e-12
0.005, 7.903e-12
0.006, 7.275e-12
0.007, 6.709e-12
0.008, 6.048e-12
0.009, 5.553e-12
0.010, 5.090e-12
0.011, 4.654e-12
0.012, 4.180e-12
0.013, 3.968e-12
0.014, 3.661e-12
0.015, 3.328e-12
0.016, 3.150e-12
0.017, 2.949e-12
0.018, 2.768e-12
0.019, 2.523e-12
0.020, 2.323e-12
0.021, 2.193e-12
0.022, 1.869e-12
0.023, 1.799e-12
0.024, 1.732e-12
0.025, 1.610e-12
0.026, 1.607e-12
0.027, 1.379e-12
0.028, 1.425e-12
0.029, 1.420e-12
0.030, 1.342e-12
0.031, 1.076e-12
0.032, 1.010e-12
0.033, 1.021e-12
0.034, 1.043e-12
0.035, 9.538e-13
0.036, 9.089e-13
0.037, 7.970e-13
0.038, 7.222e-13
0.039, 6.702e-13
0.040, 6.025e-13
0.041, 5.852e-13
0.042, 5.348e-13
0.043, 4.930e-13
0.044, 4.938e-13
0.045, 4.434e-13
0.046, 4.158e-13
0.047, 4.324e-13
0.048, 3.954e-13
0.049, 3.379e-13
0.050, 2.544e-13
0.051, 2.347e-13
0.052, 1.520e-13
0.053, 1.213e-13
0.054, 7.009e-14
0.055, 2.678e-14
0.056, -2.835e-14
0.057, -8.348e-14
0.058, -9.057e-14
0.059, -1.095e-13
0.060, -1.599e-13
0.061, -1.922e-13
0.062, -2.182e-13
0.063, -2.505e-13
0.064, -3.308e-13
0.065, -3.079e-13
0.066, -3.300e-13
0.067, -3.875e-13
0.068, -3.135e-13
0.069, -3.410e-13
0.070, -4.844e-13
0.071, -5.332e-13
0.072, -5.072e-13
0.073, -5.623e-13
0.074, -6.246e-13
0.075, -6.505e-13
0.076, -6.647e-13
0.077, -6.742e-13
0.078, -7.584e-13
0.079, -8.104e-13
0.080, -8.096e-13
0.081, -8.530e-13
0.082, -9.144e-13
0.083, -9.309e-13
0.084, -9.813e-13
0.085, -1.032e-12
0.086, -1.010e-12
0.087, -1.045e-12
0.088, -1.101e-12
0.089, -1.148e-12
0.090, -1.237e-12
0.091, -1.282e-12
0.092, -1.317e-12
0.093, -1.334e-12
0.094, -1.389e-12
0.095, -1.413e-12
0.096, -1.435e-12
0.097, -1.513e-12
0.098, -1.534e-12
0.099, -1.595e-12
0.100, -1.675e-12
0.101, -1.659e-12
0.102, -1.695e-12
0.103, -1.789e-12
0.104, -1.905e-12
0.105, -1.960e-12
0.106, -1.934e-12
0.107, -1.947e-12
0.108, -2.040e-12
0.109, -2.125e-12
0.110, -2.112e-12
0.111, -2.085e-12
0.112, -2.171e-12
0.113, -2.179e-12
0.114, -2.252e-12
0.115, -2.319e-12
0.116, -2.453e-12
0.117, -2.530e-12
0.118, -2.618e-12
0.119, -2.615e-12
0.120, -2.640e-12
0.121, -2.617e-12
0.122, -2.702e-12
0.123, -2.794e-12
0.124, -2.857e-12
0.125, -2.898e-12
0.126, -2.857e-12
0.127, -2.905e-12
0.128, -2.958e-12
0.129, -3.101e-12
0.130, -3.191e-12
0.131, -3.165e-12
0.132, -3.165e-12
0.133, -3.191e-12
0.134, -3.369e-12
0.135, -3.486e-12
0.136, -3.584e-12
0.137, -3.636e-12
0.138, -3.679e-12
0.139, -3.765e-12
0.140, -3.777e-12
0.141, -3.800e-12
0.142, -3.893e-12
0.143, -3.990e-12
0.144, -4.081e-12
0.145, -4.166e-12
0.146, -4.227e-12
0.147, -4.302e-12
0.148, -4.410e-12
0.149, -4.487e-12
0.150, -4.597e-12
0.151, -4.675e-12
0.152, -4.717e-12
0.153, -4.839e-12
0.154, -5.009e-12
0.155, -5.106e-12
0.156, -5.187e-12
0.157, -5.250e-12
0.158, -5.478e-12
0.159, -5.534e-12
0.160, -5.597e-12
0.161, -5.673e-12
0.162, -5.756e-12
0.163, -5.819e-12
0.164, -5.980e-12
0.165, -6.145e-12
0.166, -6.254e-12
0.167, -6.327e-12
0.168, -6.476e-12
0.169, -6.575e-12
0.170, -6.635e-12
0.171, -6.759e-12
0.172, -6.858e-12
0.173, -6.911e-12
0.174, -7.021e-12
0.175, -7.118e-12
0.176, -7.332e-12
0.177, -7.439e-12
0.178, -7.486e-12
0.179, -7.607e-12
0.180, -7.792e-12
0.181, -7.882e-12
0.182, -8.096e-12
0.183, -8.152e-12
0.184, -8.245e-12
0.185, -8.470e-12
0.186, -8.552e-12
0.187, -8.620e-12
0.188, -8.719e-12
0.189, -8.787e-12
0.190, -8.980e-12
0.191, -9.145e-12
0.192, -9.305e-12
0.193, -9.453e-12
0.194, -9.672e-12
0.195, -9.913e-12
0.196, -1.006e-11
0.197, -1.021e-11
0.198, -1.038e-11
0.199, -1.058e-11
0.200, -1.071e-11
0.201, -1.082e-11
0.202, -1.095e-11
0.203, -1.122e-11
0.204, -1.137e-11
0.205, -1.154e-11
0.206, -1.167e-11
0.207, -1.177e-11
0.208, -1.201e-11
0.209, -1.213e-11
0.210, -1.232e-11
0.211, -1.252e-11
0.212, -1.270e-11
0.213, -1.280e-11
0.214, -1.294e-11
0.215, -1.314e-11
0.216, -1.334e-11
0.217, -1.355e-11
0.218, -1.377e-11
0.219, -1.410e-11
0.220, -1.427e-11
0.221, -1.447e-11
0.222, -1.461e-11
0.223, -1.485e-11
0.224, -1.502e-11
0.225, -1.525e-11
0.226, -1.541e-11
0.227, -1.555e-11
0.228, -1.573e-11
0.229, -1.600e-11
0.230, -1.625e-11
0.231, -1.648e-11
0.232, -1.669e-11
0.233, -1.692e-11
0.234, -1.720e-11
0.235, -1.746e-11
0.236, -1.774e-11
0.237, -1.798e-11
0.238, -1.822e-11
0.239, -1.847e-11
0.240, -1.875e-11
0.241, -1.907e-11
0.242, -1.937e-11
0.243, -1.975e-11
0.244, -1.999e-11
0.245, -2.030e-11
0.246, -2.063e-11
0.247, -2.100e-11
0.248, -2.128e-11
0.249, -2.163e-11
0.250, -2.198e-11
0.251, -2.223e-11
0.252, -2.250e-11
0.253, -2.271e-11
0.254, -2.305e-11
0.255, -2.350e-11
0.256, -2.381e-11
0.257, -2.418e-11
0.258, -2.447e-11
0.259, -2.474e-11
0.260, -2.515e-11
0.261, -2.552e-11
0.262, -2.584e-11
0.263, -2.618e-11
0.264, -2.655e-11
0.265, -2.699e-11
0.266, -2.746e-11
0.267, -2.788e-11
0.268, -2.838e-11
0.269, -2.885e-11
0.270, -2.929e-11
0.271, -2.976e-11
0.272, -3.022e-11
0.273, -3.070e-11
0.274, -3.116e-11
0.275, -3.164e-11
0.276, -3.206e-11
0.277, -3.251e-11
0.278, -3.301e-11
0.279, -3.356e-11
0.280, -3.406e-11
0.281, -3.436e-11
0.282, -3.467e-11
0.283, -3.511e-11
0.284, -3.553e-11
0.285, -3.598e-11
0.286, -3.645e-11
0.287, -3.699e-11
0.288, -3.753e-11
0.289, -3.808e-11
0.290, -3.863e-11
0.291, -3.923e-11
0.292, -3.976e-11
0.293, -4.026e-11
0.294, -4.092e-11
0.295, -4.158e-11
0.296, -4.209e-11
0.297, -4.271e-11
0.298, -4.338e-11
0.299, -4.404e-11
0.300, -4.467e-11
0.301, -4.526e-11
0.302, -4.592e-11
0.303, -4.654e-11
0.304, -4.720e-11
0.305, -4.792e-11
0.306, -4.859e-11
0.307, -4.933e-11
0.308, -5.007e-11
0.309, -5.084e-11
0.310, -5.159e-11
0.311, -5.228e-11
0.312, -5.298e-11
0.313, -5.365e-11
0.314, -5.439e-11
0.315, -5.522e-11
0.316, -5.598e-11
0.317, -5.672e-11
0.318, -5.752e-11
0.319, -5.826e-11
0.320, -5.912e-11
0.321, -6.000e-11
0.322, -6.084e-11
0.323, -6.161e-11
0.324, -6.247e-11
0.325, -6.340e-11
0.326, -6.428e-11
0.327, -6.517e-11
0.328, -6.608e-11
0.329, -6.699e-11
0.330, -6.795e-11
0.331, -6.886e-11
0.332, -6.978e-11
0.333, -7.064e-11
0.334, -7.154e-11
0.335, -7.257e-11
0.336, -7.352e-11
0.337, -7.446e-11
0.338, -7.538e-11
0.339, -7.644e-11
0.340, -7.757e-11
0.341, -7.859e-11
0.342, -7.961e-11
0.343, -8.070e-11
0.344, -8.181e-11
0.345, -8.303e-11
0.346, -8.404e-11
0.347, -8.510e-11
0.348, -8.618e-11
0.349, -8.718e-11
0.350, -8.809e-11
0.351, -8.901e-11
0.352, -9.004e-11
0.353, -9.108e-11
0.354, -9.204e-11
0.355, -9.288e-11
0.356, -9.379e-11
0.357, -9.471e-11
0.358, -9.568e-11
0.359, -9.674e-11
0.360, -9.775e-11
0.361, -9.875e-11
0.362, -9.988e-11
0.363, -1.010e-10
0.364, -1.021e-10
0.365, -1.033e-10
0.366, -1.045e-10
0.367, -1.058e-10
0.368, -1.072e-10
0.369, -1.084e-10
0.370, -1.095e-10
0.371, -1.105e-10
0.372, -1.115e-10
0.373, -1.125e-10
0.374, -1.134e-10
0.375, -1.144e-10
0.376, -1.154e-10
0.377, -1.165e-10
0.378, -1.174e-10
0.379, -1.183e-10
0.380, -1.194e-10
0.381, -1.204e-10
0.382, -1.213e-10
0.383, -1.222e-10
0.384, -1.232e-10
0.385, -1.241e-10
0.386, -1.250e-10
0.387, -1.260e-10
0.388, -1.269e-10
0.389, -1.279e-10
0.390, -1.288e-10
0.391, -1.298e-10
0.392, -1.309e-10
0.393, -1.318e-10
0.394, -1.328e-10
0.395, -1.338e-10
0.396, -1.347e-10
0.397, -1.356e-10
0.398, -1.364e-10
0.399, -1.373e-10
0.400, -1.381e-10
0.401, -1.389e-10
0.402, -1.397e-10
0.403, -1.406e-10
0.404, -1.415e-10
0.405, -1.425e-10
0.406, -1.433e-10
0.407, -1.441e-10
0.408, -1.449e-10
0.409, -1.458e-10
0.410, -1.468e-10
0.411, -1.475e-10
0.412, -1.483e-10
0.413, -1.490e-10
0.414, -1.498e-10
0.415, -1.505e-10
0.416, -1.514e-10
0.417, -1.522e-10
0.418, -1.528e-10
0.419, -1.535e-10
0.420, -1.540e-10
0.421, -1.546e-10
0.422, -1.554e-10
0.423, -1.559e-10
0.424, -1.566e-10
0.425, -1.573e-10
0.426, -1.577e-10
0.427, -1.582e-10
0.428, -1.587e-10
0.429, -1.593e-10
0.430, -1.599e-10
0.431, -1.604e-10
0.432, -1.610e-10
0.433, -1.617e-10
0.434, -1.624e-10
0.435, -1.633e-10
0.436, -1.642e-10
0.437, -1.649e-10
0.438, -1.657e-10
0.439, -1.665e-10
0.440, -1.671e-10
0.441, -1.676e-10
0.442, -1.682e-10
0.443, -1.687e-10
0.444, -1.692e-10
0.445, -1.696e-10
0.446, -1.700e-10
0.447, -1.704e-10
0.448, -1.707e-10
0.449, -1.710e-10
0.450, -1.714e-10
0.451, -1.718e-10
0.452, -1.723e-10
0.453, -1.727e-10
0.454, -1.731e-10
0.455, -1.735e-10
0.456, -1.740e-10
0.457, -1.745e-10
0.458, -1.749e-10
0.459, -1.754e-10
0.460, -1.760e-10
0.461, -1.766e-10
0.462, -1.771e-10
0.463, -1.777e-10
0.464, -1.782e-10
0.465, -1.787e-10
0.466, -1.791e-10
0.467, -1.795e-10
0.468, -1.799e-10
0.469, -1.801e-10
0.470, -1.803e-10
0.471, -1.805e-10
0.472, -1.808e-10
0.473, -1.808e-10
0.474, -1.809e-10
0.475, -1.810e-10
0.476, -1.812e-10
0.477, -1.814e-10
0.478, -1.817e-10
0.479, -1.820e-10
0.480, -1.822e-10
0.481, -1.826e-10
0.482, -1.830e-10
0.483, -1.835e-10
0.484, -1.840e-10
0.485, -1.844e-10
0.486, -1.851e-10
0.487, -1.857e-10
0.488, -1.861e-10
0.489, -1.866e-10
0.490, -1.870e-10
0.491, -1.874e-10
0.492, -1.880e-10
0.493, -1.888e-10
0.494, -1.895e-10
0.495, -1.902e-10
0.496, -1.909e-10
0.497, -1.914e-10
0.498, -1.917e-10
0.499, -1.919e-10
0.500, -1.921e-10
0.501, -1.923e-10
0.502, -1.926e-10
0.503, -1.929e-10
0.504, -1.932e-10
0.505, -1.937e-10
0.506, -1.944e-10
0.507, -1.952e-10
0.508, -1.961e-10
0.509, -1.968e-10
0.510, -1.972e-10
0.511, -1.974e-10
0.512, -1.975e-10
0.513, -1.976e-10
0.514, -1.978e-10
0.515, -1.979e-10
0.516, -1.979e-10
0.517, -1.982e-10
0.518, -1.985e-10
0.519, -1.990e-10
0.520, -1.997e-10
0.521, -2.007e-10
0.522, -2.020e-10
0.523, -2.032e-10
0.524, -2.043e-10
0.525, -2.052e-10
0.526, -2.059e-10
0.527, -2.065e-10
0.528, -2.069e-10
0.529, -2.071e-10
0.530, -2.071e-10
0.531, -2.070e-10
0.532, -2.070e-10
0.533, -2.071e-10
0.534, -2.072e-10
0.535, -2.071e-10
0.536, -2.069e-10
0.537, -2.068e-10
0.538, -2.065e-10
0.539, -2.064e-10
0.540, -2.064e-10
0.541, -2.064e-10
0.542, -2.064e-10
0.543, -2.063e-10
0.544, -2.063e-10
0.545, -2.063e-10
0.546, -2.063e-10
0.547, -2.063e-10
0.548, -2.063e-10
0.549, -2.062e-10
0.550, -2.062e-10
0.551, -2.064e-10
0.552, -2.067e-10
0.553, -2.072e-10
0.554, -2.081e-10
0.555, -2.094e-10
0.556, -2.110e-10
0.557, -2.122e-10
0.558, -2.131e-10
0.559, -2.138e-10
0.560, -2.139e-10
0.561, -2.138e-10
0.562, -2.136e-10
0.563, -2.134e-10
0.564, -2.132e-10
0.565, -2.131e-10
0.566, -2.129e-10
0.567, -2.128e-10
0.568, -2.129e-10
0.569, -2.128e-10
0.570, -2.127e-10
0.571, -2.128e-10
0.572, -2.129e-10
0.573, -2.133e-10
0.574, -2.138e-10
0.575, -2.141e-10
0.576, -2.144e-10
0.577, -2.150e-10
0.578, -2.158e-10
0.579, -2.167e-10
0.580, -2.176e-10
0.581, -2.182e-10
0.582, -2.186e-10
0.583, -2.190e-10
0.584, -2.195e-10
0.585, -2.200e-10
0.586, -2.204e-10
0.587, -2.208e-10
0.588, -2.212e-10
0.589, -2.215e-10
0.590, -2.219e-10
0.591, -2.220e-10
0.592, -2.221e-10
0.593, -2.221e-10
0.594, -2.221e-10
0.595, -2.220e-10
0.596, -2.218e-10
0.597, -2.214e-10
0.598, -2.212e-10
0.599, -2.210e-10
0.600, -2.210e-10
0.601, -2.207e-10
0.602, -2.206e-10
0.603, -2.207e-10
0.604, -2.207e-10
0.605, -2.210e-10
0.606, -2.213e-10
0.607, -2.218e-10
0.608, -2.222e-10
0.609, -2.227e-10
0.610, -2.229e-10
0.611, -2.231e-10
0.612, -2.235e-10
0.613, -2.238e-10
0.614, -2.243e-10
0.615, -2.247e-10
0.616, -2.250e-10
0.617, -2.254e-10
0.618, -2.256e-10
0.619, -2.258e-10
0.620, -2.256e-10
0.621, -2.254e-10
0.622, -2.253e-10
0.623, -2.252e-10
0.624, -2.255e-10
0.625, -2.257e-10
0.626, -2.256e-10
0.627, -2.257e-10
0.628, -2.257e-10
0.629, -2.258e-10
0.630, -2.261e-10
0.631, -2.266e-10
0.632, -2.273e-10
0.633, -2.279e-10
0.634, -2.286e-10
0.635, -2.294e-10
0.636, -2.302e-10
0.637, -2.309e-10
0.638, -2.315e-10
0.639, -2.320e-10
0.640, -2.326e-10
0.641, -2.331e-10
0.642, -2.334e-10
0.643, -2.334e-10
0.644, -2.335e-10
0.645, -2.340e-10
0.646, -2.350e-10
0.647, -2.360e-10
0.648, -2.364e-10
0.649, -2.366e-10
0.650, -2.365e-10
0.651, -2.362e-10
0.652, -2.363e-10
0.653, -2.365e-10
0.654, -2.370e-10
0.655, -2.373e-10
0.656, -2.373e-10
0.657, -2.373e-10
0.658, -2.373e-10
0.659, -2.373e-10
0.660, -2.372e-10
0.661, -2.370e-10
0.662, -2.370e-10
0.663, -2.369e-10
0.664, -2.373e-10
0.665, -2.380e-10
0.666, -2.387e-10
0.667, -2.394e-10
0.668, -2.399e-10
0.669, -2.402e-10
0.670, -2.405e-10
0.671, -2.407e-10
0.672, -2.408e-10
0.673, -2.410e-10
0.674, -2.415e-10
0.675, -2.420e-10
0.676, -2.427e-10
0.677, -2.433e-10
0.678, -2.439e-10
0.679, -2.444e-10
0.680, -2.447e-10
0.681, -2.449e-10
0.682, -2.451e-10
0.683, -2.452e-10
0.684, -2.453e-10
0.685, -2.452e-10
0.686, -2.451e-10
0.687, -2.449e-10
0.688, -2.448e-10
0.689, -2.448e-10
0.690, -2.448e-10
0.691, -2.448e-10
0.692, -2.449e-10
0.693, -2.451e-10
0.694, -2.456e-10
0.695, -2.462e-10
0.696, -2.469e-10
0.697, -2.475e-10
0.698, -2.478e-10
0.699, -2.481e-10
0.700, -2.481e-10
0.699, -2.467e-10
0.698, -2.455e-10
0.697, -2.446e-10
0.696, -2.439e-10
0.695, -2.432e-10
0.694, -2.428e-10
0.693, -2.424e-10
0.692, -2.420e-10
0.691, -2.415e-10
0.690, -2.408e-10
0.689, -2.400e-10
0.688, -2.392e-10
0.687, -2.384e-10
0.686, -2.376e-10
0.685, -2.369e-10
0.684, -2.363e-10
0.683, -2.360e-10
0.682, -2.356e-10
0.681, -2.353e-10
0.680, -2.349e-10
0.679, -2.344e-10
0.678, -2.338e-10
0.677, -2.334e-10
0.676, -2.329e-10
0.675, -2.323e-10
0.674, -2.321e-10
0.673, -2.320e-10
0.672, -2.316e-10
0.671, -2.307e-10
0.670, -2.294e-10
0.669, -2.283e-10
0.668, -2.278e-10
0.667, -2.281e-10
0.666, -2.286e-10
0.665, -2.286e-10
0.664, -2.283e-10
0.663, -2.277e-10
0.662, -2.268e-10
0.661, -2.257e-10
0.660, -2.247e-10
0.659, -2.237e-10
0.658, -2.227e-10
0.657, -2.219e-10
0.656, -2.211e-10
0.655, -2.204e-10
0.654, -2.197e-10
0.653, -2.191e-10
0.652, -2.186e-10
0.651, -2.181e-10
0.650, -2.177e-10
0.649, -2.174e-10
0.648, -2.172e-10
0.647, -2.169e-10
0.646, -2.165e-10
0.645, -2.160e-10
0.644, -2.154e-10
0.643, -2.148e-10
0.642, -2.143e-10
0.641, -2.138e-10
0.640, -2.132e-10
0.639, -2.128e-10
0.638, -2.125e-10
0.637, -2.121e-10
0.636, -2.117e-10
0.635, -2.114e-10
0.634, -2.112e-10
0.633, -2.108e-10
0.632, -2.103e-10
0.631, -2.098e-10
0.630, -2.092e-10
0.629, -2.087e-10
0.628, -2.081e-10
0.627, -2.075e-10
0.626, -2.069e-10
0.625, -2.063e-10
0.624, -2.057e-10
0.623, -2.051e-10
0.622, -2.046e-10
0.621, -2.043e-10
0.620, -2.037e-10
0.619, -2.032e-10
0.618, -2.028e-10
0.617, -2.025e-10
0.616, -2.023e-10
0.615, -2.021e-10
0.614, -2.020e-10
0.613, -2.019e-10
0.612, -2.016e-10
0.611, -2.014e-10
0.610, -2.012e-10
0.609, -2.010e-10
0.608, -2.008e-10
0.607, -2.007e-10
0.606, -2.006e-10
0.605, -2.006e-10
0.604, -2.003e-10
0.603, -2.000e-10
0.602, -1.999e-10
0.601, -1.998e-10
0.600, -1.997e-10
0.599, -1.996e-10
0.598, -1.995e-10
0.597, -1.994e-10
0.596, -1.993e-10
0.595, -1.992e-10
0.594, -1.990e-10
0.593, -1.988e-10
0.592, -1.985e-10
0.591, -1.981e-10
0.590, -1.976e-10
0.589, -1.970e-10
0.588, -1.964e-10
0.587, -1.958e-10
0.586, -1.952e-10
0.585, -1.945e-10
0.584, -1.939e-10
0.583, -1.933e-10
0.582, -1.926e-10
0.581, -1.920e-10
0.580, -1.914e-10
0.579, -1.907e-10
0.578, -1.900e-10
0.577, -1.893e-10
0.576, -1.887e-10
0.575, -1.882e-10
0.574, -1.875e-10
0.573, -1.869e-10
0.572, -1.863e-10
0.571, -1.858e-10
0.570, -1.851e-10
0.569, -1.844e-10
0.568, -1.838e-10
0.567, -1.831e-10
0.566, -1.825e-10
0.565, -1.818e-10
0.564, -1.811e-10
0.563, -1.803e-10
0.562, -1.795e-10
0.561, -1.787e-10
0.560, -1.779e-10
0.559, -1.772e-10
0.558, -1.767e-10
0.557, -1.762e-10
0.556, -1.758e-10
0.555, -1.754e-10
0.554, -1.749e-10
0.553, -1.744e-10
0.552, -1.738e-10
0.551, -1.733e-10
0.550, -1.728e-10
0.549, -1.723e-10
0.548, -1.718e-10
0.547, -1.713e-10
0.546, -1.709e-10
0.545, -1.705e-10
0.544, -1.698e-10
0.543, -1.692e-10
0.542, -1.686e-10
0.541, -1.681e-10
0.540, -1.675e-10
0.539, -1.670e-10
0.538, -1.662e-10
0.537, -1.656e-10
0.536, -1.650e-10
0.535, -1.645e-10
0.534, -1.641e-10
0.533, -1.635e-10
0.532, -1.629e-10
0.531, -1.624e-10
0.530, -1.619e-10
0.529, -1.615e-10
0.528, -1.610e-10
0.527, -1.605e-10
0.526, -1.599e-10
0.525, -1.594e-10
0.524, -1.589e-10
0.523, -1.583e-10
0.522, -1.576e-10
0.521, -1.571e-10
0.520, -1.565e-10
0.519, -1.560e-10
0.518, -1.556e-10
0.517, -1.553e-10
0.516, -1.550e-10
0.515, -1.546e-10
0.514, -1.541e-10
0.513, -1.534e-10
0.512, -1.527e-10
0.511, -1.519e-10
0.510, -1.511e-10
0.509, -1.504e-10
0.508, -1.497e-10
0.507, -1.489e-10
0.506, -1.481e-10
0.505, -1.474e-10
0.504, -1.468e-10
0.503, -1.464e-10
0.502, -1.460e-10
0.501, -1.455e-10
0.500, -1.450e-10
0.499, -1.446e-10
0.498, -1.443e-10
0.497, -1.440e-10
0.496, -1.437e-10
0.495, -1.433e-10
0.494, -1.427e-10
0.493, -1.419e-10
0.492, -1.411e-10
0.491, -1.402e-10
0.490, -1.393e-10
0.489, -1.383e-10
0.488, -1.374e-10
0.487, -1.365e-10
0.486, -1.356e-10
0.485, -1.347e-10
0.484, -1.338e-10
0.483, -1.330e-10
0.482, -1.322e-10
0.481, -1.314e-10
0.480, -1.306e-10
0.479, -1.298e-10
0.478, -1.290e-10
0.477, -1.283e-10
0.476, -1.276e-10
0.475, -1.268e-10
0.474, -1.260e-10
0.473, -1.252e-10
0.472, -1.244e-10
0.471, -1.236e-10
0.470, -1.229e-10
0.469, -1.222e-10
0.468, -1.214e-10
0.467, -1.207e-10
0.466, -1.201e-10
0.465, -1.196e-10
0.464, -1.190e-10
0.463, -1.182e-10
0.462, -1.175e-10
0.461, -1.168e-10
0.460, -1.163e-10
0.459, -1.157e-10
0.458, -1.149e-10
0.457, -1.141e-10
0.456, -1.134e-10
0.455, -1.126e-10
0.454, -1.118e-10
0.453, -1.111e-10
0.452, -1.105e-10
0.451, -1.098e-10
0.450, -1.090e-10
0.449, -1.084e-10
0.448, -1.078e-10
0.447, -1.071e-10
0.446, -1.066e-10
0.445, -1.060e-10
0.444, -1.054e-10
0.443, -1.048e-10
0.442, -1.041e-10
0.441, -1.035e-10
0.440, -1.030e-10
0.439, -1.025e-10
0.438, -1.019e-10
0.437, -1.012e-10
0.436, -1.005e-10
0.435, -9.994e-11
0.434, -9.921e-11
0.433, -9.843e-11
0.432, -9.786e-11
0.431, -9.714e-11
0.430, -9.639e-11
0.429, -9.583e-11
0.428, -9.520e-11
0.427, -9.450e-11
0.426, -9.389e-11
0.425, -9.329e-11
0.424, -9.280e-11
0.423, -9.217e-11
0.422, -9.145e-11
0.421, -9.077e-11
0.420, -8.990e-11
0.419, -8.895e-11
0.418, -8.826e-11
0.417, -8.776e-11
0.416, -8.751e-11
0.415, -8.718e-11
0.414, -8.671e-11
0.413, -8.622e-11
0.412, -8.577e-11
0.411, -8.509e-11
0.410, -8.426e-11
0.409, -8.341e-11
0.408, -8.267e-11
0.407, -8.201e-11
0.406, -8.134e-11
0.405, -8.062e-11
0.404, -7.988e-11
0.403, -7.919e-11
0.402, -7.852e-11
0.401, -7.781e-11
0.400, -7.709e-11
0.399, -7.641e-11
0.398, -7.577e-11
0.397, -7.519e-11
0.396, -7.457e-11
0.395, -7.404e-11
0.394, -7.350e-11
0.393, -7.291e-11
0.392, -7.226e-11
0.391, -7.160e-11
0.390, -7.100e-11
0.389, -7.037e-11
0.388, -6.975e-11
0.387, -6.918e-11
0.386, -6.861e-11
0.385, -6.803e-11
0.384, -6.740e-11
0.383, -6.685e-11
0.382, -6.630e-11
0.381, -6.574e-11
0.380, -6.522e-11
0.379, -6.457e-11
0.378, -6.399e-11
0.377, -6.347e-11
0.376, -6.300e-11
0.375, -6.243e-11
0.374, -6.179e-11
0.373, -6.123e-11
0.372, -6.077e-11
0.371, -6.025e-11
0.370, -5.979e-11
0.369, -5.930e-11
0.368, -5.878e-11
0.367, -5.824e-11
0.366, -5.776e-11
0.365, -5.729e-11
0.364, -5.685e-11
0.363, -5.631e-11
0.362, -5.571e-11
0.361, -5.515e-11
0.360, -5.469e-11
0.359, -5.418e-11
0.358, -5.370e-11
0.357, -5.320e-11
0.356, -5.266e-11
0.355, -5.212e-11
0.354, -5.159e-11
0.353, -5.108e-11
0.352, -5.048e-11
0.351, -4.993e-11
0.350, -4.945e-11
0.349, -4.897e-11
0.348, -4.858e-11
0.347, -4.823e-11
0.346, -4.775e-11
0.345, -4.719e-11
0.344, -4.669e-11
0.343, -4.618e-11
0.342, -4.564e-11
0.341, -4.512e-11
0.340, -4.463e-11
0.339, -4.413e-11
0.338, -4.363e-11
0.337, -4.316e-11
0.336, -4.275e-11
0.335, -4.230e-11
0.334, -4.185e-11
0.333, -4.134e-11
0.332, -4.087e-11
0.331, -4.036e-11
0.330, -3.991e-11
0.329, -3.948e-11
0.328, -3.900e-11
0.327, -3.850e-11
0.326, -3.800e-11
0.325, -3.751e-11
0.324, -3.701e-11
0.323, -3.653e-11
0.322, -3.605e-11
0.321, -3.557e-11
0.320, -3.511e-11
0.319, -3.467e-11
0.318, -3.432e-11
0.317, -3.395e-11
0.316, -3.351e-11
0.315, -3.310e-11
0.314, -3.263e-11
0.313, -3.224e-11
0.312, -3.186e-11
0.311, -3.147e-11
0.310, -3.108e-11
0.309, -3.067e-11
0.308, -3.025e-11
0.307, -2.979e-11
0.306, -2.937e-11
0.305, -2.897e-11
0.304, -2.864e-11
0.303, -2.826e-11
0.302, -2.783e-11
0.301, -2.744e-11
0.300, -2.704e-11
0.299, -2.664e-11
0.298, -2.631e-11
0.297, -2.584e-11
0.296, -2.542e-11
0.295, -2.514e-11
0.294, -2.481e-11
0.293, -2.447e-11
0.292, -2.410e-11
0.291, -2.377e-11
0.290, -2.347e-11
0.289, -2.309e-11
0.288, -2.270e-11
0.287, -2.236e-11
0.286, -2.204e-11
0.285, -2.171e-11
0.284, -2.144e-11
0.283, -2.119e-11
0.282, -2.086e-11
0.281, -2.048e-11
0.280, -2.009e-11
0.279, -1.977e-11
0.278, -1.944e-11
0.277, -1.911e-11
0.276, -1.882e-11
0.275, -1.854e-11
0.274, -1.825e-11
0.273, -1.792e-11
0.272, -1.761e-11
0.271, -1.733e-11
0.270, -1.704e-11
0.269, -1.672e-11
0.268, -1.643e-11
0.267, -1.614e-11
0.266, -1.582e-11
0.265, -1.555e-11
0.264, -1.528e-11
0.263, -1.501e-11
0.262, -1.473e-11
0.261, -1.445e-11
0.260, -1.419e-11
0.259, -1.398e-11
0.258, -1.372e-11
0.257, -1.346e-11
0.256, -1.324e-11
0.255, -1.304e-11
0.254, -1.282e-11
0.253, -1.257e-11
0.252, -1.237e-11
0.251, -1.215e-11
0.250, -1.190e-11
0.249, -1.164e-11
0.248, -1.141e-11
0.247, -1.119e-11
0.246, -1.101e-11
0.245, -1.077e-11
0.244, -1.053e-11
0.243, -1.037e-11
0.242, -1.018e-11
0.241, -9.965e-12
0.240, -9.756e-12
0.239, -9.583e-12
0.238, -9.408e-12
0.237, -9.209e-12
0.236, -9.019e-12
0.235, -8.819e-12
0.234, -8.628e-12
0.233, -8.425e-12
0.232, -8.218e-12
0.231, -8.055e-12
0.230, -7.880e-12
0.229, -7.684e-12
0.228, -7.481e-12
0.227, -7.299e-12
0.226, -7.089e-12
0.225, -6.929e-12
0.224, -6.869e-12
0.223, -6.702e-12
0.222, -6.516e-12
0.221, -6.378e-12
0.220, -6.223e-12
0.219, -6.012e-12
0.218, -5.871e-12
0.217, -5.719e-12
0.216, -5.557e-12
0.215, -5.403e-12
0.214, -5.269e-12
0.213, -5.087e-12
0.212, -4.940e-12
0.211, -4.878e-12
0.210, -4.811e-12
0.209, -4.595e-12
0.208, -4.396e-12
0.207, -4.299e-12
0.206, -4.196e-12
0.205, -4.114e-12
0.204, -3.926e-12
0.203, -3.813e-12
0.202, -3.632e-12
0.201, -3.487e-12
0.200, -3.365e-12
0.199, -3.280e-12
0.198, -3.151e-12
0.197, -2.989e-12
0.196, -2.888e-12
0.195, -2.743e-12
0.194, -2.665e-12
0.193, -2.605e-12
0.192, -2.537e-12
0.191, -2.408e-12
0.190, -2.256e-12
0.189, -2.101e-12
0.188, -1.997e-12
0.187, -1.866e-12
0.186, -1.735e-12
0.185, -1.646e-12
0.184, -1.527e-12
0.183, -1.431e-12
0.182, -1.308e-12
0.181, -1.228e-12
0.180, -1.147e-12
0.179, -1.084e-12
0.178, -9.947e-13
0.177, -9.136e-13
0.176, -7.947e-13
0.175, -6.876e-13
0.174, -6.206e-13
0.173, -5.324e-13
0.172, -4.529e-13
0.171, -3.875e-13
0.170, -2.938e-13
0.169, -2.292e-13
0.168, -6.064e-14
0.167, -1.969e-14
0.166, 5.041e-14
0.165, 1.181e-13
0.164, 7.088e-14
0.163, 1.930e-13
0.162, 3.654e-13
0.161, 4.930e-13
0.160, 5.899e-13
0.159, 5.907e-13
0.158, 5.899e-13
0.157, 7.317e-13
0.156, 8.726e-13
0.155, 1.051e-12
0.154, 1.040e-12
0.153, 1.019e-12
0.152, 1.082e-12
0.151, 1.198e-12
0.150, 1.158e-12
0.149, 1.321e-12
0.148, 1.414e-12
0.147, 1.454e-12
0.146, 1.469e-12
0.145, 1.566e-12
0.144, 1.654e-12
0.143, 1.662e-12
0.142, 1.679e-12
0.141, 1.770e-12
0.140, 1.930e-12
0.139, 2.056e-12
0.138, 2.093e-12
0.137, 2.150e-12
0.136, 2.229e-12
0.135, 2.238e-12
0.134, 2.316e-12
0.133, 2.242e-12
0.132, 2.316e-12
0.131, 2.334e-12
0.130, 2.344e-12
0.129, 2.437e-12
0.128, 2.450e-12
0.127, 2.497e-12
0.126, 2.601e-12
0.125, 2.626e-12
0.124, 2.691e-12
0.123, 2.772e-12
0.122, 2.832e-12
0.121, 2.883e-12
0.120, 2.890e-12
0.119, 2.915e-12
0.118, 2.950e-12
0.117, 3.034e-12
0.116, 3.060e-12
0.115, 3.122e-12
0.114, 3.174e-12
0.113, 3.195e-12
0.112, 3.224e-12
0.111, 3.253e-12
0.110, 3.279e-12
0.109, 3.335e-12
0.108, 3.347e-12
0.107, 3.378e-12
0.106, 3.439e-12
0.105, 3.435e-12
0.104, 3.491e-12
0.103, 3.528e-12
0.102, 3.563e-12
0.101, 3.598e-12
0.100, 3.690e-12
0.099, 3.684e-12
0.098, 3.654e-12
0.097, 3.672e-12
0.096, 3.728e-12
0.095, 3.766e-12
0.094, 3.763e-12
0.093, 3.825e-12
0.092, 3.824e-12
0.091, 3.851e-12
0.090, 3.855e-12
0.089, 3.909e-12
0.088, 3.921e-12
0.087, 3.918e-12
0.086, 3.934e-12
0.085, 3.994e-12
0.084, 3.996e-12
0.083, 4.043e-12
0.082, 4.134e-12
0.081, 4.132e-12
0.080, 4.151e-12
0.079, 4.151e-12
0.078, 4.155e-12
0.077, 4.199e-12
0.076, 4.220e-12
0.075, 4.248e-12
0.074, 4.265e-12
0.073, 4.263e-12
0.072, 4.295e-12
0.071, 4.318e-12
0.070, 4.323e-12
0.069, 4.359e-12
0.068, 4.359e-12
0.067, 4.403e-12
0.066, 4.386e-12
0.065, 4.419e-12
0.064, 4.365e-12
0.063, 4.343e-12
0.062, 4.426e-12
0.061, 4.444e-12
0.060, 4.477e-12
0.059, 4.505e-12
0.058, 4.521e-12
0.057, 4.540e-12
0.056, 4.496e-12
0.055, 4.526e-12
0.054, 4.531e-12
0.053, 4.496e-12
0.052, 4.424e-12
0.051, 4.446e-12
0.050, 4.603e-12
0.049, 4.631e-12
0.048, 4.633e-12
0.047, 4.585e-12
0.046, 4.600e-12
0.045, 4.597e-12
0.044, 4.588e-12
0.043, 4.573e-12
0.042, 4.602e-12
0.041, 4.674e-12
0.040, 4.707e-12
0.039, 4.668e-12
0.038, 4.655e-12
0.037, 4.621e-12
0.036, 4.602e-12
0.035, 4.557e-12
0.034, 4.597e-12
0.033, 4.685e-12
0.032, 4.695e-12
0.031, 4.692e-12
0.030, 4.684e-12
0.029, 4.740e-12
0.028, 4.766e-12
0.027, 4.759e-12
0.026, 4.707e-12
0.025, 4.644e-12
0.024, 4.715e-12
0.023, 4.757e-12
0.022, 4.737e-12
0.021, 4.692e-12
0.020, 4.677e-12
0.019, 4.711e-12
0.018, 4.703e-12
0.017, 4.752e-12
0.016, 4.739e-12
0.015, 4.799e-12
0.014, 4.815e-12
0.013, 4.792e-12
0.012, 4.796e-12
0.011, 4.863e-12
0.010, 4.814e-12
0.009, 4.805e-12
0.008, 4.811e-12
0.007, 4.776e-12
0.006, 4.820e-12
0.005, 4.870e-12
0.004, 4.842e-12
0.003, 4.847e-12
0.002, 4.864e-12
0.001, 4.889e-12
